PPG
-2015067
-2015050
-2014768
-2015380
-2015573
-2015295
-2014964
-2015150
-2015622
-2016039
-2016045
-2015644
-2015712
-2016390
-2016533
-2016614
-2016253
-2016346
-2016792
-2017050
-2017055
-2016865
-2016895
-2017238
-2017424
-2017368
-2017201
-2017429
-2017981
-2018005
-2017734
-2017428
-2017743
-2018017
-2018442
-2018258
-2017799
-2018111
-2018352
-2018763
-2018651
-2018176
-2018375
-2018688
-2019140
-2018984
-2018772
-2018992
-2019403
-2019598
-2019512
-2019200
-2019295
-2019832
-2019951
-2019656
-2019310
-2019571
-2019976
-2020166
-2019942
-2020406
-2019899
-2020055
-2020223
-2020034
-2019464
-2019334
-2019639
-2019484
-2019165
-2018583
-2018483
-2018298
-2017831
-2017191
-2016230
-2015491
-2015415
-2015058
-2014109
-2012983
-2012293
-2011984
-2011570
-2010764
-2009809
-2009151
-2008866
-2008441
-2007744
-2006791
-2006737
-2006706
-2006457
-2005925
-2006630
-2005296
-2005055
-2005099
-2004905
-2004307
-2004101
-2004532
-2004372
-2004334
-2003990
-2004029
-2003984
-2004202
-2004264
-2004137
-2004122
-2004822
-2005090
-2005078
-2005037
-2005425
-2005515
-2005964
-2005972
-2006045
-2006287
-2006858
-2007288
-2007059
-2007156
-2007442
-2008044
-2008161
-2008048
-2008042
-2008196
-2008631
-2008905
-2008751
-2008598
-2008997
-2009097
-2009314
-2008980
-2009281
-2009508
-2009332
-2008893
-2008841
-2009484
-2009454
-2009143
-2008774
-2008570
-2008614
-2008127
-2008326
-2008136
-2007852
-2008143
-2008157
-2007670
-2007205
-2007334
-2007596
-2007571
-2007284
-2006901
-2006791
-2006944
-2006824
-2006772
-2006278
-2006294
-2006866
-2007134
-2006877
-2006561
-2006674
-2007039
-2007397
-2007258
-2007235
-2007395
-2008019
-2008201
-2008079
-2008099
-2008439
-2008919
-2009127
-2009066
-2008990
-2009189
-2009703
-2010109
-2010205
-2010084
-2010075
-2010636
-2010960
-2010662
-2010596
-2010718
-2011152
-2011276
-2011369
-2010884
-2011000
-2011353
-2011491
-2011460
-2011197
-2011126
-2011481
-2011580
-2011424
-2011098
-2011256
-2013251
-2012211
-2011527
-2011222
-2011213
-2011489
-2011365
-2011404
-2010969
-2010927
-2011396
-2011560
-2011111
-2010919
-2010927
-2011461
-2010937
-2011205
-2011206
-2011074
-2011435
-2011679
-2011714
-2011320
-2011311
-2012108
-2012216
-2012195
-2011834
-2012104
-2012573
-2012865
-2012864
-2012710
-2012822
-2013307
-2013543
-2013369
-2013128
-2013139
-2013639
-2013850
-2013319
-2013521
-2013667
-2014148
-2014262
-2014139
-2014085
-2014265
-2014537
-2014806
-2014702
-2014452
-2014456
-2014590
-2014716
-2014879
-2014638
-2014693
-2015117
-2015277
-2015484
-2015076
-2015037
-2015545
-2015717
-2015754
-2015572
-2015620
-2016084
-2016232
-2016194
-2015935
-2016047
-2016599
-2016793
-2016671
-2016503
-2016570
-2016859
-2017364
-2017257
-2017056
-2017151
-2017541
-2018071
-2017876
-2017649
-2017729
-2018197
-2018007
-2018451
-2018169
-2018493
-2018866
-2019270
-2018927
-2018618
-2018814
-2019272
-2019716
-2019502
-2019461
-2019520
-2019909
-2020099
-2020049
-2019870
-2020118
-2020364
-2020630
-2020362
-2021227
-2020499
-2020827
-2021153
-2020919
-2020669
-2020551
-2021074
-2021216
-2020865
-2020570
-2020875
-2021232
-2021383
-2021226
-2021065
-2022357
-2021965
-2021756
-2021458
-2021173
-2021306
-2021824
-2021735
-2023481
-2022162
-2021928
-2022072
-2022334
-2021923
-2021662
-2022057
-2022443
-2022623
-2022537
-2022136
-2022443
-2022952
-2023117
-2023087
-2022821
-2023035
-2023314
-2024599
-2023583
-2023278
-2023600
-2024073
-2024069
-2024152
-2023757
-2023609
-2024476
-2024934
-2024866
-2024210
-2024538
-2025072
-2025398
-2025400
-2025248
-2025828
-2026163
-2025832
-2025691
-2025874
-2026226
-2026539
-2026367
-2026259
-2026419
-2026695
-2027063
-2026787
-2026724
-2026581
-2026971
-2027264
-2027307
-2027011
-2026907
-2027476
-2027771
-2027396
-2027042
-2027525
-2027895
-2027830
-2027867
-2027649
-2027371
-2027707
-2028225
-2028099
-2027654
-2027758
-2028190
-2027917
-2027924
-2027585
-2027954
-2028232
-2028380
-2028250
-2028114
-2028321
-2028607
-2028791
-2028524
-2028380
-2028348
-2028928
-2029178
-2028720
-2028300
-2028056
-2028275
-2028534
-2028540
-2028017
-2027885
-2028130
-2028454
-2028312
-2027742
-2027971
-2028224
-2028341
-2028083
-2027951
-2028140
-2028243
-2028538
-2028302
-2028157
-2028522
-2028742
-2028778
-2028522
-2028434
-2028407
-2028584
-2028660
-2028272
-2028158
-2028032
-2028385
-2028555
-2028315
-2027902
-2027829
-2028243
-2028155
-2027954
-2027709
-2027618
-2028229
-2028315
-2028190
-2027752
-2027878
-2028159
-2028128
-2027939
-2027847
-2027810
-2028234
-2028284
-2028155
-2027731
-2027932
-2028083
-2027833
-2027932
-2027442
-2027576
-2027943
-2028033
-2027746
-2027428
-2027013
-2027532
-2027459
-2027071
-2026739
-2026795
-2027124
-2026905
-2026757
-2026284
-2026212
-2026679
-2026596
-2026138
-2025989
-2025732
-2026297
-2026234
-2025917
-2025762
-2025714
-2025981
-2025885
-2025392
-2025072
-2025288
-2025551
-2025315
-2024963
-2024268
-2024019
-2023923
-2023486
-2022666
-2021859
-2021288
-2020723
-2020102
-2019117
-2017859
-2016765
-2016391
-2015513
-2014522
-2013304
-2012574
-2011910
-2011368
-2010118
-2008990
-2008052
-2007783
-2008623
-2006798
-2005872
-2004968
-2004693
-2004607
-2003852
-2003150
-2002984
-2003182
-2003207
-2002691
-2003317
-2002446
-2002455
-2002592
-2002263
-2002055
-2002363
-2002787
-2003033
-2003037
-2002673
-2002996
-2003544
-2004068
-2004062
-2003966
-2004105
-2004811
-2005175
-2005078
-2004947
-2005360
-2005735
-2006377
-2006256
-2006230
-2006410
-2006917
-2007241
-2007125
-2006935
-2007018
-2007542
-2007671
-2007361
-2007280
-2007312
-2007806
-2007483
-2007569
-2007176
-2007139
-2007486
-2007617
-2007008
-2006957
-2006988
-2007203
-2007257
-2006732
-2006080
-2006045
-2006160
-2006249
-2005720
-2005116
-2004952
-2005160
-2005095
-2004422
-2004119
-2003849
-2003331
-2003674
-2003252
-2002835
-2002820
-2002912
-2003045
-2002826
-2002216
-2002094
-2002570
-2002745
-2002494
-2002026
-2002403
-2002511
-2002657
-2002550
-2002458
-2002749
-2003297
-2003625
-2003541
-2003166
-2003247
-2003671
-2004076
-2004105
-2005257
-2004445
-2004489
-2004619
-2004466
-2003489
-2003967
-2004401
-2004593
-2004376
-2004016
-2004266
-2004428
-2004777
-2004341
-2004105
-2003963
-2004479
-2004298
-2004427
-2003802
-2003879
-2004358
-2004661
-2004429
-2004114
-2004278
-2004507
-2004850
-2004668
-2004372
-2003916
-2004524
-2005161
-2005091
-2004700
-2004908
-2005187
-2005554
-2005352
-2005037
-2005199
-2005773
-2006070
-2005970
-2005611
-2005670
-2006417
-2006215
-2006489
-2006084
-2006426
-2007167
-2007389
-2006889
-2006766
-2007124
-2007838
-2008302
-2008318
-2008042
-2009576
-2009178
-2009059
-2008774
-2009887
-2009117
-2009397
-2009429
-2009389
-2009194
-2009487
-2009587
-2009725
-2009579
-2009165
-2009293
-2009211
-2009804
-2009720
-2009208
-2009474
-2009768
-2009741
-2009669
-2009508
-2009535
-2009780
-2009922
-2009714
-2009533
-2009636
-2010123
-2010306
-2009860
-2009746
-2009964
-2010476
-2010344
-2010164
-2010169
-2009972
-2010386
-2010587
-2010443
-2010048
-2009904
-2010323
-2010753
-2010288
-2010284
-2010294
-2010819
-2011293
-2010948
-2010453
-2010491
-2010748
-2011079
-2010970
-2010721
-2010795
-2011162
-2011354
-2011379
-2011252
-2011199
-2011419
-2011520
-2011157
-2011084
-2011137
-2011339
-2011683
-2011513
-2011139
-2011045
-2011478
-2011540
-2011417
-2010995
-2010957
-2011449
-2011682
-2011199
-2011023
-2010903
-2011437
-2011381
-2011263
-2010438
-2011008
-2011276
-2011608
-2011503
-2011123
-2011324
-2011509
-2011939
-2011786
-2011356
-2011418
-2012001
-2012051
-2011955
-2011990
-2011972
-2012481
-2012711
-2012716
-2012338
-2012494
-2012799
-2013077
-2012635
-2012690
-2012992
-2013545
-2013713
-2013638
-2013170
-2013444
-2013267
-2013797
-2013592
-2013541
-2013521
-2013869
-2013942
-2013639
-2013731
-2013680
-2014422
-2014229
-2013898
-2013883
-2014129
-2014593
-2014842
-2014334
-2014032
-2014357
-2014626
-2014778
-2014554
-2014644
-2014532
-2015236
-2015424
-2015085
-2015235
-2015366
-2015939
-2015909
-2015845
-2015518
-2015713
-2016343
-2016681
-2016478
-2016177
-2016518
-2017098
-2017491
-2017063
-2017052
-2017003
-2017057
-2017519
-2017721
-2017115
-2017678
-2018017
-2018541
-2018548
-2018235
-2018586
-2018984
-2019212
-2019151
-2018993
-2018928
-2019430
-2019801
-2019620
-2019710
-2019995
-2020510
-2020571
-2020583
-2020500
-2020803
-2021329
-2021418
-2021451
-2021415
-2021622
-2022239
-2022537
-2022525
-2022437
-2023039
-2023174
-2024109
-2024243
-2024018
-2024998
-2025123
-2025048
-2024783
-2025021
-2025533
-2025772
-2025690
-2025677
-2025839
-2026259
-2026655
-2026030
-2026346
-2026686
-2026986
-2027398
-2027341
-2026958
-2027645
-2028009
-2028270
-2027989
-2027713
-2028152
-2028704
-2029023
-2028808
-2028658
-2028779
-2029323
-2029413
-2029346
-2029147
-2030738
-2030092
-2029965
-2029648
-2029392
-2029629
-2029998
-2030323
-2030043
-2029730
-2029495
-2029798
-2029836
-2029113
-2028615
-2028473
-2028432
-2028166
-2027485
-2026508
-2025879
-2025092
-2025019
-2024280
-2023466
-2022755
-2022556
-2022205
-2021419
-2020310
-2019928
-2019676
-2019195
-2018549
-2017979
-2017479
-2017379
-2017193
-2016748
-2016205
-2015946
-2015623
-2016024
-2015625
-2015594
-2015443
-2015435
-2015228
-2014835
-2014826
-2015020
-2015236
-2015646
-2015452
-2015124
-2015094
-2015744
-2015988
-2016109
-2015910
-2016262
-2016953
-2017377
-2017265
-2017288
-2017474
-2017954
-2018488
-2018598
-2018432
-2019239
-2019321
-2019793
-2019917
-2019820
-2020321
-2020871
-2021248
-2021249
-2021609
-2022253
-2022386
-2022251
-2022290
-2022628
-2023020
-2023230
-2023223
-2022901
-2023165
-2023466
-2023891
-2023465
-2023601
-2023575
-2024277
-2024207
-2023921
-2023756
-2023693
-2024265
-2023977
-2023793
-2023425
-2023515
-2023655
-2023485
-2023049
-2022855
-2022783
-2022935
-2022989
-2022657
-2022484
-2022147
-2022725
-2022871
-2022409
-2022629
-2022407
-2022606
-2022652
-2022618
-2022487
-2022472
-2023149
-2022971
-2023088
-2023158
-2023052
-2023676
-2023846
-2023810
-2023506
-2023835
-2024401
-2024604
-2024486
-2024420
-2024161
-2025024
-2025276
-2025230
-2026040
-2025337
-2025291
-2025380
-2025169
-2025080
-2025187
-2025582
-2025515
-2025242
-2025013
-2024871
-2025380
-2025313
-2024801
-2024511
-2024946
-2025128
-2025360
-2025289
-2024677
-2024896
-2025134
-2025305
-2024963
-2024764
-2024677
-2024989
-2025264
-2024996
-2024535
-2024610
-2025193
-2025168
-2024998
-2025873
-2025156
-2025358
-2025516
-2025086
-2024997
-2025011
-2025474
-2025720
-2025635
-2025663
-2025540
-2025857
-2026043
-2025972
-2025737
-2026243
-2026685
-2027123
-2026843
-2026646
-2026649
-2026826
-2027204
-2027155
-2026985
-2026847
-2027332
-2027439
-2027517
-2027398
-2027188
-2027777
-2027769
-2027775
-2027361
-2027652
-2027938
-2028464
-2028076
-2027736
-2027675
-2028351
-2028670
-2028499
-2028237
-2028296
-2028668
-2029002
-2028896
-2028651
-2028806
-2029393
-2029396
-2029363
-2029244
-2029547
-2029895
-2030083
-2029869
-2029930
-2029860
-2030417
-2030497
-2030313
-2030191
-2030320
-2030773
-2031062
-2031075
-2030647
-2030945
-2031583
-2031701
-2031395
-2030778
-2031184
-2031282
-2031777
-2031631
-2031164
-2030483
-2031343
-2031413
-2031439
-2031307
-2031198
-2031911
-2031924
-2031932
-2031719
-2031845
-2032021
-2031809
-2032012
-2031709
-2031683
-2032166
-2032566
-2032362
-2031983
-2032165
-2032513
-2032611
-2032677
-2032504
-2032056
-2032575
-2032839
-2032928
-2032833
-2032298
-2033066
-2033247
-2033021
-2032830
-2032990
-2033437
-2033867
-2033638
-2033205
-2033307
-2033789
-2034159
-2034062
-2033904
-2034001
-2034478
-2034699
-2034591
-2034421
-2034263
-2034627
-2035133
-2034816
-2034622
-2034502
-2034781
-2035191
-2034856
-2034608
-2034841
-2035322
-2035412
-2035341
-2035055
-2034942
-2035332
-2035491
-2035317
-2035219
-2035398
-2035171
-2035773
-2035728
-2035729
-2035637
-2036320
-2036302
-2036146
-2036141
-2036173
-2036723
-2036965
-2036683
-2036103
-2036501
-2037002
-2037307
-2037164
-2037035
-2037372
-2037698
-2038116
-2037879
-2037860
-2037738
-2038187
-2038449
-2038475
-2038338
-2038280
-2038773
-2038804
-2038799
-2038532
-2038369
-2039016
-2039345
-2039132
-2038717
-2038746
-2039103
-2039575
-2039406
-2039114
-2039011
-2039729
-2039954
-2039477
-2039531
-2039605
-2039685
-2039887
-2039834
-2039870
-2039657
-2040272
-2040525
-2040200
-2040088
-2040080
-2040697
-2040763
-2040744
-2040340
-2040599
-2041153
-2041448
-2040976
-2040538
-2041023
-2041398
-2041429
-2041555
-2041260
-2041265
-2042041
-2042264
-2042062
-2041858
-2042070
-2042399
-2042469
-2042452
-2041882
-2041599
-2041965
-2042751
-2042355
-2042202
-2042368
-2042301
-2042962
-2042693
-2042308
-2042190
-2042551
-2042640
-2042758
-2042445
-2042447
-2042992
-2042665
-2042709
-2042733
-2043080
-2043185
-2043198
-2042825
-2042790
-2043354
-2043705
-2043508
-2043081
-2043295
-2043653
-2043951
-2044168
-2043863
-2043971
-2043581
-2044460
-2044605
-2044629
-2044799
-2044868
-2045496
-2045140
-2044652
-2044694
-2045096
-2045304
-2045038
-2044910
-2044458
-2044453
-2044420
-2043894
-2043269
-2042723
-2042795
-2042079
-2041171
-2040108
-2039532
-2038696
-2038147
-2037338
-2036194
-2035250
-2034737
-2033904
-2032988
-2031998
-2031474
-2030920
-2030408
-2029526
-2028533
-2028085
-2028022
-2027502
-2026788
-2026263
-2025557
-2025963
-2025718
-2025486
-2024670
-2024721
-2025003
-2024826
-2024593
-2024286
-2024199
-2024509
-2024907
-2024694
-2024404
-2024615
-2024949
-2025430
-2025193
-2025229
-2025206
-2025738
-2026133
-2025980
-2026087
-2025660
-2026858
-2027342
-2027229
-2027018
-2027273
-2028108
-2029382
-2028278
-2028104
-2028101
-2028631
-2028822
-2028816
-2028618
-2028763
-2028995
-2029236
-2029409
-2029076
-2029301
-2029318
-2029468
-2029478
-2029277
-2029349
-2029655
-2029740
-2029582
-2029239
-2029233
-2029291
-2029626
-2029083
-2028776
-2028712
-2028983
-2028830
-2028476
-2028221
-2028198
-2028032
-2027984
-2027360
-2026415
-2026810
-2027080
-2026816
-2026367
-2026009
-2025867
-2025886
-2025678
-2025673
-2024998
-2025152
-2025124
-2025229
-2024783
-2024603
-2024724
-2024989
-2026856
-2025483
-2024949
-2024929
-2025209
-2025452
-2025457
-2025496
-2025560
-2025969
-2026182
-2025918
-2026100
-2026009
-2026453
-2027051
-2026931
-2026672
-2026920
-2027305
-2027409
-2027332
-2027411
-2027234
-2027749
-2027826
-2027947
-2027350
-2027624
-2027866
-2028083
-2027908
-2027500
-2027312
-2027891
-2027851
-2027656
-2027116
-2027255
-2027419
-2027728
-2027390
-2026980
-2026857
-2027310
-2027352
-2027356
-2028065
-2027466
-2027624
-2027367
-2027226
-2026926
-2027028
-2027566
-2027721
-2027429
-2027301
-2027219
-2027761
-2027636
-2027630
-2027434
-2027814
-2027908
-2028137
-2027934
-2027770
-2028039
-2028503
-2028671
-2028598
-2028557
-2028585
-2028790
-2029109
-2029149
-2028823
-2028726
-2029319
-2029457
-2029455
-2029336
-2029387
-2029779
-2030266
-2030831
-2030028
-2030159
-2030381
-2030668
-2030678
-2030333
-2030561
-2030472
-2031014
-2030977
-2030840
-2032517
-2031582
-2031467
-2031285
-2031300
-2031223
-2031719
-2031660
-2031428
-2031228
-2031442
-2031914
-2032039
-2033250
-2031977
-2031860
-2032069
-2032373
-2032121
-2032067
-2032003
-2032562
-2032747
-2032532
-2032308
-2032677
-2033095
-2033039
-2032992
-2032610
-2032878
-2033370
-2033693
-2033470
-2033172
-2033104
-2033554
-2033656
-2033311
-2032846
-2032789
-2033348
-2033609
-2033245
-2032926
-2033162
-2033417
-2033514
-2033446
-2032903
-2032775
-2033257
-2033287
-2033058
-2032964
-2032812
-2033347
-2033316
-2033265
-2033045
-2033117
-2033747
-2033868
-2033643
-2033462
-2033567
-2033994
-2034175
-2033880
-2033801
-2033820
-2034076
-2034358
-2034185
-2033665
-2033988
-2034223
-2034516
-2034286
-2034066
-2034040
-2034158
-2034199
-2034226
-2033745
-2034009
-2034033
-2034254
-2034270
-2033923
-2033895
-2034336
-2034445
-2034097
-2033802
-2033959
-2034263
-2034333
-2034330
-2034184
-2034332
-2034517
-2034764
-2034560
-2034182
-2034349
-2034779
-2034741
-2034699
-2034339
-2034629
-2034859
-2035258
-2035212
-2034715
-2034871
-2035347
-2035650
-2035590
-2035254
-2035224
-2035905
-2036088
-2036143
-2035667
-2035857
-2036280
-2036618
-2036503
-2036296
-2036082
-2036631
-2036838
-2036376
-2036598
-2036301
-2036764
-2036808
-2036683
-2036628
-2037141
-2037222
-2036837
-2036580
-2036621
-2037098
-2037067
-2036913
-2036752
-2036684
-2037163
-2037452
-2037151
-2036916
-2036951
-2037187
-2037406
-2037423
-2037008
-2036928
-2037471
-2037550
-2037472
-2037171
-2037237
-2037678
-2038011
-2037952
-2037764
-2037928
-2038304
-2038377
-2038510
-2038017
-2038293
-2038837
-2038824
-2039020
-2038671
-2038812
-2039192
-2039705
-2039532
-2039243
-2039176
-2039811
-2039607
-2039680
-2039555
-2039333
-2039725
-2040062
-2039743
-2039439
-2039559
-2040035
-2039942
-2039979
-2039339
-2039444
-2039852
-2040160
-2039811
-2039980
-2040020
-2039915
-2039649
-2039958
-2040263
-2039985
-2039933
-2040079
-2040525
-2040609
-2040444
-2040367
-2040449
-2040698
-2041110
-2040890
-2040606
-2040972
-2041263
-2041489
-2041150
-2041174
-2041354
-2041760
-2042130
-2041690
-2041613
-2041280
-2041998
-2041833
-2041472
-2041491
-2042331
-2042396
-2042066
-2041824
-2042068
-2042480
-2042235
-2042041
-2041764
-2041691
-2041812
-2041789
-2041328
-2040471
-2040294
-2040432
-2040016
-2039330
-2038296
-2037624
-2037172
-2036488
-2035344
-2034453
-2033461
-2032952
-2032126
-2031311
-2029893
-2029320
-2028864
-2028160
-2027409
-2026271
-2025633
-2025477
-2024899
-2023803
-2022899
-2022453
-2022371
-2022186
-2021623
-2020679
-2020596
-2020590
-2020515
-2020060
-2019503
-2019501
-2019619
-2019834
-2019602
-2019039
-2018869
-2019389
-2019565
-2019468
-2019241
-2019076
-2019615
-2020021
-2019819
-2019590
-2019831
-2020283
-2020714
-2020435
-2020546
-2020824
-2021253
-2021762
-2021661
-2021749
-2021755
-2022271
-2022549
-2022622
-2022539
-2022872
-2023366
-2023546
-2023534
-2023320
-2023499
-2024229
-2024183
-2024224
-2024125
-2024129
-2024696
-2024835
-2024524
-2024014
-2024319
-2024576
-2024821
-2024561
-2023961
-2024158
-2024354
-2024456
-2024422
-2023841
-2023685
-2023592
-2023791
-2023390
-2022679
-2022613
-2023983
-2024484
-2022977
-2021832
-2021500
-2021710
-2021576
-2021149
-2020619
-2020445
-2022137
-2021092
-2020261
-2020910
-2019859
-2019769
-2019913
-2019636
-2019316
-2019522
-2019865
-2020103
-2019971
-2019600
-2019877
-2020310
-2020607
-2020622
-2020266
-2020526
-2021019
-2021345
-2021229
-2020765
-2020991
-2021496
-2021846
-2021554
-2021153
-2021260
-2021781
-2021750
-2021675
-2021424
-2021437
-2021947
-2021968
-2021790
-2021421
-2021250
-2021847
-2022076
-2021769
-2021341
-2021533
-2021738
-2021877
-2021260
-2021277
-2021385
-2021310
-2021603
-2021486
-2020892
-2020728
-2021299
-2021115
-2021131
-2020496
-2020677
-2021144
-2020572
-2020845
-2020766
-2020400
-2020957
-2020823
-2020790
-2020513
-2020515
-2020614
-2020838
-2020832
-2020355
-2020222
-2020629
-2020908
-2020617
-2020481
-2020391
-2020712
-2021073
-2021014
-2020539
-2020500
-2020981
-2021058
-2020843
-2020599
-2020851
-2021319
-2022428
-2021118
-2021031
-2020643
-2020929
-2021518
-2021385
-2020971
-2021037
-2021351
-2021706
-2021547
-2021280
-2021161
-2021634
-2021848
-2021929
-2021533
-2021739
-2022245
-2022332
-2022493
-2022014
-2022278
-2022619
-2022632
-2022481
-2022253
-2023356
-2023272
-2023329
-2023011
-2022915
-2022749
-2023199
-2023479
-2023392
-2023110
-2023250
-2023516
-2023515
-2023456
-2023185
-2023249
-2023519
-2023643
-2023439
-2023252
-2023231
-2023734
-2023829
-2023654
-2023200
-2023310
-2023603
-2023940
-2023945
-2023399
-2023436
-2023845
-2024163
-2023886
-2023573
-2023455
-2024042
-2024476
-2024005
-2023841
-2023929
-2024282
-2024596
-2024458
-2024152
-2024077
-2024577
-2024843
-2024750
-2024554
-2024486
-2024867
-2025231
-2024984
-2024554
-2024810
-2025203
-2025528
-2025310
-2025064
-2025032
-2025548
-2025636
-2025407
-2025247
-2025396
-2025741
-2025911
-2025801
-2025308
-2025328
-2025885
-2025963
-2025702
-2025622
-2025784
-2025955
-2026224
-2026199
-2025830
-2025737
-2026200
-2026658
-2026295
-2025958
-2026038
-2026315
-2026859
-2026718
-2028017
-2027052
-2027215
-2026954
-2026920
-2026678
-2026705
-2027141
-2027231
-2027116
-2026835
-2027034
-2027555
-2027933
-2027790
-2027292
-2027326
-2027936
-2027841
-2027953
-2027788
-2027562
-2028020
-2028149
-2028001
-2027865
-2027832
-2028233
-2028535
-2028492
-2028270
-2028232
-2028573
-2028688
-2028743
-2028451
-2028597
-2028666
-2029095
-2028894
-2028431
-2028682
-2028992
-2029079
-2028964
-2028633
-2028871
-2029050
-2029172
-2029322
-2028839
-2028722
-2029178
-2029523
-2029477
-2029172
-2029092
-2029505
-2029823
-2029505
-2029287
-2029375
-2029612
-2030001
-2029994
-2029660
-2029579
-2030190
-2030331
-2030203
-2029834
-2030050
-2030170
-2030663
-2030582
-2030175
-2030086
-2030571
-2030848
-2030859
-2030341
-2030609
-2030933
-2031001
-2030736
-2030371
-2030638
-2030870
-2031163
-2031177
-2030785
-2030589
-2031156
-2031310
-2031588
-2031175
-2031279
-2031726
-2032105
-2032126
-2031812
-2031968
-2032168
-2032624
-2032455
-2032254
-2032464
-2032921
-2033243
-2033173
-2033230
-2033393
-2033876
-2034020
-2033978
-2033807
-2033912
-2034340
-2034707
-2034713
-2034556
-2034348
-2034749
-2035272
-2035294
-2035044
-2035024
-2035550
-2035528
-2035407
-2034967
-2035261
-2035749
-2035700
-2035756
-2035412
-2035252
-2035624
-2035784
-2035841
-2035305
-2035332
-2035481
-2035442
-2035389
-2034956
-2034837
-2034796
-2034202
-2033588
-2033167
-2032918
-2032578
-2031691
-2031042
-2030161
-2029971
-2029543
-2028628
-2027599
-2026709
-2026312
-2025518
-2024977
-2023960
-2023482
-2023281
-2022972
-2022351
-2021207
-2021040
-2020887
-2020716
-2019896
-2019496
-2019142
-2019054
-2019169
-2018550
-2018022
-2017900
-2018065
-2018172
-2017938
-2017498
-2017378
-2017715
-2017832
-2017727
-2017384
-2017346
-2017528
-2018044
-2017725
-2017643
-2017915
-2018093
-2018497
-2018637
-2018422
-2018630
-2019110
-2019485
-2019645
-2019570
-2019976
-2020178
-2020765
-2020952
-2020977
-2021014
-2021741
-2022124
-2022274
-2022034
-2022001
-2022633
-2023037
-2022787
-2022728
-2022796
-2022974
-2023110
-2023049
-2022859
-2022967
-2023216
-2023452
-2023011
-2021998
-2022398
-2022646
-2023208
-2022956
-2022446
-2022483
-2022709
-2022636
-2022205
-2021977
-2021927
-2021848
-2022271
-2021898
-2021655
-2021941
-2022298
-2022424
-2022173
-2021999
-2021688
-2021907
-2022174
-2022022
-2021830
-2022009
-2022317
-2022518
-2022419
-2022645
-2022647
-2023016
-2023345
-2023477
-2023281
-2023387
-2023787
-2024002
-2024290
-2024124
-2024334
-2024663
-2025068
-2025064
-2025047
-2025073
-2025611
-2025834
-2025839
-2025378
-2025610
-2025948
-2026121
-2025958
-2025576
-2025709
-2025653
-2025767
-2025868
-2025462
-2025324
-2025485
-2025400
-2025419
-2024960
-2025071
-2025212
-2025152
-2024999
-2024462
-2024610
-2024722
-2025083
-2024740
-2024278
-2024029
-2024437
-2024574
-2024489
-2024148
-2024004
-2024193
-2024671
-2024491
-2024145
-2024290
-2024398
-2024768
-2024679
-2024221
-2025736
-2025077
-2024825
-2024667
-2024486
-2024668
-2025039
-2025481
-2025475
-2025014
-2024931
-2025412
-2025587
-2025589
-2025577
-2025453
-2025872
-2026428
-2026270
-2026025
-2026099
-2026289
-2026646
-2026488
-2026337
-2026451
-2027119
-2027322
-2027309
-2027031
-2027072
-2027419
-2027599
-2027584
-2027237
-2028705
-2028478
-2028250
-2028267
-2027949
-2028181
-2028364
-2028553
-2028414
-2028479
-2027873
-2028806
-2029205
-2029243
-2028796
-2028795
-2029401
-2029749
-2029176
-2029150
-2029371
-2029829
-2029903
-2029833
-2029513
-2029770
-2029858
-2030376
-2030120
-2030062
-2029946
-2030384
-2030407
-2030520
-2030258
-2030193
-2030246
-2030638
-2030388
-2030189
-2030241
-2030527
-2030449
-2030258
-2029842
-2029923
-2030185
-2030370
-2030149
-2029920
-2030065
-2030421
-2030482
-2030476
-2030401
-2030332
-2030600
-2030829
-2030756
-2030439
-2029773
-2030492
-2030981
-2030937
-2030860
-2030550
-2031021
-2031385
-2031359
-2030882
-2031114
-2031655
-2031732
-2031683
-2031488
-2031499
-2031962
-2032166
-2032156
-2031663
-2031861
-2032282
-2032428
-2032452
-2032050
-2032042
-2032512
-2032514
-2032541
-2032067
-2032155
-2032421
-2032871
-2032592
-2032396
-2032268
-2032785
-2033151
-2032606
-2032261
-2032388
-2032724
-2033061
-2033060
-2032338
-2032726
-2033430
-2033672
-2033561
-2033175
-2033086
-2033799
-2033782
-2033829
-2033607
-2033496
-2033972
-2034342
-2034356
-2033409
-2033887
-2034563
-2034670
-2034834
-2034699
-2034663
-2034938
-2035142
-2035115
-2034766
-2035059
-2035430
-2035510
-2035338
-2035117
-2035084
-2035588
-2035703
-2035595
-2035239
-2035311
-2035848
-2035903
-2035796
-2035694
-2035655
-2035792
-2036150
-2036041
-2035765
-2035781
-2035967
-2036212
-2036207
-2035736
-2035884
-2036320
-2036317
-2036179
-2036034
-2036259
-2036489
-2036563
-2036638
-2036187
-2036182
-2036634
-2036979
-2036925
-2036377
-2036669
-2037166
-2037364
-2037306
-2037155
-2036901
-2037518
-2037640
-2037567
-2037401
-2037546
-2038141
-2038492
-2038156
-2037923
-2037962
-2038433
-2038879
-2038506
-2038316
-2038506
-2038788
-2038852
-2038629
-2038390
-2038538
-2039027
-2038948
-2038904
-2038621
-2037904
-2038879
-2038989
-2038841
-2038533
-2038587
-2038798
-2039086
-2038952
-2038372
-2038411
-2038439
-2038546
-2038100
-2037662
-2037528
-2037425
-2037282
-2036803
-2035994
-2035439
-2035187
-2034610
-2034112
-2032926
-2032117
-2031833
-2031505
-2030643
-2029504
-2028970
-2028404
-2028314
-2027683
-2026681
-2026295
-2025937
-2025757
-2025115
-2024452
-2024065
-2023852
-2023978
-2023333
-2022778
-2022460
-2022547
-2022614
-2022471
-2021986
-2021559
-2022019
-2022166
-2021868
-2021475
-2021519
-2021706
-2022130
-2022060
-2021667
-2021784
-2022198
-2022496
-2022270
-2022112
-2022414
-2022636
-2023016
-2022948
-2023060
-2023288
-2023637
-2023971
-2024017
-2023835
-2025529
-2024999
-2025237
-2025211
-2025036
-2025152
-2025893
-2026258
-2026190
-2025859
-2026217
-2026678
-2027014
-2026834
-2026747
-2026708
-2026926
-2027480
-2027317
-2027171
-2027039
-2027378
-2028749
-2027633
-2026997
-2026762
-2027017
-2026978
-2026826
-2026439
-2026151
-2026424
-2026423
-2025968
-2025793
-2025237
-2025464
-2025733
-2025265
-2024792
-2024871
-2024675
-2024678
-2024713
-2024237
-2024676
-2025360
-2025706
-2025358
-2024963
-2025200
-2025377
-2025858
-2026125
-2025904
-2026022
-2026467
-2026376
-2026521
-2026130
-2026165
-2026627
-2026697
-2026613
-2026385
-2026393
-2026566
-2026973
-2026572
-2026571
-2026402
-2026709
-2027118
-2027173
-2026555
-2026568
-2027052
-2027517
-2027107
-2026860
-2026936
-2027291
-2027536
-2027339
-2027047
-2027038
-2027247
-2027321
-2027269
-2026949
-2026797
-2027105
-2027129
-2027053
-2026790
-2026619
-2026861
-2026731
-2026790
-2026429
-2026301
-2026548
-2026770
-2026260
-2025716
-2025808
-2026033
-2025967
-2025767
-2025391
-2025520
-2026159
-2026417
-2026383
-2026021
-2026308
-2026718
-2026927
-2027016
-2026826
-2026791
-2027253
-2027451
-2027480
-2027288
-2027407
-2027758
-2028079
-2027984
-2027556
-2027736
-2027949
-2028251
-2028124
-2027835
-2027773
-2028211
-2028706
-2028651
-2028497
-2028574
-2029000
-2029416
-2029180
-2029014
-2029432
-2030842
-2030467
-2030184
-2029819
-2030063
-2030631
-2030839
-2031001
-2030773
-2030796
-2031314
-2031269
-2031388
-2031188
-2031082
-2031649
-2031672
-2031847
-2031482
-2031406
-2031738
-2032246
-2031738
-2031684
-2031758
-2032278
-2032577
-2032248
-2032264
-2032046
-2032321
-2032655
-2032534
-2032271
-2032639
-2032922
-2033134
-2033187
-2033087
-2033232
-2033494
-2033863
-2033808
-2033647
-2033543
-2033471
-2033771
-2033742
-2033508
-2033577
-2034032
-2034117
-2034144
-2033861
-2033944
-2034262
-2034764
-2034544
-2034184
-2034266
-2034613
-2034947
-2035171
-2035048
-2035101
-2035635
-2035927
-2035795
-2035342
-2035669
-2035824
-2036327
-2036267
-2035825
-2035938
-2036161
-2036405
-2036332
-2036192
-2036080
-2036275
-2036837
-2036490
-2036414
-2036403
-2036648
-2037075
-2037055
-2036966
-2036760
-2037098
-2037402
-2037431
-2037149
-2037032
-2037402
-2037682
-2037708
-2037309
-2037515
-2037795
-2037983
-2037884
-2037565
-2037618
-2038059
-2038248
-2038459
-2038048
-2037925
-2038494
-2038870
-2038542
-2038424
-2038309
-2038583
-2039012
-2038767
-2038478
-2038431
-2038718
-2039096
-2038961
-2038747
-2038788
-2039157
-2039293
-2038912
-2038842
-2038840
-2039205
-2039587
-2039358
-2039427
-2039531
-2039904
-2040263
-2040064
-2039570
-2039925
-2040445
-2040577
-2040608
-2040421
-2040704
-2041059
-2040680
-2040919
-2041029
-2041108
-2041440
-2041445
-2041794
-2041423
-2041215
-2041744
-2042055
-2042113
-2041880
-2041660
-2042173
-2042471
-2042432
-2042382
-2042034
-2042539
-2042859
-2042487
-2042372
-2042400
-2042485
-2042623
-2042510
-2042178
-2042120
-2042051
-2042235
-2043449
-2041996
-2041295
-2041218
-2041014
-2040436
-2039558
-2038650
-2037940
-2037657
-2037135
-2036230
-2035534
-2034796
-2034399
-2033408
-2032289
-2031706
-2031503
-2030668
-2030235
-2029282
-2027950
-2028067
-2027969
-2026992
-2026581
-2025284
-2025411
-2025378
-2024955
-2023914
-2023521
-2023465
-2023757
-2023726
-2022948
-2024536
-2023988
-2023437
-2022679
-2022152
-2022982
-2023265
-2023589
-2023715
-2023514
-2023571
-2025028
-2024217
-2024524
-2024240
-2024387
-2024629
-2024688
-2026241
-2025390
-2025538
-2025877
-2027679
-2026841
-2026414
-2026527
-2026983
-2027274
-2027208
-2027292
-2028409
-2028190
-2028023
-2028518
-2027505
-2027839
-2028097
-2028279
-2029942
-2028134
-2028035
-2028401
-2030448
-2029166
-2028402
-2028117
-2028261
-2028629
-2028443
-2027802
-2027926
-2028271
-2028108
-2028024
-2027679
-2027502
-2027564
-2027477
-2027166
-2026966
-2026830
-2026957
-2027085
-2027031
-2026255
-2026175
-2026652
-2026865
-2026390
-2025981
-2026059
-2026247
-2026662
-2026081
-2026125
-2026127
-2026262
-2026856
-2026996
-2026742
-2027281
-2027678
-2027817
-2027764
-2027633
-2027883
-2028598
-2028759
-2028853
-2028857
-2029749
-2029935
-2029955
-2029589
-2029210
-2030135
-2030447
-2030440
-2030588
-2030553
-2030877
-2031313
-2031236
-2030827
-2031064
-2031292
-2031819
-2031756
-2031450
-2031400
-2031669
-2031807
-2031921
-2031022
-2031487
-2031947
-2032359
-2032067
-2032798
-2031793
-2032936
-2032619
-2032385
-2031877
-2031165
-2031603
-2032100
-2032085
-2031726
-2031873
-2032145
-2032530
-2032340
-2031756
-2031729
-2032101
-2032540
-2033403
-2032299
-2031663
-2032026
-2032286
-2032345
-2031964
-2032089
-2032282
-2032461
-2032437
-2031825
-2031738
-2032166
-2032480
-2032339
-2031996
-2031663
-2032105
-2032331
-2033663
-2032310
-2031946
-2032435
-2032574
-2032713
-2032277
-2032320
-2032630
-2033190
-2033120
-2033638
-2033173
-2033418
-2033562
-2033442
-2033228
-2033460
-2033878
-2034307
-2034455
-2033686
-2034016
-2034473
-2034696
-2034996
-2034792
-2034997
-2035592
-2035549
-2035784
-2035502
-2035669
-2035994
-2036278
-2036145
-2036079
-2036212
-2036553
-2036900
-2036769
-2036320
-2036353
-2036838
-2037094
-2036844
-2036831
-2036923
-2037063
-2037478
-2037402
-2036943
-2037105
-2037426
-2037550
-2037678
-2037488
-2037414
-2037804
-2038179
-2037889
-2037767
-2037877
-2038154
-2038540
-2038570
-2038440
-2038555
-2038773
-2039130
-2039063
-2038820
-2039081
-2039199
-2039707
-2039671
-2039301
-2039455
-2039551
-2040031
-2039933
-2039799
-2039824
-2040172
-2040353
-2040360
-2040296
-2039860
-2040395
-2040724
-2040408
-2040541
-2040561
-2040702
-2040774
-2040712
-2040510
-2040447
-2040684
-2041226
-2040967
-2040911
-2040624
-2040931
-2041497
-2041273
-2040894
-2041025
-2041559
-2041707
-2041774
-2041459
-2041485
-2041877
-2042032
-2042250
-2041804
-2042001
-2042210
-2042393
-2042495
-2042206
-2042241
-2042853
-2043252
-2043112
-2042565
-2042438
-2043194
-2043667
-2043449
-2043203
-2043548
-2043751
-2043891
-2043808
-2043609
-2043527
-2044234
-2044557
-2044361
-2044245
-2044009
-2044545
-2044759
-2044642
-2044441
-2044485
-2044780
-2045137
-2044865
-2044458
-2044644
-2044861
-2045160
-2045276
-2044746
-2044631
-2045159
-2045834
-2045294
-2045210
-2045279
-2045363
-2045618
-2045558
-2045421
-2045429
-2045831
-2046186
-2045958
-2045533
-2045421
-2046248
-2046286
-2046595
-2046368
-2046497
-2046547
-2047130
-2046879
-2046700
-2046661
-2047037
-2047122
-2047490
-2047098
-2047108
-2047667
-2047647
-2047036
-2046399
-2046401
-2046351
-2046590
-2045778
-2045247
-2044807
-2044487
-2044079
-2043535
-2042936
-2042161
-2041795
-2041551
-2040728
-2039933
-2039183
-2038739
-2038560
-2037903
-2036981
-2036338
-2036123
-2035972
-2035281
-2034560
-2032563
-2032096
-2032258
-2032111
-2031753
-2031278
-2031147
-2031076
-2031517
-2031619
-2031021
-2030943
-2031236
-2031424
-2031456
-2031226
-2031412
-2031991
-2032147
-2032373
-2032227
-2032235
-2032724
-2033072
-2033309
-2033339
-2033548
-2033952
-2034367
-2034433
-2034450
-2034689
-2035224
-2035757
-2035974
-2035914
-2035737
-2036228
-2036652
-2036961
-2036487
-2036381
-2037019
-2037334
-2037188
-2037016
-2036916
-2037045
-2037631
-2037596
-2036959
-2036769
-2037231
-2037324
-2037343
-2036977
-2036523
-2036718
-2036807
-2036868
-2036462
-2036103
-2036157
-2036304
-2035954
-2035588
-2035262
-2035490
-2035676
-2035408
-2035025
-2034727
-2034695
-2035309
-2034761
-2034509
-2034471
-2034752
-2034817
-2034526
-2034453
-2034509
-2034691
-2034813
-2034858
-2034533
-2034569
-2035104
-2035607
-2035404
-2035517
-2035463
-2035661
-2036150
-2036088
-2036190
-2036361
-2036564
-2036899
-2036980
-2036598
-2036623
-2037286
-2037738
-2037765
-2037431
-2037147
-2037368
-2038023
-2038043
-2037546
-2037683
-2037797
-2038202
-2038120
-2037851
-2037698
-2038000
-2038427
-2038546
-2038017
-2038060
-2038135
-2038478
-2038845
-2038544
-2038578
-2038817
-2039133
-2038881
-2038605
-2038623
-2038829
-2039491
-2039417
-2039080
-2038879
-2039317
-2039601
-2039507
-2039361
-2039311
-2039566
-2040018
-2039970
-2039658
-2039546
-2039620
-2039970
-2039954
-2039928
-2039526
-2040055
-2040248
-2039964
-2039608
-2039358
-2040014
-2040138
-2040183
-2039912
-2039545
-2040154
-2040207
-2040385
-2040029
-2039707
-2040207
-2040440
-2040653
-2040423
-2040255
-2040859
-2041154
-2041129
-2040800
-2040615
-2041266
-2041626
-2041821
-2041443
-2041600
-2042046
-2042356
-2042333
-2042159
-2041992
-2042577
-2042867
-2043014
-2043071
-2043048
-2043426
-2043770
-2043697
-2043358
-2043183
-2043819
-2044025
-2044073
-2043929
-2043833
-2043976
-2044474
-2044422
-2044339
-2043833
-2044469
-2044640
-2044664
-2044413
-2044435
-2044642
-2045037
-2044917
-2044473
-2044310
-2044823
-2045072
-2045023
-2044537
-2044464
-2045126
-2044828
-2044928
-2044743
-2044778
-2044567
-2045080
-2044941
-2044974
-2044650
-2044679
-2045184
-2045033
-2044737
-2044794
-2044753
-2045237
-2045092
-2044850
-2044826
-2044823
-2044858
-2045139
-2044885
-2044611
-2045083
-2045328
-2045422
-2045034
-2045052
-2045385
-2045688
-2045725
-2045274
-2045388
-2045351
-2045902
-2045701
-2045567
-2045462
-2046025
-2046393
-2046400
-2045940
-2046130
-2046732
-2046562
-2046843
-2046466
-2046384
-2047036
-2047015
-2047235
-2046585
-2046896
-2047143
-2047262
-2047410
-2046893
-2046941
-2047394
-2047886
-2047906
-2046983
-2047234
-2047646
-2047855
-2048040
-2047636
-2047536
-2047593
-2047920
-2048174
-2047478
-2047429
-2047931
-2048239
-2048280
-2048248
-2047827
-2048285
-2048865
-2048747
-2048333
-2048144
-2048765
-2049022
-2048717
-2048670
-2048912
-2049279
-2049647
-2050094
-2049811
-2049536
-2049885
-2050556
-2050568
-2050420
-2050690
-2051056
-2051307
-2050730
-2050918
-2050855
-2051190
-2051308
-2051545
-2051446
-2051356
-2051692
-2051711
-2051470
-2051274
-2051707
-2052041
-2052602
-2052457
-2052048
-2051746
-2052156
-2052296
-2052603
-2052177
-2052100
-2052239
-2052689
-2052985
-2052256
-2052234
-2052625
-2053140
-2052901
-2052797
-2052752
-2053252
-2053098
-2053189
-2052934
-2053127
-2053545
-2053688
-2054099
-2053554
-2053356
-2053996
-2054457
-2054340
-2054242
-2054297
-2053933
-2054703
-2054473
-2054651
-2054013
-2054540
-2054672
-2054088
-2054433
-2054006
-2054376
-2054909
-2054387
-2054117
-2054183
-2054226
-2054254
-2054284
-2053861
-2054054
-2054441
-2054417
-2054675
-2054130
-2053896
-2054421
-2054650
-2055015
-2054776
-2054636
-2054936
-2055394
-2055527
-2055151
-2055210
-2055621
-2056009
-2056101
-2055575
-2055498
-2056049
-2056773
-2056878
-2056539
-2056193
-2056532
-2056626
-2056607
-2056293
-2056447
-2057016
-2057015
-2056769
-2056287
-2056671
-2056910
-2057078
-2056990
-2056933
-2056000
-2056366
-2056966
-2056351
-2055666
-2055541
-2055341
-2055005
-2054723
-2053890
-2053050
-2053033
-2052252
-2051466
-2050676
-2049825
-2049615
-2049066
-2048383
-2047707
-2046972
-2046811
-2046199
-2045933
-2044877
-2043900
-2044000
-2043908
-2043283
-2042402
-2042127
-2042279
-2042121
-2041659
-2041200
-2041038
-2041051
-2041218
-2041022
-2040677
-2040433
-2040655
-2041095
-2041115
-2040671
-2040885
-2041223
-2041866
-2041762
-2041536
-2041789
-2042022
-2042869
-2042921
-2042712
-2043088
-2043323
-2043827
-2044000
-2043848
-2044236
-2044522
-2045051
-2045206
-2045055
-2045097
-2045905
-2046223
-2046057
-2046183
-2046232
-2046528
-2047418
-2047341
-2046777
-2047001
-2047633
-2047963
-2047683
-2047351
-2047322
-2047372
-2047634
-2047738
-2047241
-2046655
-2046920
-2047401
-2047356
-2046937
-2046771
-2046882
-2046829
-2046775
-2046072
-2046143
-2046152
-2046125
-2045973
-2045478
-2045452
-2045465
-2045224
-2045407
-2044942
-2044439
-2044864
-2044949
-2044969
-2044438
-2044346
-2044285
-2044855
-2044835
-2044448
-2044578
-2045018
-2045102
-2045200
-2045208
-2045324
-2045403
-2045827
-2046127
-2045744
-2045856
-2046461
-2046761
-2047143
-2046613
-2046607
-2047172
-2047803
-2047621
-2047167
-2047228
-2047761
-2047853
-2048199
-2047654
-2047490
-2047630
-2048515
-2048478
-2047603
-2047791
-2048041
-2048593
-2048736
-2048312
-2048058
-2048054
-2048849
-2048621
-2048340
-2048163
-2048669
-2048758
-2048737
-2048257
-2048477
-2048349
-2048883
-2048707
-2048549
-2048451
-2048757
-2049021
-2048990
-2048740
-2048431
-2048576
-2049303
-2048971
-2048729
-2048730
-2049397
-2049204
-2049150
-2048968
-2049105
-2049141
-2049562
-2049389
-2049394
-2049264
-2049647
-2049730
-2049902
-2049564
-2049605
-2049869
-2050099
-2050394
-2049832
-2049966
-2050203
-2050794
-2050915
-2051018
-2050606
-2051214
-2051573
-2051417
-2051288
-2051408
-2051726
-2051999
-2052163
-2052012
-2051855
-2052132
-2052616
-2052558
-2052664
-2052342
-2052989
-2053406
-2053355
-2053233
-2053187
-2053555
-2053843
-2053912
-2053677
-2053676
-2053889
-2054456
-2054423
-2054014
-2053997
-2054423
-2054802
-2054842
-2054465
-2054231
-2054574
-2054819
-2054741
-2054830
-2054385
-2054737
-2054770
-2055028
-2054792
-2054786
-2055205
-2055567
-2055463
-2055274
-2054941
-2055445
-2055843
-2056148
-2055728
-2055561
-2056052
-2055888
-2056232
-2056043
-2055909
-2055945
-2056478
-2056621
-2056246
-2056750
-2056684
-2057033
-2057294
-2057210
-2056770
-2057710
-2057513
-2057678
-2057518
-2057450
-2057508
-2057865
-2058434
-2058037
-2058250
-2058338
-2058541
-2058517
-2058707
-2058641
-2058991
-2059352
-2059251
-2058901
-2059194
-2059248
-2059837
-2059680
-2059445
-2059671
-2059882
-2060274
-2060126
-2059782
-2059763
-2059935
-2060431
-2060725
-2060345
-2060268
-2060536
-2061061
-2061174
-2061105
-2060725
-2061224
-2061523
-2061593
-2061411
-2061449
-2061394
-2061921
-2062287
-2061972
-2061783
-2061952
-2062371
-2062444
-2062059
-2061750
-2062125
-2062559
-2062567
-2061845
-2062350
-2062493
-2062801
-2062904
-2062521
-2062524
-2062542
-2062813
-2062895
-2062722
-2062434
-2062820
-2063511
-2063050
-2063088
-2062891
-2063159
-2063366
-2063301
-2063192
-2063641
-2063897
-2064178
-2063972
-2063868
-2063866
-2064529
-2064836
-2064179
-2064197
-2064825
-2064997
-2065284
-2065176
-2065054
-2065222
-2065594
-2065733
-2065972
-2065989
-2066020
-2066138
-2065905
-2065933
-2065643
-2066347
-2066544
-2066621
-2066268
-2066634
-2066347
-2067369
-2067118
-2066655
-2066906
-2067139
-2067423
-2067578
-2067179
-2067585
-2067312
-2067968
-2067464
-2067425
-2067362
-2067678
-2067989
-2067834
-2068105
-2067091
-2067309
-2067620
-2068162
-2068075
-2067704
-2067557
-2068436
-2068536
-2068258
-2068267
-2068306
-2068582
-2068421
-2068471
-2068294
-2068009
-2068956
-2068865
-2068599
-2068784
-2069109
-2069868
-2069230
-2068976
-2068998
-2069203
-2069934
-2069531
-2070142
-2069075
-2069726
-2070305
-2070235
-2069700
-2069389
-2069667
-2070778
-2069853
-2069692
-2069369
-2069007
-2069319
-2069379
-2068150
-2067744
-2067251
-2066697
-2065864
-2065634
-2064159
-2064096
-2063660
-2063053
-2062034
-2061332
-2060854
-2060314
-2060158
-2059057
-2058393
-2058438
-2057796
-2057624
-2056954
-2056796
-2055841
-2056396
-2056483
-2055685
-2055555
-2055235
-2055521
-2055418
-2055008
-2054243
-2055013
-2055282
-2055867
-2055257
-2055225
-2055152
-2055840
-2055990
-2055762
-2055118
-2055717
-2056442
-2056804
-2056607
-2056516
-2056854
-2057338
-2057306
-2057320
-2057672
-2057589
-2058226
-2058598
-2058138
-2058422
-2059105
-2059468
-2059908
-2059863
-2059623
-2059928
-2060924
-2060817
-2060902
-2060823
-2061077
-2061332
-2061481
-2061297
-2060983
-2061195
-2061271
-2061760
-2061443
-2061146
-2061318
-2061787
-2061493
-2061189
-2060676
-2061385
-2061585
-2061224
-2061105
-2060508
-2060916
-2061244
-2060839
-2060632
-2060305
-2060507
-2060780
-2060488
-2059999
-2059804
-2059855
-2059861
-2059872
-2059588
-2059141
-2059515
-2059672
-2059787
-2059371
-2059131
-2059241
-2059712
-2059927
-2059762
-2059602
-2059943
-2060636
-2060830
-2060504
-2060617
-2060774
-2061566
-2061564
-2061255
-2061271
-2061608
-2062264
-2062358
-2061955
-2061837
-2061956
-2062236
-2063010
-2062533
-2062238
-2062572
-2062970
-2063653
-2063147
-2063089
-2063399
-2063636
-2063858
-2063386
-2063034
-2063236
-2063987
-2063819
-2063662
-2063750
-2063677
-2064101
-2063811
-2063912
-2063412
-2063550
-2063946
-2064030
-2063885
-2063465
-2064968
-2064260
-2063940
-2063670
-2063195
-2063580
-2063799
-2063843
-2063666
-2063632
-2063703
-2063577
-2063822
-2063685
-2063666
-2063694
-2064378
-2063881
-2063638
-2063631
-2064038
-2064616
-2064230
-2064481
-2064091
-2064280
-2064600
-2064815
-2064641
-2064325
-2064613
-2065153
-2065417
-2065178
-2064865
-2065419
-2065596
-2065615
-2065678
-2065566
-2065430
-2065980
-2066234
-2066135
-2065966
-2066225
-2066676
-2066594
-2066254
-2066135
-2066187
-2066447
-2066765
-2066463
-2066188
-2066398
-2066838
-2067079
-2066478
-2066380
-2066749
-2067186
-2067611
-2066894
-2066588
-2067236
-2067646
-2068086
-2067424
-2067026
-2067587
-2067586
-2068737
-2068454
-2068290
-2068188
-2069286
-2069376
-2068768
-2068378
-2068959
-2069383
-2069041
-2069481
-2069412
-2069283
-2069630
-2070223
-2069869
-2069672
-2069732
-2070346
-2069520
-2070005
-2069828
-2070293
-2070071
-2070383
-2070782
-2070096
-2070457
-2070987
-2070969
-2070758
-2070305
-2071566
-2071718
-2070850
-2071018
-2070558
-2070947
-2071731
-2071425
-2071359
-2070869
-2071376
-2071504
-2072066
-2072398
-2071850
-2072274
-2072402
-2072346
-2072041
-2072319
-2071877
-2072725
-2073342
-2072479
-2072628
-2073175
-2073094
-2074080
-2073106
-2073149
-2073272
-2074216
-2073956
-2073697
-2073898
-2073838
-2074634
-2074387
-2073924
-2073936
-2074462
-2074734
-2074642
-2074135
-2073794
-2073869
-2074690
-2074359
-2073924
-2073759
-2075241
-2074903
-2074861
-2074165
-2074251
-2074219
-2074817
-2074855
-2074763
-2074207
-2074200
-2075375
-2075323
-2075103
-2074805
-2075224
-2075103
-2075402
-2075397
-2074943
-2075684
-2075850
-2076177
-2075920
-2075849
-2075858
-2076651
-2076432
-2076364
-2076125
-2076143
-2076666
-2076826
-2076673
-2076090
-2076280
-2076809
-2076859
-2076570
-2076186
-2076626
-2076926
-2077168
-2076809
-2076633
-2076927
-2077089
-2077234
-2077055
-2076777
-2076971
-2077565
-2077260
-2077590
-2077387
-2077604
-2078008
-2077847
-2077815
-2077689
-2078113
-2078452
-2078640
-2078594
-2077990
-2078264
-2078336
-2079024
-2078678
-2078444
-2078734
-2078944
-2078814
-2078549
-2078374
-2078529
-2079038
-2079379
-2078780
-2078508
-2078831
-2079250
-2079523
-2079121
-2079017
-2079181
-2080123
-2079899
-2079595
-2079338
-2079395
-2079926
-2080084
-2079643
-2079838
-2079960
-2080246
-2080467
-2080479
-2080129
-2079850
-2080147
-2080407
-2080303
-2080240
-2080449
-2080990
-2080857
-2080358
-2080295
-2080903
-2080908
-2081186
-2080691
-2081092
-2081273
-2080735
-2081629
-2081739
-2081281
-2081657
-2082045
-2082244
-2081913
-2081661
-2082128
-2082760
-2082513
-2082616
-2082258
-2082626
-2082819
-2082984
-2082790
-2082510
-2082577
-2083191
-2082939
-2082922
-2082331
-2082275
-2082618
-2082876
-2082580
-2082164
-2082203
-2081410
-2081704
-2081359
-2080499
-2079998
-2079888
-2079158
-2078403
-2077411
-2076803
-2076420
-2075944
-2074749
-2074232
-2073239
-2073001
-2071901
-2071396
-2070280
-2069784
-2069346
-2068279
-2068542
-2067340
-2067032
-2067313
-2066695
-2065893
-2065635
-2065362
-2065197
-2065168
-2064661
-2063832
-2064115
-2064405
-2064331
-2064170
-2063574
-2064091
-2063938
-2064091
-2063727
-2063489
-2063688
-2064337
-2064520
-2064213
-2064318
-2064258
-2064720
-2064982
-2064796
-2064632
-2064899
-2065178
-2065741
-2065992
-2066029
-2066328
-2066956
-2067102
-2066756
-2066803
-2067203
-2067651
-2068128
-2068311
-2068061
-2068301
-2069231
-2068977
-2069045
-2068862
-2069215
-2069738
-2069928
-2069003
-2069469
-2069662
-2069707
-2069975
-2069980
-2069942
-2069715
-2070210
-2070205
-2070012
-2069720
-2069545
-2069609
-2069774
-2068640
-2068146
-2068695
-2068719
-2068158
-2068033
-2067580
-2067066
-2067626
-2067280
-2067077
-2066599
-2066818
-2066776
-2066362
-2066303
-2065837
-2065903
-2066133
-2066000
-2065393
-2065324
-2065911
-2066162
-2066033
-2065531
-2065797
-2065816
-2066462
-2066547
-2066901
-2066902
-2067363
-2067514
-2068109
-2067420
-2067681
-2068385
-2068625
-2068976
-2069278
-2069172
-2069216
-2070204
-2070480
-2070723
-2069718
-2070288
-2070905
-2071240
-2071196
-2070160
-2070830
-2071845
-2071314
-2071265
-2071381
-2071478
-2071653
-2071678
-2071416
-2071623
-2071141
-2071496
-2071652
-2071013
-2070842
-2070834
-2071703
-2072079
-2072671
-2071548
-2071029
-2071212
-2071751
-2070992
-2071010
-2070746
-2070952
-2071636
-2071619
-2071085
-2070671
-2071652
-2071317
-2070696
-2070528
-2070317
-2070816
-2071057
-2071350
-2070856
-2071281
-2071006
-2071486
-2071665
-2071327
-2071715
-2072266
-2072276
-2072003
-2072043
-2071824
-2072789
-2072764
-2072317
-2072610
-2072472
-2073408
-2073165
-2073747
-2073172
-2073098
-2074298
-2074163
-2073223
-2073521
-2073363
-2074336
-2074390
-2073961
-2073640
-2074447
-2074746
-2074699
-2074401
-2074607
-2074733
-2075180
-2075270
-2074891
-2074934
-2074758
-2075694
-2075726
-2075435
-2075132
-2075299
-2075775
-2075902
-2075893
-2075360
-2075728
-2076104
-2076340
-2076037
-2075933
-2076023
-2076312
-2076447
-2076489
-2075870
-2076331
-2076614
-2076920
-2076912
-2076662
-2076731
-2076987
-2077281
-2077095
-2078182
-2077497
-2077406
-2077424
-2077385
-2077240
-2077239
-2077566
-2077698
-2077691
-2077351
-2077396
-2077899
-2078113
-2078110
-2077988
-2078013
-2078216
-2078227
-2078080
-2077696
-2077834
-2078580
-2078588
-2078392
-2078153
-2078221
-2078568
-2078356
-2078897
-2078482
-2078632
-2078790
-2078460
-2078641
-2078406
-2078617
-2080447
-2079349
-2078923
-2078613
-2078728
-2079114
-2079169
-2079185
-2078617
-2078879
-2079413
-2079309
-2079333
-2079214
-2079211
-2079725
-2079578
-2079589
-2079679
-2079333
-2079717
-2080072
-2080128
-2079918
-2080098
-2080494
-2080640
-2080574
-2080637
-2080640
-2080982
-2081303
-2081174
-2081318
-2080573
-2081424
-2081934
-2081599
-2082063
-2081827
-2082455
-2082353
-2081853
-2081792
-2081643
-2082866
-2082736
-2082842
-2082178
-2082506
-2082805
-2083060
-2082662
-2082317
-2082865
-2083446
-2083712
-2083612
-2083473
-2082953
-2083948
-2083502
-2083559
-2083430
-2083969
-2083733
-2083648
-2084172
-2083782
-2083951
-2084053
-2084348
-2085482
-2083931
-2083946
-2084639
-2085034
-2084727
-2084382
-2085641
-2085261
-2085318
-2085158
-2084962
-2084915
-2085553
-2085722
-2085649
-2085489
-2085610
-2086093
-2086074
-2086014
-2085634
-2085860
-2086267
-2086416
-2086086
-2085677
-2085686
-2086402
-2086444
-2086160
-2086063
-2087760
-2086843
-2086752
-2086279
-2086105
-2086049
-2086446
-2086816
-2086460
-2086159
-2086218
-2086659
-2086908
-2086807
-2086478
-2086806
-2087089
-2087091
-2087325
-2086957
-2087175
-2087516
-2087778
-2087642
-2087509
-2087531
-2088099
-2088408
-2088219
-2087833
-2088260
-2088814
-2088908
-2088878
-2088787
-2088870
-2089530
-2089641
-2089679
-2089532
-2089811
-2090380
-2090732
-2090682
-2090484
-2090556
-2090967
-2091375
-2091274
-2090899
-2091233
-2091841
-2092103
-2091940
-2091714
-2091767
-2092386
-2092909
-2090936
-2091644
-2092792
-2091984
-2092950
-2092836
-2091717
-2092749
-2093026
-2093404
-2092874
-2092510
-2093005
-2093163
-2092215
-2092802
-2093631
-2093050
-2093754
-2094384
-2093520
-2093458
-2092779
-2093553
-2093759
-2094816
-2094180
-2093713
-2093437
-2093383
-2094474
-2093083
-2093199
-2092645
-2092197
-2092692
-2091395
-2090764
-2090362
-2090073
-2088849
-2087607
-2088355
-2087073
-2086362
-2085319
-2084145
-2083365
-2082564
-2082319
-2081284
-2080562
-2080200
-2079859
-2080411
-2078972
-2078181
-2077741
-2077757
-2077415
-2076806
-2076217
-2077484
-2076569
-2076494
-2076006
-2075601
-2075693
-2075673
-2075876
-2075698
-2075537
-2075641
-2075885
-2076054
-2075971
-2076031
-2076170
-2076654
-2076974
-2077285
-2077160
-2077351
-2078001
-2078247
-2078238
-2078595
-2078862
-2078845
-2081602
-2080082
-2079569
-2080043
-2080457
-2080336
-2080758
-2080597
-2080558
-2081128
-2081264
-2081480
-2080935
-2081669
-2081591
-2082041
-2081650
-2081044
-2080986
-2081653
-2082035
-2081601
-2081480
-2081022
-2081904
-2082133
-2081968
-2080654
-2081164
-2081324
-2081642
-2081748
-2080810
-2080982
-2081041
-2081033
-2080801
-2080086
-2080137
-2080335
-2080289
-2080059
-2079488
-2079367
-2079982
-2079720
-2079767
-2079173
-2079355
-2079581
-2079783
-2079325
-2079053
-2079198
-2079630
-2079726
-2079715
-2079473
-2079441
-2079845
-2080075
-2080141
-2079905
-2079518
-2080449
-2080679
-2080516
-2080456
-2080537
-2081061
-2081482
-2080874
-2080951
-2080852
-2081187
-2081649
-2081699
-2081388
-2081837
-2081310
-2082269
-2081554
-2081207
-2081527
-2081599
-2082125
-2081685
-2081706
-2081737
-2081716
-2082621
-2081495
-2081384
-2081430
-2081831
-2081882
-2081820
-2080859
-2081191
-2081244
-2081629
-2081475
-2081117
-2081314
-2081165
-2081002
-2081233
-2081051
-2080382
-2081250
-2081209
-2080517
-2079971
-2080291
-2080591
-2081013
-2081314
-2080559
-2080275
-2080716
-2080541
-2080766
-2080039
-2080350
-2080780
-2081331
-2081073
-2080943
-2080658
-2081547
-2081519
-2081280
-2081022
-2081131
-2081788
-2082284
-2082089
-2082694
-2081863
-2082789
-2083052
-2082656
-2082297
-2083233
-2082797
-2083088
-2082965
-2082469
-2082972
-2083264
-2083310
-2083631
-2083185
-2083295
-2083592
-2083752
-2083209
-2083050
-2083494
-2083971
-2084126
-2083149
-2083157
-2083301
-2083286
-2083066
-2083422
-2083292
-2083133
-2083792
-2083628
-2083959
-2083985
-2083909
-2084327
-2084082
-2083867
-2083906
-2083538
-2083955
-2085243
-2084685
-2084135
-2083974
-2084897
-2085054
-2085181
-2084795
-2084841
-2085195
-2085547
-2085510
-2085283
-2085226
-2085668
-2086075
-2086038
-2085762
-2085754
-2086140
-2086334
-2086226
-2085756
-2085788
-2086181
-2086296
-2086147
-2085702
-2085820
-2086212
-2086371
-2086152
-2085693
-2085746
-2086134
-2086542
-2086228
-2086005
-2085760
-2086331
-2086391
-2086223
-2086046
-2085840
-2086170
-2086615
-2086473
-2086088
-2086059
-2086531
-2086971
-2086883
-2086500
-2086551
-2086842
-2087284
-2087178
-2086693
-2086595
-2087104
-2087284
-2087192
-2087064
-2086934
-2087255
-2087654
-2087598
-2087235
-2087274
-2087696
-2087782
-2087713
-2087230
-2087297
-2087738
-2088050
-2087832
-2087514
-2088829
-2088041
-2087944
-2087813
-2087458
-2087515
-2087976
-2088214
-2087878
-2087648
-2087511
-2087813
-2088096
-2088012
-2087886
-2087978
-2088325
-2088437
-2088523
-2088027
-2088033
-2088465
-2088806
-2088863
-2088289
-2088281
-2088832
-2088945
-2088940
-2088531
-2088447
-2088726
-2089018
-2088899
-2088803
-2088494
-2088819
-2088867
-2088861
-2088167
-2087804
-2088625
-2088856
-2088850
-2088781
-2088610
-2088863
-2089167
-2089096
-2088629
-2088753
-2088924
-2089476
-2089446
-2089279
-2089052
-2089551
-2089763
-2089734
-2089611
-2089710
-2090050
-2090448
-2090266
-2090008
-2089880
-2090444
-2090874
-2090891
-2090422
-2090472
-2090904
-2091334
-2090884
-2090461
-2090505
-2090889
-2090922
-2090973
-2090761
-2090378
-2090941
-2090968
-2090661
-2090348
-2090508
-2090742
-2091153
-2091033
-2090719
-2090609
-2090916
-2091303
-2091236
-2091184
-2090817
-2091301
-2091704
-2091454
-2091275
-2091336
-2091749
-2091714
-2091858
-2091684
-2091669
-2092774
-2091386
-2092575
-2091751
-2091868
-2091891
-2092035
-2092706
-2092649
-2092451
-2092164
-2091627
-2091693
-2091604
-2091714
-2092263
-2091297
-2092237
-2091757
-2091774
-2091668
-2092783
-2091297
-2090915
-2090865
-2090904
-2091339
-2090570
-2090049
-2089627
-2089879
-2089832
-2089383
-2088539
-2088058
-2088343
-2088812
-2088779
-2087597
-2086929
-2086551
-2085563
-2085385
-2084375
-2083562
-2082705
-2082484
-2081249
-2079820
-2078664
-2078236
-2077474
-2076292
-2075001
-2074059
-2073226
-2072812
-2072028
-2071189
-2070325
-2069790
-2069595
-2069107
-2068244
-2067604
-2067123
-2067287
-2066700
-2066072
-2065940
-2065810
-2065191
-2065429
-2064899
-2064345
-2064454
-2064532
-2064210
-2064001
-2063843
-2064223
-2064592
-2064279
-2064091
-2063950
-2064009
-2064683
-2064602
-2064401
-2064162
-2064693
-2064883
-2065136
-2064839
-2064769
-2065114
-2065788
-2065962
-2065384
-2065201
-2065637
-2065883
-2065826
-2065794
-2065452
-2065743
-2066282
-2066568
-2066225
-2066197
-2066904
-2067494
-2066795
-2066437
-2066692
-2066919
-2067658
-2067318
-2067504
-2066994
-2067038
-2067312
-2067099
-2066651
-2066448
-2066547
-2066393
-2066367
-2065828
-2065478
-2065490
-2065737
-2065483
-2064943
-2064716
-2064863
-2064869
-2064608
-2064005
-2063744
-2064065
-2063959
-2064000
-2063646
-2063214
-2063942
-2064070
-2064022
-2063899
-2063641
-2063983
-2064428
-2064567
-2064147
-2064377
-2064623
-2065331
-2065405
-2065116
-2065189
-2065501
-2066015
-2065852
-2065594
-2065102
-2065792
-2066368
-2066466
-2066160
-2065566
-2066120
-2066315
-2066243
-2065666
-2065757
-2065903
-2065999
-2065942
-2065549
-2064839
-2065600
-2065478
-2065713
-2065154
-2064876
-2065176
-2065487
-2065185
-2064422
-2064280
-2064456
-2064950
-2064716
-2064021
-2063513
-2063710
-2063943
-2063661
-2063206
-2062951
-2063022
-2062702
-2062603
-2062153
-2061894
-2061805
-2061993
-2061716
-2061526
-2061106
-2061178
-2061316
-2061035
-2060503
-2060621
-2060810
-2060713
-2060612
-2060491
-2060421
-2060657
-2060760
-2060715
-2060335
-2060416
-2060116
-2060575
-2060246
-2059987
-2059870
-2059453
-2059668
-2060115
-2060235
-2059269
-2059834
-2060371
-2060036
-2059547
-2059624
-2059811
-2059942
-2059671
-2059553
-2059582
-2059638
-2059728
-2059692
-2059365
-2059321
-2059427
-2059594
-2059591
-2059147
-2058541
-2059116
-2059331
-2058959
-2058971
-2058522
-2058717
-2058921
-2058423
-2058769
-2058327
-2058654
-2059385
-2058770
-2058288
-2057846
-2057976
-2059294
-2058185
-2057457
-2057067
-2057065
-2057100
-2057263
-2056545
-2056702
-2056589
-2057037
-2056560
-2056323
-2055763
-2055934
-2056685
-2056024
-2055735
-2055115
-2055234
-2055748
-2055909
-2055147
-2055543
-2055846
-2056206
-2056321
-2055704
-2055227
-2055812
-2056204
-2056021
-2055419
-2055527
-2055754
-2056197
-2056315
-2055758
-2055902
-2055943
-2056262
-2056334
-2056418
-2056438
-2056636
-2057025
-2057133
-2057186
-2056881
-2057147
-2057376
-2057515
-2056847
-2056987
-2056994
-2057196
-2056547
-2056352
-2055727
-2056049
-2056359
-2056165
-2056180
-2055084
-2055803
-2056448
-2057846
-2056216
-2056288
-2056524
-2057200
-2056911
-2056860
-2056723
-2057089
-2057011
-2056854
-2056950
-2056957
-2057059
-2057441
-2057276
-2057014
-2056579
-2057137
-2057239
-2057513
-2057157
-2057304
-2057322
-2057269
-2058103
-2057212
-2057452
-2057535
-2057923
-2058178
-2057724
-2057595
-2058047
-2058530
-2058742
-2058717
-2058317
-2058817
-2059153
-2059173
-2059133
-2058848
-2059312
-2059701
-2059671
-2059504
-2059474
-2059864
-2060105
-2060104
-2059847
-2059693
-2060166
-2060704
-2061010
-2060554
-2060503
-2060663
-2061198
-2061247
-2060557
-2060504
-2060677
-2061155
-2061109
-2060755
-2060512
-2060869
-2060689
-2061036
-2060968
-2061974
-2060945
-2061151
-2061045
-2060697
-2060811
-2060538
-2060512
-2060816
-2060369
-2060086
-2060128
-2060726
-2060612
-2060140
-2060238
-2060564
-2060681
-2061064
-2060817
-2061150
-2061549
-2062000
-2062065
-2061940
-2062123
-2062573
-2063069
-2063309
-2062965
-2063243
-2063634
-2064140
-2063643
-2063901
-2064785
-2064644
-2065250
-2064822
-2064577
-2064675
-2064679
-2065197
-2065012
-2065298
-2064920
-2065133
-2065168
-2065424
-2065359
-2065048
-2065419
-2065555
-2065620
-2065376
-2065062
-2064690
-2065643
-2065820
-2065445
-2065238
-2065754
-2065450
-2066077
-2065426
-2064752
-2065046
-2064871
-2065074
-2064668
-2064804
-2064398
-2065142
-2064881
-2064174
-2064518
-2064404
-2064650
-2064240
-2063792
-2063559
-2063187
-2063687
-2063784
-2062987
-2062575
-2062128
-2061963
-2061579
-2060655
-2059739
-2059577
-2058895
-2058335
-2057437
-2056423
-2055645
-2054395
-2053816
-2052508
-2051432
-2050942
-2049980
-2049254
-2048033
-2046983
-2046322
-2045478
-2044763
-2043887
-2042946
-2042526
-2042369
-2041915
-2040917
-2040081
-2039999
-2039782
-2039458
-2038613
-2038194
-2037878
-2037785
-2037689
-2036912
-2036623
-2036730
-2036584
-2036515
-2036191
-2035638
-2036041
-2035996
-2036063
-2035891
-2035531
-2035394
-2035894
-2035888
-2035749
-2035602
-2035699
-2035881
-2036010
-2035635
-2035454
-2035272
-2035530
-2035636
-2035161
-2034811
-2034870
-2035156
-2035152
-2034639
-2034624
-2034436
-2034909
-2034777
-2034511
-2034204
-2034305
-2034539
-2034555
-2034248
-2034382
-2034576
-2034731
-2034882
-2034688
-2034312
-2034765
-2035232
-2035037
-2034771
-2034569
-2035002
-2035268
-2035337
-2034965
-2034895
-2035064
-2035437
-2035249
-2034917
-2034818
-2035192
-2035387
-2035576
-2035327
-2035020
-2035185
-2035559
-2035669
-2035230
-2034647
-2034645
-2035158
-2035172
-2034748
-2034792
-2034989
-2035314
-2035266
-2035093
-2035100
-2035187
-2035859
-2035831
-2035603
-2035704
-2035887
-2036541
-2036419
-2036275
-2035431
-2035858
-2036264
-2036443
-2036145
-2036130
-2037024
-2036621
-2036468
-2036051
-2035788
-2035962
-2036319
-2036150
-2035784
-2035529
-2035686
-2035917
-2035730
-2035296
-2035119
-2035042
-2035070
-2035084
-2034930
-2034647
-2034810
-2034754
-2034878
-2034045
-2033906
-2034158
-2034355
-2034383
-2033994
-2033774
-2033971
-2034081
-2034191
-2033757
-2033604
-2033662
-2033810
-2033667
-2033140
-2032966
-2032911
-2032883
-2033090
-2032886
-2032611
-2032830
-2032833
-2032997
-2032750
-2032580
-2032809
-2032916
-2032946
-2032622
-2032726
-2032824
-2033117
-2033001
-2032939
-2032744
-2032723
-2033048
-2033188
-2032880
-2032495
-2032591
-2032979
-2033044
-2032619
-2032404
-2032401
-2032868
-2032846
-2032307
-2032097
-2032264
-2032515
-2032510
-2031817
-2031686
-2031621
-2031624
-2031816
-2031405
-2030958
-2031051
-2031401
-2031625
-2031087
-2030907
-2031961
-2032136
-2032345
-2032007
-2031806
-2031872
-2032370
-2032599
-2032474
-2033381
-2032609
-2032804
-2033001
-2032761
-2032698
-2032979
-2033124
-2033157
-2032919
-2032962
-2033111
-2033421
-2033250
-2032778
-2032680
-2032783
-2032764
-2033067
-2032413
-2031985
-2031749
-2032155
-2032030
-2031429
-2031131
-2030907
-2031045
-2030902
-2030441
-2029908
-2029847
-2030175
-2029927
-2029441
-2029116
-2029231
-2029638
-2029329
-2029027
-2028584
-2028710
-2029158
-2029222
-2028581
-2028152
-2028246
-2028818
-2028793
-2028446
-2028338
-2028289
-2028647
-2028821
-2028589
-2028465
-2029014
-2029248
-2028955
-2029253
-2029354
-2029553
-2029983
-2030484
-2030322
-2029991
-2029901
-2030066
-2030328
-2030466
-2030389
-2030213
-2030344
-2030207
-2030515
-2030281
-2029987
-2030113
-2030691
-2030682
-2030636
-2030242
-2030457
-2030834
-2030775
-2030812
-2030551
-2030495
-2031135
-2031175
-2030754
-2030693
-2031120
-2031397
-2031480
-2031202
-2031007
-2031110
-2031523
-2031696
-2031473
-2031019
-2031303
-2031688
-2031968
-2031608
-2032717
-2031797
-2031807
-2031708
-2031418
-2031135
-2031167
-2031446
-2031504
-2031229
-2030875
-2030758
-2031296
-2031162
-2031138
-2030961
-2030883
-2031097
-2031343
-2030832
-2030574
-2030639
-2030943
-2031004
-2030912
-2030545
-2030827
-2031207
-2030938
-2030911
-2030556
-2030933
-2030973
-2030949
-2031708
-2030745
-2030927
-2031172
-2030529
-2030511
-2030387
-2030505
-2030567
-2030363
-2029995
-2030168
-2029901
-2030466
-2031659
-2030423
-2030253
-2030278
-2030667
-2030135
-2029945
-2030443
-2030554
-2031021
-2030676
-2030046
-2030796
-2031131
-2031172
-2030836
-2030694
-2030222
-2030156
-2030161
-2029672
-2028996
-2028280
-2028121
-2027094
-2026555
-2025818
-2025307
-2025036
-2024214
-2023177
-2022233
-2021640
-2021023
-2020545
-2019540
-2018673
-2017916
-2017242
-2016686
-2015823
-2014869
-2014386
-2014219
-2013584
-2012605
-2012034
-2011369
-2011488
-2011259
-2010596
-2009928
-2009419
-2009656
-2009215
-2009014
-2008251
-2008286
-2008081
-2007926
-2007445
-2007134
-2006756
-2007073
-2006842
-2006572
-2006065
-2005976
-2006219
-2006099
-2005828
-2005527
-2005455
-2005122
-2005777
-2005699
-2005300
-2005276
-2005609
-2005808
-2005578
-2005159
-2005161
-2005533
-2005480
-2005501
-2005204
-2005123
-2005413
-2005531
-2005363
-2005219
-2005295
-2005777
-2005597
-2005590
-2005217
-2005228
-2005622
-2005408
-2005056
-2004698
-2004913
-2005147
-2005095
-2004812
-2004567
-2004274
-2004520
-2004094
-2003826
-2003534
-2003515
-2003660
-2003789
-2003171
-2002792
-2002866
-2002953
-2002791
-2002427
-2001963
-2001861
-2001795
-2001699
-2001188
-2000720
-2000549
-2001073
-1999637
-2000244
-1999951
-1999965
-2000208
-2000399
-2000199
-1999983
-1999859
-1999999
-2000174
-1999732
-1999441
-1999413
-1999850
-1999726
-1999747
-1999253
-1999107
-2000510
-1999711
-1999046
-1998825
-1998716
-1998864
-1998549
-1998405
-1997858
-1997618
-1997854
-1998062
-1997496
-1997262
-1997157
-1997223
-1997319
-1996705
-1996453
-1996467
-1996803
-1996643
-1996350
-1996036
-1996070
-1995988
-1996079
-1995960
-1995464
-1995452
-1995653
-1995702
-1995173
-1994825
-1994845
-1995137
-1995412
-1994986
-1994535
-1994601
-1994750
-1994860
-1994580
-1994351
-1994052
-1994141
-1994388
-1994102
-1993497
-1993437
-1993431
-1993491
-1993243
-1992855
-1993164
-1993409
-1993589
-1993449
-1992996
-1993047
-1993858
-1994012
-1993662
-1993609
-1993554
-1993904
-1994197
-1994309
-1994139
-1994221
-1994736
-1995026
-1995120
-1994784
-1994816
-1995199
-1995503
-1995462
-1995570
-1995651
-1995990
-1996491
-1996380
-1996085
-1996339
-1996612
-1996969
-1996808
-1996537
-1996775
-1997235
-1997647
-1997426
-1996955
-1997237
-1997680
-1997971
-1997634
-1997603
-1997698
-1998128
-1998301
-1998423
-1998133
-1998390
-1998758
-1999029
-1999027
-1998679
-1998414
-1998805
-1998878
-1998744
-1998474
-1998414
-1998653
-1998806
-1998822
-1998612
-1998583
-1998933
-1999093
-1998739
-1998504
-1998659
-1998848
-1998966
-1998656
-1998230
-1998246
-1998750
-1998716
-1998416
-1998148
-1998305
-1998428
-1998820
-1998447
-1998240
-1998305
-1998470
-1998603
-1998415
-1998248
-1998150
-1998468
-1998659
-1998422
-1998311
-1998362
-1998707
-1999038
-1998801
-1998524
-1998388
-1998758
-1998866
-1998723
-1998271
-1998136
-1998459
-1998450
-1998484
-1998131
-1998027
-1998473
-1998837
-1998511
-1998328
-1998194
-1998743
-1998612
-1998587
-1998318
-1998208
-1998537
-1998733
-1998872
-1998612
-1998554
-1999110
-1999404
-1999123
-1998879
-1998910
-1999353
-1999662
-1999673
-1999390
-1999415
-1999384
-1999955
-1999901
-1999715
-1999558
-2000183
-2000553
-2000445
-2000290
-2000264
-2000637
-2000680
-2000647
-2000523
-2000442
-2000769
-2001219
-2001042
-2000768
-2000727
-2001201
-2001458
-2001352
-2001180
-2001110
-2001335
-2001576
-2001506
-2000995
-2000862
-2001533
-2001627
-2001739
-2001159
-2001356
-2001460
-2001749
-2001367
-2001116
-2000945
-2001024
-2000714
-2000554
-1999995
-1999465
-1999204
-1999132
-1998576
-1997534
-1997003
-1996796
-1996186
-1995252
-1994343
-1993668
-1993136
-1992610
-1991770
-1990931
-1989979
-1989811
-1989398
-1988625
-1987852
-1987220
-1986781
-1986414
-1985787
-1985388
-1984753
-1984706
-1985177
-1985314
-1983729
-1983627
-1982964
-1982814
-1982404
-1981827
-1981536
-1981512
-1981652
-1981346
-1980872
-1980591
-1980930
-1980908
-1980713
-1980454
-1980269
-1980547
-1980721
-1980552
-1980520
-1980317
-1980657
-1981002
-1980798
-1980591
-1980677
-1981175
-1981407
-1981325
-1981248
-1981286
-1981727
-1981895
-1982056
-1981736
-1981881
-1982073
-1982499
-1982360
-1981902
-1981868
-1982037
-1982086
-1981916
-1982589
-1981912
-1981793
-1981753
-1981428
-1981226
-1980778
-1980910
-1980863
-1980448
-1979813
-1979870
-1980017
-1979747
-1979581
-1979025
-1978998
-1978971
-1979065
-1978537
-1977972
-1977540
-1977831
-1977682
-1977518
-1976786
-1976549
-1976432
-1976671
-1976269
-1975707
-1974998
-1975374
-1975441
-1975057
-1974309
-1974149
-1974219
-1974247
-1974161
-1973810
-1973875
-1974285
-1974154
-1974081
-1973886
-1973600
-1973963
-1974082
-1973903
-1973752
-1973426
-1973832
-1973801
-1973870
-1973545
-1973296
-1973448
-1973663
-1973374
-1973081
-1973175
-1973348
-1973602
-1973237
-1972875
-1972810
-1973070
-1973135
-1973100
-1972613
-1972390
-1972780
-1972958
-1972666
-1972326
-1971967
-1972207
-1972354
-1972001
-1971831
-1971181
-1971584
-1971542
-1971411
-1971035
-1970583
-1970673
-1970943
-1970658
-1970064
-1969835
-1970202
-1970133
-1969750
-1969422
-1969319
-1969571
-1969479
-1969340
-1969012
-1968735
-1968829
-1969109
-1968931
-1968665
-1968553
-1968853
-1968779
-1968675
-1968422
-1968386
-1968376
-1969957
-1968611
-1968143
-1968037
-1968410
-1968690
-1968654
-1968216
-1968076
-1968369
-1968512
-1968716
-1968285
-1968258
-1968540
-1968753
-1969037
-1968781
-1968508
-1968852
-1969437
-1969453
-1968997
-1969025
-1969435
-1969872
-1969902
-1969798
-1969895
-1970017
-1970144
-1970221
-1969977
-1970094
-1970511
-1970879
-1970735
-1970490
-1970492
-1970677
-1971183
-1971136
-1970936
-1970764
-1971050
-1971090
-1971216
-1970851
-1970609
-1970992
-1971177
-1971262
-1970984
-1970648
-1970949
-1971054
-1970969
-1970533
-1970372
-1970759
-1971165
-1971092
-1970527
-1970437
-1970698
-1970911
-1970537
-1970203
-1969909
-1969826
-1970072
-1969871
-1969468
-1969259
-1969423
-1969582
-1969191
-1968828
-1968541
-1968794
-1968807
-1968790
-1968208
-1967889
-1968101
-1967944
-1967960
-1967384
-1967145
-1967326
-1967486
-1967428
-1966932
-1966773
-1966767
-1967022
-1966664
-1966204
-1965868
-1966087
-1966116
-1966035
-1965548
-1964748
-1965253
-1965307
-1965075
-1964511
-1964539
-1964673
-1964737
-1964482
-1964065
-1963782
-1963715
-1963816
-1963691
-1963207
-1963067
-1963263
-1963248
-1963003
-1962449
-1962548
-1962564
-1963762
-1962848
-1962327
-1961974
-1962114
-1962631
-1962514
-1961952
-1962217
-1962545
-1962687
-1962849
-1962682
-1962453
-1962677
-1962914
-1963129
-1962826
-1962996
-1963133
-1963730
-1963891
-1963907
-1963863
-1964089
-1964362
-1964299
-1963954
-1963526
-1963750
-1964070
-1964091
-1963941
-1964108
-1964443
-1964654
-1964915
-1963885
-1964463
-1964948
-1965590
-1965686
-1965620
-1965593
-1967315
-1966617
-1966405
-1965946
-1965926
-1966393
-1966550
-1966618
-1966475
-1966152
-1966429
-1966782
-1966698
-1966302
-1965805
-1966285
-1966789
-1966807
-1966334
-1966134
-1966581
-1966681
-1966580
-1966395
-1966258
-1966185
-1966338
-1966319
-1965839
-1965403
-1965328
-1965520
-1965161
-1964526
-1963464
-1963497
-1963356
-1962619
-1961658
-1960970
-1960728
-1960144
-1959601
-1958550
-1957558
-1957078
-1956431
-1955745
-1954822
-1953809
-1954780
-1953593
-1952497
-1951460
-1950729
-1950505
-1950120
-1949553
-1948885
-1948363
-1948064
-1948073
-1947492
-1947076
-1946612
-1946767
-1946859
-1946580
-1945934
-1945847
-1946041
-1946243
-1945993
-1945609
-1945421
-1945895
-1946030
-1946187
-1945861
-1945481
-1945965
-1946182
-1946264
-1946232
-1946205
-1946461
-1946834
-1946692
-1946535
-1946451
-1946669
-1946980
-1947049
-1946910
-1946719
-1947121
-1946814
-1947160
-1947212
-1947053
-1946793
-1947560
-1947774
-1947274
-1947090
-1947312
-1947591
-1947870
-1947365
-1947275
-1947315
-1947607
-1947420
-1946884
-1946865
-1946953
-1947089
-1946651
-1946003
-1945699
-1945786
-1945788
-1945315
-1944829
-1944385
-1944469
-1944233
-1944103
-1943408
-1943094
-1943141
-1942959
-1942698
-1942072
-1941766
-1941617
-1941595
-1941378
-1940849
-1940399
-1940548
-1940625
-1940479
-1939981
-1939636
-1939542
-1939653
-1939456
-1939226
-1939034
-1939253
-1939604
-1939659
-1939185
-1939153
-1938722
-1939556
-1939773
-1939625
-1939359
-1939725
-1940163
-1940221
-1939479
-1939791
-1940123
-1940396
-1940515
-1940353
-1940188
-1940643
-1940732
-1940800
-1940729
-1940588
-1940637
-1940836
-1941010
-1940560
-1940359
-1940282
-1940488
-1940330
-1939929
-1939592
-1939691
-1940037
-1940001
-1939605
-1939666
-1940036
-1940395
-1940426
-1939797
-1939621
-1939626
-1940002
-1939914
-1939437
-1939311
-1939221
-1939477
-1939617
-1938978
-1938824
-1938737
-1938956
-1938868
-1938712
-1938610
-1938683
-1938871
-1938727
-1938410
-1938202
-1938388
-1938513
-1939487
-1938337
-1937794
-1937878
-1938315
-1938210
-1937863
-1937870
-1937858
-1938283
-1938269
-1937911
-1937716
-1937782
-1938066
-1937998
-1937894
-1937784
-1938036
-1938432
-1938391
-1938071
-1937921
-1938266
-1938576
-1938559
-1938231
-1938007
-1938197
-1938730
-1938563
-1938424
-1938277
-1939507
-1939109
-1938915
-1938285
-1938158
-1938327
-1938687
-1938519
-1938315
-1938035
-1938090
-1938448
-1938368
-1938304
-1938191
-1938204
-1938738
-1938727
-1938387
-1938332
-1938576
-1938949
-1939341
-1939068
-1939209
-1939389
-1939820
-1939874
-1939668
-1939315
-1939654
-1939955
-1940184
-1941163
-1940268
-1940155
-1940200
-1940193
-1940029
-1939957
-1940197
-1940428
-1940562
-1939677
-1940042
-1940080
-1940570
-1940494
-1940229
-1940116
-1940427
-1940559
-1940656
-1940566
-1940583
-1940747
-1941134
-1941466
-1940981
-1941055
-1941078
-1941494
-1941724
-1941335
-1941243
-1941374
-1941752
-1941923
-1942305
-1941675
-1941726
-1941934
-1942122
-1941889
-1941755
-1942041
-1943959
-1942770
-1942350
-1942958
-1942357
-1942676
-1942442
-1941876
-1941919
-1942252
-1942583
-1942611
-1942299
-1942364
-1942515
-1942728
-1942771
-1942744
-1942136
-1941985
-1942764
-1943714
-1942964
-1942601
-1942967
-1942674
-1943085
-1943072
-1942958
-1943100
-1943414
-1943514
-1943056
-1942847
-1943248
-1943586
-1943566
-1943257
-1943039
-1943163
-1943450
-1943402
-1942979
-1942889
-1942896
-1943326
-1943317
-1943054
-1942986
-1943408
-1944035
-1944387
-1943977
-1943871
-1943508
-1944096
-1944359
-1945481
-1944344
-1944179
-1944518
-1944665
-1944419
-1944027
-1944265
-1944449
-1944551
-1944285
-1944381
-1944604
-1944778
-1944943
-1944649
-1944752
-1944843
-1945163
-1945481
-1945237
-1945047
-1945246
-1945685
-1946080
-1946056
-1946222
-1946575
-1947198
-1947254
-1947260
-1947220
-1947852
-1948344
-1948543
-1948740
-1948747
-1948981
-1949493
-1949913
-1949993
-1949891
-1951595
-1951916
-1952183
-1952032
-1951892
-1951902
-1952464
-1952542
-1952416
-1952350
-1952566
-1952676
-1952861
-1952594
-1952283
-1952625
-1952799
-1952576
-1953678
-1952271
-1951654
-1951765
-1951565
-1950694
-1950167
-1949840
-1949351
-1948851
-1947981
-1947279
-1946860
-1946617
-1945836
-1944964
-1944239
-1943553
-1944232
-1943097
-1942140
-1941414
-1940837
-1940759
-1940441
-1939653
-1939005
-1938772
-1938908
-1938488
-1937966
-1937467
-1937989
-1937795
-1937647
-1937329
-1936806
-1936728
-1938357
-1937551
-1937046
-1936682
-1936927
-1937366
-1937563
-1936950
-1936969
-1937270
-1937698
-1937944
-1937893
-1937672
-1938120
-1938627
-1938780
-1938777
-1938802
-1939084
-1939524
-1939567
-1939457
-1939572
-1939541
-1940072
-1940212
-1940143
-1939857
-1940167
-1940426
-1940604
-1940596
-1940400
-1940569
-1940630
-1940631
-1940628
-1940369
-1940321
-1940629
-1940693
-1940245
-1940180
-1940162
-1940233
-1940105
-1939763
-1939447
-1939353
-1939521
-1939626
-1939297
-1938826
-1938717
-1938851
-1938735
-1938101
-1937689
-1937679
-1937806
-1937673
-1937320
-1936845
-1936553
-1936526
-1936486
-1935728
-1935360
-1935439
-1935663
-1935612
-1935177
-1934780
-1934782
-1934901
-1934785
-1934341
-1934029
-1934122
-1934461
-1934397
-1934283
-1934165
-1934231
-1934485
-1934498
-1933993
-1934053
-1934388
-1934889
-1935055
-1935011
-1934568
-1934840
-1935528
-1935514
-1935438
-1935116
-1935251
-1935600
-1935746
-1935672
-1935497
-1935495
-1936036
-1935982
-1935871
-1935627
-1935456
-1935801
-1935810
-1935711
-1935304
-1935653
-1935740
-1935831
-1935672
-1935444
-1935456
-1935670
-1935728
-1935553
-1935034
-1934941
-1935352
-1935434
-1935245
-1934724
-1934748
-1935203
-1935339
-1934957
-1934569
-1934483
-1934934
-1935120
-1934776
-1934730
-1934956
-1935532
-1935820
-1935529
-1935383
-1935492
-1935917
-1936058
-1935799
-1935437
-1935501
-1935856
-1936211
-1936040
-1935715
-1935991
-1936241
-1936003
-1935647
-1935861
-1936197
-1936570
-1936563
-1936334
-1936106
-1936354
-1936637
-1936859
-1936884
-1936495
-1936737
-1937185
-1937203
-1937324
-1937039
-1937227
-1937748
-1937795
-1937739
-1937453
-1937614
-1938180
-1938497
-1938361
-1938124
-1938348
-1938631
-1938770
-1938726
-1938607
-1938766
-1939179
-1939437
-1939101
-1939115
-1938895
-1939291
-1939648
-1939543
-1939285
-1939378
-1939573
-1939953
-1939692
-1939518
-1939409
-1939982
-1940075
-1939886
-1939801
-1939837
-1940113
-1940275
-1940155
-1940081
-1940240
-1940374
-1940526
-1940351
-1940017
-1940196
-1940625
-1940854
-1940712
-1940742
-1940794
-1941137
-1941537
-1941412
-1941327
-1942693
-1942024
-1941823
-1941361
-1941111
-1941074
-1941340
-1941185
-1941012
-1940594
-1940532
-1941127
-1941221
-1941027
-1940783
-1940542
-1940988
-1941249
-1941041
-1940856
-1940515
-1940912
-1941290
-1941224
-1941207
-1941348
-1941856
-1941860
-1941898
-1941690
-1941801
-1942150
-1942298
-1942297
-1941838
-1941844
-1942246
-1942639
-1942634
-1942337
-1942268
-1942863
-1943078
-1942915
-1942748
-1942673
-1942865
-1943106
-1943139
-1942897
-1943019
-1943307
-1943557
-1943335
-1943107
-1943092
-1943456
-1943702
-1943422
-1943159
-1943368
-1943853
-1944011
-1943727
-1943593
-1943590
-1944170
-1944238
-1944335
-1944078
-1944017
-1944264
-1944602
-1944528
-1944558
-1944539
-1944947
-1945230
-1945349
-1945062
-1945236
-1945568
-1945781
-1945856
-1945594
-1945776
-1946360
-1946615
-1946505
-1946362
-1946519
-1946866
-1946911
-1946899
-1946751
-1946818
-1947259
-1947567
-1947443
-1947227
-1947354
-1947745
-1948143
-1948743
-1947979
-1948111
-1948520
-1948925
-1948865
-1948550
-1948744
-1949024
-1949456
-1949251
-1949168
-1949367
-1949701
-1949848
-1949737
-1949773
-1949728
-1950285
-1950589
-1950494
-1950173
-1950399
-1950611
-1951114
-1950936
-1950842
-1950877
-1951265
-1951503
-1951434
-1951325
-1951424
-1951687
-1951885
-1951896
-1951843
-1951608
-1952062
-1952513
-1952378
-1952131
-1952037
-1952404
-1952490
-1952482
-1952279
-1952254
-1952427
-1952766
-1952538
-1952189
-1952144
-1952592
-1952794
-1952697
-1952476
-1952325
-1952407
-1952581
-1952486
-1952021
-1951625
-1951623
-1951580
-1951250
-1950611
-1950248
-1949907
-1949749
-1949113
-1948199
-1947599
-1947180
-1946814
-1946065
-1944963
-1944426
-1943921
-1943377
-1942690
-1941788
-1941200
-1941198
-1940699
-1940089
-1939546
-1938962
-1938679
-1938752
-1938375
-1937566
-1937412
-1937443
-1937227
-1936866
-1936441
-1936218
-1936668
-1936759
-1936362
-1936043
-1935839
-1936382
-1936596
-1936452
-1935981
-1936171
-1936616
-1936735
-1936563
-1936479
-1936567
-1937050
-1937301
-1937312
-1937068
-1937219
-1937687
-1937879
-1938005
-1938044
-1937999
-1938338
-1938643
-1938868
-1938556
-1938683
-1939347
-1939752
-1939778
-1939672
-1939552
-1939964
-1940424
-1940353
-1940246
-1940204
-1940626
-1942153
-1941268
-1940736
-1941171
-1941741
-1942070
-1942249
-1941953
-1941759
-1942099
-1942337
-1942232
-1941593
-1941373
-1941670
-1941791
-1941578
-1941350
-1941388
-1941397
-1941621
-1941277
-1941020
-1940857
-1940816
-1941230
-1940838
-1940266
-1939944
-1939983
-1940424
-1940214
-1939603
-1939537
-1939925
-1940144
-1939975
-1939820
-1939729
-1940057
-1940282
-1940283
-1940101
-1940112
-1940504
-1940925
-1940742
-1940596
-1940821
-1941025
-1941306
-1941398
-1941140
-1941154
-1941526
-1941743
-1941800
-1941276
-1941487
-1941917
-1942166
-1941772
-1941750
-1941561
-1942060
-1942333
-1942058
-1941756
-1941960
-1942259
-1942481
-1942416
-1942064
-1942032
-1942421
-1942741
-1942409
-1942188
-1942284
-1942556
-1942678
-1942711
-1942469
-1942271
-1942616
-1942935
-1942982
-1942637
-1942573
-1942865
-1942896
-1942742
-1942448
-1942066
-1942630
-1943097
-1943216
-1942781
-1942852
-1943165
-1943473
-1943214
-1942872
-1943052
-1943154
-1943568
-1943616
-1943293
-1943158
-1943446
-1943834
-1943782
-1943518
-1943661
-1943943
-1944160
-1944399
-1944178
-1944199
-1944540
-1944770
-1944596
-1944549
-1944443
-1944721
-1945092
-1945134
-1945167
-1945096
-1945355
-1945542
-1945707
-1945543
-1945215
-1945574
-1945844
-1946025
-1945710
-1945926
-1946274
-1946517
-1946385
-1946084
-1945968
-1946426
-1946918
-1946828
-1946585
-1946363
-1946783
-1947023
-1946969
-1946906
-1946948
-1947226
-1947641
-1947675
-1947286
-1947210
-1947807
-1948110
-1947860
-1947579
-1947788
-1948093
-1948326
-1948375
-1947860
-1948113
-1948522
-1948811
-1948795
-1948429
-1948346
-1948687
-1948996
-1949124
-1948951
-1948837
-1949046
-1949315
-1949358
-1949343
-1949098
-1949486
-1949707
-1949733
-1949581
-1949490
-1950044
-1950346
-1950268
-1950229
-1950228
-1950372
-1950677
-1950768
-1950441
-1950411
-1950665
-1950918
-1950833
-1950738
-1950640
-1951043
-1951255
-1951258
-1951055
-1951100
-1951470
-1951629
-1951715
-1951369
-1951413
-1951719
-1951985
-1952054
-1951745
-1951770
-1951968
-1952414
-1952302
-1952177
-1952003
-1952486
-1952763
-1952612
-1952525
-1952331
-1952664
-1952911
-1953193
-1952943
-1952749
-1953074
-1953358
-1953355
-1953212
-1953122
-1953612
-1954040
-1954005
-1953643
-1953664
-1953975
-1954336
-1953919
-1953863
-1953937
-1954488
-1954607
-1954585
-1954299
-1954412
-1954746
-1955000
-1955137
-1954903
-1954700
-1955007
-1955269
-1955279
-1954965
-1955113
-1955546
-1955845
-1955976
-1955664
-1955424
-1955801
-1956014
-1955982
-1955902
-1955733
-1956152
-1956560
-1956669
-1956344
-1956238
-1956653
-1956767
-1956722
-1956497
-1956553
-1956920
-1957324
-1957174
-1957150
-1956900
-1957286
-1957612
-1957709
-1957461
-1957378
-1957823
-1958237
-1958225
-1958009
-1957936
-1958301
-1958531
-1958730
-1957990
-1958324
-1958763
-1959023
-1959084
-1959042
-1959040
-1959266
-1959676
-1959757
-1959579
-1959503
-1959553
-1960115
-1960059
-1959744
-1959953
-1960449
-1960243
-1960430
-1960439
-1960449
-1960602
-1960533
-1960886
-1960649
-1960725
-1960902
-1961499
-1961441
-1961092
-1961103
-1961239
-1961235
-1961167
-1960564
-1960391
-1960381
-1960212
-1959719
-1958915
-1958462
-1958015
-1957775
-1958285
-1956513
-1955629
-1955305
-1954816
-1953936
-1953069
-1952355
-1951969
-1951654
-1950876
-1950170
-1949421
-1948942
-1948800
-1948423
-1947902
-1947356
-1947270
-1946936
-1946636
-1946411
-1945902
-1945828
-1945877
-1945801
-1945434
-1945376
-1945507
-1945326
-1945382
-1945152
-1945145
-1945541
-1945703
-1945958
-1945648
-1945583
-1945838
-1946458
-1946667
-1946311
-1946428
-1946722
-1947343
-1947365
-1947387
-1947211
-1947578
-1947999
-1948590
-1948922
-1949085
-1949023
-1948936
-1949187
-1949825
-1949837
-1949698
-1949352
-1949704
-1950330
-1950548
-1950126
-1950012
-1950109
-1950643
-1950658
-1950283
-1950190
-1950468
-1950718
-1950573
-1950050
-1949778
-1949893
-1950132
-1950065
-1949705
-1949415
-1949341
-1949567
-1949366
-1948676
-1948613
-1948471
-1948562
-1948556
-1948091
-1947647
-1947810
-1947988
-1947806
-1947206
-1946753
-1947047
-1947165
-1947227
-1946803
-1946345
-1946440
-1946760
-1946776
-1946601
-1946467
-1946682
-1946859
-1947030
-1946662
-1946686
-1947070
-1947266
-1947626
-1947317
-1947319
-1947767
-1948135
-1948352
-1948160
-1948079
-1948260
-1948657
-1948954
-1948784
-1948554
-1949015
-1949456
-1949427
-1949064
-1948918
-1949271
-1949654
-1949642
-1949447
-1949188
-1949604
-1950039
-1950057
-1949678
-1949334
-1949657
-1949949
-1949882
-1949497
-1949476
-1949708
-1950066
-1950108
-1949788
-1949502
-1949697
-1950105
-1950023
-1949567
-1949488
-1949793
-1950101
-1950014
-1949717
-1949427
-1949822
-1950132
-1950096
-1949774
-1949503
-1949602
-1950079
-1950002
-1949841
-1949634
-1949709
-1950115
-1951158
-1949909
-1949863
-1949980
-1950317
-1950350
-1950250
-1950142
-1950354
-1950645
-1950817
-1950539
-1950224
-1950664
-1951108
-1951028
-1950775
-1950774
-1951025
-1951427
-1951504
-1951281
-1951169
-1951252
-1951652
-1951888
-1951681
-1951401
-1951815
-1952250
-1952143
-1952160
-1951882
-1952232
-1952549
-1952729
-1952223
-1952319
-1952442
-1952990
-1953179
-1952878
-1952742
-1952917
-1953195
-1953340
-1953173
-1953053
-1953205
-1953636
-1953744
-1953551
-1953249
-1953625
-1953973
-1954146
-1953841
-1953679
-1953847
-1954396
-1954267
-1954001
-1954042
-1954251
-1954656
-1954722
-1954485
-1954339
-1954447
-1954727
-1954995
-1954767
-1954701
-1954756
-1955162
-1955111
-1954941
-1954748
-1954409
-1955236
-1955473
-1955288
-1955216
-1954752
-1955604
-1955620
-1955320
-1955264
-1955443
-1956086
-1956022
-1955908
-1955647
-1955985
-1956355
-1956280
-1955984
-1955806
-1956252
-1956653
-1956815
-1956314
-1956290
-1957777
-1957263
-1957092
-1956832
-1956462
-1956749
-1957019
-1957044
-1956964
-1956841
-1956919
-1957196
-1957458
-1957183
-1957085
-1957146
-1957504
-1957544
-1957475
-1957120
-1957402
-1957558
-1957780
-1957501
-1957430
-1957793
-1958109
-1958145
-1958031
-1957917
-1958010
-1958458
-1958399
-1958106
-1958053
-1958334
-1958624
-1958875
-1958564
-1958486
-1958785
-1959131
-1959181
-1959019
-1958865
-1959119
-1959376
-1959428
-1959474
-1959215
-1959442
-1960014
-1959773
-1959775
-1959662
-1959888
-1960503
-1960579
-1960469
-1960264
-1960710
-1960986
-1961033
-1960852
-1960679
-1960854
-1961448
-1961766
-1961498
-1961295
-1961688
-1961872
-1962148
-1961978
-1961767
-1961824
-1962295
-1962381
-1962103
-1962149
-1962380
-1962709
-1962632
-1962516
-1962315
-1962549
-1963032
-1963231
-1963087
-1962741
-1962872
-1963479
-1963623
-1963428
-1963289
-1963536
-1963818
-1964099
-1964015
-1963748
-1964096
-1964315
-1964519
-1964461
-1964214
-1964403
-1964803
-1965017
-1964897
-1964793
-1964956
-1965505
-1965518
-1965318
-1965334
-1965401
-1965826
-1965860
-1965815
-1965741
-1966019
-1966438
-1966595
-1966367
-1966092
-1966219
-1966783
-1966927
-1966735
-1966097
-1966592
-1967072
-1966971
-1966870
-1966730
-1966851
-1967091
-1967053
-1966938
-1966654
-1966493
-1966702
-1966688
-1966116
-1965831
-1965611
-1965519
-1964990
-1964021
-1963173
-1962901
-1962708
-1961932
-1961096
-1960209
-1959703
-1959264
-1958414
-1957488
-1956549
-1955936
-1955590
-1955214
-1954226
-1953538
-1953002
-1952772
-1952449
-1951803
-1951049
-1950766
-1951980
-1950898
-1949965
-1949227
-1949245
-1949394
-1949153
-1948835
-1948356
-1948691
-1948682
-1948306
-1947669
-1948110
-1948393
-1948347
-1948256
-1948386
-1948289
-1948600
-1948948
-1948825
-1948730
-1948859
-1949358
-1949434
-1949503
-1949397
-1949468
-1949773
-1950010
-1950148
-1950093
-1950220
-1950753
-1950919
-1950664
-1950667
-1951025
-1951496
-1951525
-1951445
-1951221
-1951509
-1951838
-1952052
-1951985
-1951560
-1951864
-1951674
-1952243
-1951967
-1951550
-1951659
-1952127
-1952262
-1951992
-1951561
-1951414
-1951770
-1951760
-1951278
-1950729
-1950631
-1950807
-1950948
-1950467
-1949930
-1949820
-1949963
-1949875
-1949510
-1949230
-1948986
-1949085
-1949009
-1948825
-1948218
-1948290
-1948433
-1948398
-1947969
-1947752
-1947880
-1948310
-1948292
-1947969
-1947827
-1947961
-1948366
-1948634
-1948571
-1948235
-1948477
-1948915
-1949364
-1949190
-1949081
-1949299
-1949737
-1950190
-1950186
-1950143
-1950291
-1950561
-1950958
-1950988
-1950742
-1950868
-1951550
-1951695
-1951838
-1951622
-1951773
-1952348
-1952647
-1952454
-1952323
-1952507
-1952880
-1953267
-1952945
-1952675
-1953010
-1953466
-1953428
-1953511
-1953471
-1953503
-1953810
-1953927
-1954206
-1954321
-1954229
-1954052
-1954155
-1954461
-1954842
-1954557
-1954586
-1954820
-1955063
-1955421
-1955288
-1954911
-1955208
-1955386
-1955591
-1955764
-1955564
-1955735
-1956147
-1956259
-1956232
-1955965
-1956000
-1956652
-1956934
-1958222
-1956973
-1956941
-1957206
-1957414
-1957361
-1957431
-1957470
-1958007
-1958216
-1958316
-1958204
-1958070
-1958646
-1959005
-1958946
-1958821
-1958885
-1959356
-1959512
-1959476
-1959421
-1959553
-1960018
-1960365
-1960262
-1959609
-1960046
-1960516
-1960692
-1960681
-1960706
-1960790
-1961375
-1961449
-1961206
-1961010
-1961107
-1961773
-1961905
-1961807
-1961806
-1961905
-1962517
-1962625
-1962839
-1962388
-1962507
-1963186
-1963298
-1963303
-1963072
-1963331
-1963714
-1964174
-1964032
-1963925
-1963876
-1964496
-1964640
-1964610
-1964411
-1964516
-1965134
-1965276
-1965208
-1965081
-1965338
-1965691
-1966038
-1965963
-1965824
-1965817
-1966274
-1966715
-1966256
-1965748
-1965777
-1966155
-1966379
-1966224
-1965868
-1966283
-1966831
-1967054
-1966853
-1966719
-1966714
-1967094
-1967504
-1967609
-1967485
-1967689
-1968040
-1968185
-1968286
-1968024
-1968125
-1968845
-1969129
-1968956
-1969030
-1968933
-1969252
-1969699
-1969634
-1969311
-1969333
-1969793
-1970055
-1970088
-1969829
-1969696
-1970115
-1970364
-1970587
-1970404
-1970450
-1970661
-1971200
-1970851
-1970658
-1970863
-1971204
-1971487
-1971418
-1970660
-1971123
-1971616
-1972129
-1972190
-1972013
-1971945
-1972497
-1972544
-1972678
-1972520
-1972856
-1973271
-1973386
-1973319
-1973535
-1973799
-1974085
-1973849
-1973714
-1973950
-1974222
-1974630
-1974374
-1974111
-1974291
-1974720
-1974926
-1974311
-1974244
-1974356
-1974673
-1974877
-1974797
-1974474
-1974107
-1974712
-1974956
-1974906
-1974868
-1975055
-1974913
-1975235
-1975378
-1975125
-1975135
-1975479
-1975540
-1975792
-1975328
-1975551
-1975796
-1976250
-1976088
-1975800
-1975980
-1976237
-1976681
-1976512
-1976225
-1976376
-1976952
-1977142
-1977126
-1976865
-1976808
-1976716
-1977561
-1977534
-1977493
-1977461
-1978031
-1978271
-1978189
-1977931
-1978091
-1978505
-1978951
-1978809
-1978980
-1979036
-1979440
-1979744
-1979260
-1979592
-1979639
-1980122
-1980434
-1980439
-1980453
-1980369
-1980897
-1981210
-1981302
-1981012
-1981317
-1981663
-1982054
-1982172
-1982325
-1982659
-1982647
-1982994
-1983472
-1983316
-1983255
-1983407
-1983693
-1984152
-1984102
-1983943
-1983780
-1984449
-1984723
-1984651
-1984595
-1984428
-1984850
-1984906
-1984758
-1984431
-1984481
-1984700
-1985090
-1984912
-1984635
-1984434
-1984634
-1984897
-1984894
-1984297
-1984150
-1984052
-1984126
-1983591
-1982825
-1982609
-1982255
-1981926
-1981428
-1980432
-1979648
-1979232
-1978748
-1978106
-1977204
-1976455
-1976052
-1975435
-1974657
-1973639
-1973170
-1972775
-1972636
-1972051
-1971187
-1970809
-1970743
-1970428
-1970043
-1969495
-1969289
-1969401
-1969390
-1969044
-1968370
-1968299
-1968538
-1968633
-1968483
-1968181
-1967942
-1968403
-1968545
-1968477
-1968041
-1968207
-1968420
-1968775
-1968749
-1968654
-1968542
-1969095
-1969334
-1969371
-1969329
-1969519
-1969972
-1970471
-1970488
-1970457
-1970397
-1971067
-1971626
-1971803
-1971472
-1971824
-1972318
-1972832
-1972730
-1972665
-1972818
-1973333
-1973768
-1973791
-1973578
-1973573
-1974172
-1974566
-1974407
-1974852
-1974355
-1974580
-1974787
-1974913
-1974562
-1974416
-1974705
-1975089
-1974954
-1976451
-1974714
-1974545
-1974632
-1974499
-1974195
-1973822
-1973910
-1973956
-1973855
-1973403
-1973128
-1973457
-1973539
-1974897
-1973451
-1972818
-1972928
-1973032
-1972639
-1972244
-1971577
-1972044
-1972449
-1972366
-1972095
-1971879
-1972396
-1972653
-1972701
-1972480
-1972175
-1972710
-1973033
-1973144
-1973883
-1973186
-1973299
-1973656
-1973748
-1973662
-1973751
-1974132
-1974503
-1974326
-1974325
-1974228
-1974828
-1975197
-1975236
-1974851
-1974741
-1975098
-1975590
-1975601
-1975218
-1975226
-1975487
-1975735
-1975850
-1975599
-1975556
-1975655
-1976011
-1975926
-1975491
-1975537
-1975925
-1976020
-1975885
-1975601
-1975410
-1975675
-1976149
-1975919
-1975782
-1975606
-1975720
-1978002
-1976559
-1976350
-1976080
-1976295
-1976568
-1976397
-1976133
-1975827
-1976229
-1976453
-1976564
-1976077
-1976001
-1976225
-1976563
-1976549
-1976295
-1975988
-1976574
-1976762
-1976729
-1977119
-1976446
-1976542
-1976698
-1976733
-1976688
-1976616
-1976848
-1977190
-1977107
-1976489
-1976414
-1976735
-1977239
-1977019
-1976780
-1976697
-1977006
-1977274
-1977240
-1977088
-1976898
-1977408
-1977669
-1977471
-1977206
-1977312
-1977557
-1977812
-1977910
-1977712
-1977621
-1977816
-1978012
-1978298
-1977941
-1978029
-1978219
-1978580
-1978533
-1978236
-1978324
-1978801
-1978942
-1978908
-1978918
-1978629
-1978895
-1979483
-1979657
-1979178
-1979390
-1979632
-1979838
-1980142
-1979780
-1979735
-1980159
-1980635
-1980678
-1979753
-1980037
-1980744
-1981168
-1981202
-1980923
-1980836
-1981301
-1981504
-1981599
-1981402
-1981325
-1981698
-1982019
-1982231
-1982060
-1982131
-1982341
-1982723
-1982607
-1982594
-1982550
-1982687
-1982997
-1983263
-1982983
-1982947
-1983075
-1984244
-1983900
-1983405
-1983290
-1983367
-1983481
-1983416
-1983145
-1983281
-1983615
-1983893
-1983644
-1983559
-1983403
-1983625
-1983816
-1983806
-1983302
-1983354
-1983541
-1983741
-1983355
-1983311
-1983523
-1983910
-1983633
-1983397
-1983322
-1983408
-1983681
-1983744
-1983406
-1983245
-1983439
-1983603
-1983729
-1983464
-1983297
-1983648
-1983977
-1983826
-1983765
-1983585
-1983729
-1984127
-1984327
-1983963
-1983911
-1984090
-1984370
-1984619
-1984358
-1984199
-1984654
-1984846
-1984955
-1984741
-1984815
-1985096
-1985654
-1985530
-1985078
-1985055
-1985238
-1985695
-1985770
-1985396
-1985294
-1985515
-1987599
-1985968
-1985421
-1985275
-1985899
-1986326
-1986254
-1986117
-1986077
-1986120
-1986451
-1986685
-1986356
-1986352
-1986699
-1986939
-1986919
-1986770
-1986737
-1986744
-1987207
-1987160
-1987032
-1988152
-1987668
-1987834
-1987707
-1987478
-1987433
-1987718
-1987867
-1988091
-1987932
-1987243
-1987749
-1988236
-1988298
-1987947
-1987923
-1988235
-1988569
-1988430
-1988349
-1988119
-1988557
-1989026
-1988989
-1988760
-1988426
-1988899
-1989302
-1989065
-1988600
-1988880
-1988709
-1989480
-1989738
-1989425
-1989383
-1989732
-1989909
-1990176
-1989935
-1989790
-1989957
-1990214
-1990269
-1990229
-1989851
-1989700
-1989989
-1990989
-1989869
-1989242
-1988966
-1989038
-1988598
-1987858
-1987293
-1986385
-1986512
-1986094
-1984801
-1984402
-1984361
-1984303
-1983717
-1982946
-1982187
-1981867
-1981624
-1981413
-1980681
-1979474
-1979779
-1979941
-1980025
-1978985
-1980045
-1979269
-1979254
-1978459
-1979186
-1978279
-1978453
-1978444
-1978571
-1978187
-1977920
-1978052
-1978350
-1978367
-1978075
-1977878
-1977885
-1978289
-1978319
-1978028
-1977632
-1977951
-1978099
-1978153
-1977782
-1977537
-1977666
-1977941
-1978090
-1977879
-1977557
-1977617
-1978004
-1977830
-1977518
-1977301
-1977411
-1978141
-1977760
-1977348
-1976998
-1977166
-1977228
-1977409
-1977097
-1976651
-1976736
-1976890
-1976971
-1976597
-1976375
-1976404
-1976456
-1976390
-1976191
-1975816
-1975930
-1976025
-1975848
-1975627
-1975381
-1975244
-1975346
-1975275
-1974979
-1974706
-1974506
-1974804
-1974478
-1974202
-1973979
-1974106
-1974424
-1974183
-1973896
-1973615
-1973573
-1973973
-1974008
-1973504
-1973304
-1973424
-1973782
-1973998
-1973678
-1973672
-1973801
-1974220
-1974443
-1974277
-1974289
-1974478
-1974980
-1975251
-1975062
-1974588
-1975208
-1975601
-1975720
-1975540
-1975438
-1975679
-1976260
-1976588
-1976473
-1976121
-1976439
-1976871
-1976829
-1976739
-1976492
-1976830
-1977022
-1977120
-1977039
-1976841
-1977074
-1976919
-1977241
-1977039
-1977050
-1977244
-1977566
-1977572
-1977302
-1977234
-1977448
-1977854
-1977630
-1977446
-1977149
-1978768
-1978051
-1977945
-1977646
-1977227
-1977114
-1977647
-1977979
-1977772
-1977701
-1979076
-1978397
-1978264
-1978036
-1977808
-1977854
-1978414
-1978618
-1978489
-1978302
-1978353
-1980091
-1979323
-1978686
-1978669
-1978612
-1979241
-1979422
-1979105
-1978944
-1979253
-1979715
-1979844
-1979694
-1979861
-1980090
-1980538
-1980696
-1980547
-1980371
-1980697
-1981102
-1981088
-1980850
-1980986
-1981103
-1981445
-1981805
-1981763
-1981558
-1981827
-1982061
-1982243
-1981907
-1981998
-1982147
-1982618
-1982762
-1982744
-1982658
-1982897
-1983126
-1983385
-1983396
-1983134
-1983398
-1983822
-1984177
-1984055
-1984172
-1984357
-1984949
-1985011
-1984736
-1984678
-1985045
-1985381
-1985615
-1985520
-1985218
-1985661
-1986153
-1986162
-1986054
-1986038
-1986288
-1986701
-1986711
-1986433
-1986471
-1986607
-1986915
-1987141
-1986972
-1986755
-1986843
-1987193
-1987356
-1987107
-1987038
-1987169
-1987402
-1987685
-1987248
-1987164
-1987408
-1987793
-1987835
-1987584
-1987110
-1987614
-1987624
-1987884
-1987944
-1987877
-1987790
-1988400
-1988452
-1988000
-1987926
-1988027
-1988293
-1988440
-1988194
-1987966
-1987922
-1988359
-1988545
-1988280
-1987586
-1988149
-1988689
-1988720
-1988449
-1988339
-1987521
-1988551
-1988907
-1988621
-1988463
-1988603
-1988805
-1988896
-1988931
-1988709
-1988875
-1989252
-1989225
-1989074
-1988920
-1989198
-1989443
-1989630
-1989539
-1989472
-1989296
-1989999
-1989953
-1990008
-1989616
-1989904
-1990201
-1990306
-1990267
-1990225
-1989823
-1990718
-1990535
-1990810
-1990706
-1990979
-1991330
-1991468
-1991478
-1991172
-1991396
-1992025
-1992024
-1992106
-1991608
-1991878
-1992238
-1992616
-1992527
-1992273
-1992265
-1992771
-1992738
-1992647
-1992517
-1992671
-1993144
-1993337
-1992428
-1992674
-1992957
-1993268
-1993160
-1993152
-1992735
-1992828
-1993176
-1993651
-1993290
-1992685
-1992942
-1993196
-1993267
-1993060
-1992713
-1992739
-1993250
-1993407
-1993210
-1992975
-1993017
-1993036
-1992943
-1992668
-1992291
-1992402
-1992663
-1992375
-1992034
-1991407
-1991144
-1990799
-1990337
-1989711
-1988848
-1988067
-1987894
-1987186
-1986157
-1985361
-1984604
-1984264
-1983988
-1982979
-1982277
-1981761
-1981358
-1981187
-1980532
-1979810
-1979120
-1979014
-1978465
-1977833
-1977387
-1976846
-1976735
-1976379
-1975760
-1975550
-1975289
-1975428
-1975423
-1975098
-1974724
-1974700
-1974827
-1974282
-1974542
-1974324
-1974732
-1975137
-1975432
-1975215
-1974979
-1975121
-1975660
-1975723
-1975583
-1975231
-1975455
-1975622
-1975901
-1976019
-1975697
-1975906
-1976327
-1976658
-1976311
-1976227
-1976451
-1976924
-1977220
-1976905
-1976820
-1976751
-1976986
-1977229
-1976968
-1976461
-1976646
-1976986
-1977115
-1976683
-1976216
-1976337
-1976565
-1976248
-1976013
-1975804
-1975765
-1975738
-1975803
-1975276
-1974664
-1974497
-1974553
-1974721
-1974182
-1973688
-1973280
-1973564
-1973215
-1972667
-1972098
-1971861
-1972126
-1971896
-1971475
-1971116
-1970860
-1970965
-1970987
-1970701
-1970356
-1970364
-1970725
-1970638
-1970272
-1970019
-1970033
-1970482
-1970800
-1970544
-1970455
-1970689
-1970980
-1971218
-1971084
-1970959
-1971103
-1971822
-1971874
-1971841
-1971548
-1971829
-1972510
-1972546
-1972398
-1972354
-1972296
-1972703
-1972957
-1972954
-1972690
-1972863
-1973378
-1973620
-1973549
-1973248
-1973460
-1973692
-1973802
-1973598
-1973457
-1973583
-1973987
-1974211
-1974105
-1973812
-1973872
-1974188
-1974176
-1973896
-1973731
-1973778
-1974029
-1974090
-1974051
-1973764
-1973795
-1973916
-1973911
-1973690
-1973289
-1972866
-1973510
-1974049
-1973685
-1973353
-1973249
-1973688
-1973666
-1973468
-1972793
-1973104
-1973551
-1973817
-1973666
-1973443
-1973554
-1973936
-1973977
-1973895
-1973535
-1973674
-1974131
-1974056
-1974276
-1973909
-1974120
-1974307
-1974512
-1974599
-1974444
-1974541
-1975033
-1975261
-1976327
-1975130
-1974861
-1975400
-1975351
-1975463
-1975194
-1975207
-1975558
-1975882
-1975594
-1975530
-1975568
-1975969
-1976295
-1976016
-1975721
-1975911
-1976213
-1976502
-1976366
-1976207
-1976176
-1976635
-1976841
-1976845
-1976652
-1976640
-1977140
-1977470
-1977394
-1976521
-1976975
-1977365
-1977720
-1977639
-1977177
-1977339
-1977726
-1977515
-1976991
-1976368
-1976336
-1976549
-1976430
-1976270
-1975796
-1975568
-1975767
-1975621
-1975566
-1975382
-1975142
-1975333
-1975463
-1975281
-1974944
-1974771
-1975164
-1975443
-1975097
-1974838
-1975079
-1975509
-1975594
-1975037
-1975170
-1975434
-1975824
-1975773
-1975696
-1975658
-1975705
-1975893
-1976139
-1976266
-1975966
-1976013
-1976618
-1976935
-1976927
-1976713
-1976866
-1977165
-1977400
-1977436
-1977384
-1977578
-1977936
-1978274
-1978458
-1978254
-1978347
-1978862
-1979244
-1978981
-1978665
-1979031
-1979441
-1979727
-1979751
-1979467
-1979480
-1979924
-1980360
-1980384
-1980164
-1979755
-1980260
-1980671
-1980658
-1980384
-1980587
-1980990
-1981242
-1981058
-1980985
-1981051
-1981325
-1983390
-1981963
-1983057
-1982961
-1983653
-1982377
-1981946
-1981549
-1981529
-1982126
-1982205
-1982278
-1982170
-1982027
-1982343
-1982937
-1982813
-1982613
-1982919
-1983243
-1983704
-1983703
-1983525
-1983570
-1984039
-1984486
-1984568
-1984230
-1984365
-1984716
-1985140
-1985160
-1984849
-1984812
-1985277
-1985404
-1985364
-1985098
-1985167
-1985128
-1985750
-1985906
-1985526
-1985550
-1986026
-1986203
-1986027
-1985757
-1986098
-1986524
-1986173
-1986743
-1986752
-1986863
-1987633
-1987929
-1988038
-1987990
-1988283
-1988580
-1989164
-1989056
-1988827
-1988919
-1989317
-1989731
-1989869
-1989799
-1989634
-1990197
-1990601
-1990401
-1990135
-1990233
-1990446
-1990900
-1990849
-1990619
-1990763
-1991174
-1991682
-1991557
-1991228
-1991350
-1991685
-1991966
-1992105
-1991927
-1991863
-1992500
-1992741
-1992610
-1992569
-1992360
-1992879
-1992665
-1992837
-1992601
-1992509
-1992958
-1993091
-1992991
-1992635
-1992683
-1992938
-1993100
-1992619
-1992264
-1991713
-1991685
-1991406
-1990913
-1990147
-1989723
-1989368
-1989083
-1988459
-1987471
-1986865
-1986307
-1985959
-1985048
-1984174
-1983711
-1983430
-1983023
-1982288
-1981438
-1980681
-1980684
-1980561
-1979924
-1979313
-1978923
-1978666
-1978591
-1978238
-1977796
-1977501
-1977512
-1977540
-1977618
-1977096
-1977088
-1977189
-1977501
-1977373
-1977298
-1977268
-1977631
-1977976
-1978012
-1977643
-1977785
-1978108
-1978645
-1978734
-1978346
-1978777
-1979097
-1979693
-1979861
-1979613
-1979859
-1980347
-1980749
-1980861
-1980862
-1980805
-1981134
-1981619
-1981848
-1981818
-1981821
-1982214
-1982603
-1982779
-1982304
-1982298
-1982728
-1983101
-1983137
-1982983
-1982872
-1983276
-1983348
-1983250
-1983153
-1983187
-1983259
-1983618
-1983588
-1983123
-1982713
-1983131
-1983321
-1983084
-1982500
-1982384
-1982307
-1982599
-1982432
-1981792
-1980990
-1981572
-1981560
-1981527
-1980960
-1980734
-1980899
-1980932
-1980821
-1980293
-1980262
-1980407
-1980568
-1980265
-1979950
-1979813
-1980277
-1980345
-1980567
-1980110
-1980045
-1980572
-1981016
-1980900
-1980799
-1980738
-1981094
-1981513
-1981490
-1981223
-1981310
-1981727
-1982327
-1982408
-1982053
-1982202
-1982540
-1982796
-1982990
-1982906
-1982755
-1983159
-1983403
-1983431
-1982974
-1983032
-1983349
-1983632
-1983654
-1983189
-1983846
-1983404
-1983571
-1983564
-1983247
-1983051
-1983322
-1983259
-1984319
-1982553
-1982739
-1982735
-1982845
-1982818
-1982254
-1982091
-1982436
-1982990
-1983082
-1982550
-1982581
-1982657
-1982914
-1982738
-1982380
-1982275
-1982741
-1983032
-1983013
-1982455
-1982330
-1982519
-1982889
-1982607
-1982393
-1982384
-1982432
-1982715
-1982698
-1982211
-1982228
-1982528
-1982811
-1982543
-1982167
-1982136
-1982313
-1982580
-1982530
-1982279
-1982102
-1982413
-1982916
-1983061
-1982613
-1982589
-1982922
-1983101
-1982897
-1982674
-1982783
-1983192
-1983291
-1983544
-1983145
-1982980
-1983460
-1983898
-1983774
-1983467
-1983404
-1983840
-1984076
-1984120
-1983824
-1983737
-1984082
-1984285
-1984464
-1984765
-1984780
-1984490
-1984542
-1985081
-1985327
-1985307
-1986774
-1985576
-1985547
-1985669
-1985781
-1985612
-1985304
-1985535
-1986041
-1985998
-1985944
-1985909
-1985987
-1986507
-1986386
-1986458
-1986462
-1986624
-1986976
-1986990
-1986766
-1986837
-1987257
-1987666
-1987737
-1987307
-1987460
-1987785
-1988352
-1988306
-1988288
-1988111
-1988576
-1990329
-1989946
-1989322
-1989158
-1989408
-1989857
-1990120
-1989958
-1989852
-1990097
-1990685
-1990937
-1990750
-1990796
-1991210
-1991459
-1991697
-1991510
-1991573
-1992024
-1992286
-1992570
-1992128
-1992074
-1992600
-1993204
-1993383
-1992978
-1993170
-1993354
-1993662
-1993821
-1993680
-1993629
-1993897
-1994006
-1994272
-1994194
-1993942
-1994425
-1994849
-1994863
-1994511
-1994357
-1994561
-1994903
-1995116
-1994969
-1994783
-1995162
-1995571
-1995501
-1995277
-1995171
-1995659
-1995984
-1996046
-1995695
-1995561
-1995855
-1996313
-1996433
-1996031
-1996419
-1996949
-1997084
-1996812
-1996687
-1996878
-1997554
-1997669
-1997325
-1997202
-1999549
-1998557
-1998417
-1998015
-1998122
-1998318
-1998626
-1998705
-1998567
-1998454
-1998918
-1999373
-1999476
-1999165
-1999090
-1999164
-1999345
-1999515
-1999210
-1998953
-1999242
-1999755
-1999922
-1999532
-1999406
-1999740
-2000237
-2000142
-2000036
-1999838
-2000171
-2000586
-2000610
-2000294
-2000222
-2000324
-2000782
-2000750
-2000460
-2000285
-2000498
-2000914
-2000814
-2000552
-2000369
-2000806
-2001205
-2001156
-2000676
-2000409
-2000618
-2001040
-2000887
-2000660
-2000117
-2000615
-2000889
-2001019
-2000529
-2000620
-2000855
-2001053
-2000968
-2002123
-2001138
-2001049
-2001330
-2001160
-2000273
-2000742
-2001029
-2001414
-2001249
-2000992
-2000914
-2001107
-2001692
-2001812
-2001431
-2001250
-2003246
-2002466
-2002135
-2001891
-2001793
-2002005
-2002469
-2002375
-2002089
-2002058
-2002158
-2002494
-2002591
-2003575
-2002600
-2002872
-2002947
-2002975
-2002717
-2002763
-2002888
-2003298
-2003372
-2003055
-2003029
-2003312
-2003468
-2003584
-2003192
-2003370
-2003323
-2003603
-2003782
-2003289
-2003276
-2003414
-2003491
-2003757
-2003218
-2003164
-2003334
-2003561
-2003479
-2003164
-2002669
-2002768
-2002827
-2002115
-2001761
-2001562
-2001356
-2001086
-2000578
-1999856
-1999127
-1998537
-1998157
-1997648
-1996552
-1995817
-1995282
-1994926
-1994172
-1993101
-1992194
-1992075
-1991705
-1990989
-1990173
-1989495
-1989154
-1988935
-1988741
-1988034
-1987600
-1987380
-1987565
-1987365
-1986778
-1986224
-1986135
-1986524
-1986493
-1986258
-1985891
-1986109
-1986124
-1986401
-1986158
-1985834
-1986233
-1986410
-1986710
-1986557
-1986459
-1986499
-1986889
-1987021
-1986865
-1986879
-1987188
-1987770
-1987995
-1987826
-1987369
-1988018
-1988381
-1988519
-1988577
-1988536
-1988689
-1989014
-1989224
-1988968
-1989002
-1989323
-1989770
-1990000
-1989734
-1989433
-1989654
-1990067
-1990018
-1989962
-1989795
-1989976
-1990238
-1990234
-1989889
-1989702
-1989752
-1990013
-1989992
-1989893
-1989626
-1989747
-1989770
-1989791
-1989429
-1989103
-1988980
-1989149
-1989240
-1988791
-1988266
-1988456
-1988876
-1988564
-1988151
-1987758
-1987869
-1988011
-1987911
-1987529
-1987053
-1987066
-1987483
-1987591
-1987009
-1986914
-1987022
-1987479
-1987464
-1987409
-1987119
-1987276
-1987747
-1986557
-1987172
-1987654
-1987844
-1988425
-1988605
-1988509
-1988564
-1988761
-1989301
-1989363
-1989250
-1988621
-1989240
-1989686
-1990081
-1989822
-1989731
-1990010
-1990430
-1990647
-1990312
-1990227
-1990584
-1991084
-1991052
-1990876
-1990682
-1991096
-1991565
-1991497
-1991265
-1990991
-1991231
-1991676
-1991818
-1991405
-1991353
-1991659
-1992119
-1991912
-1991967
-1991844
-1991956
-1992385
-1992238
-1991836
-1991642
-1991884
-1992273
-1992192
-1992161
-1992055
-1992124
-1992405
-1992555
-1992459
-1992163
-1992160
-1992782
-1992878
-1992485
-1992468
-1992519
-1992932
-1993241
-1992998
-1992846
-1993109
-1993461
-1992960
-1993029
-1993940
-1993510
-1994807
-1994392
-1993901
-1993708
-1993924
-1994473
-1994475
-1994404
-1994356
-1994615
-1994989
-1995147
-1994683
-1994680
-1994909
-1995372
-1995700
-1995539
-1995505
-1995569
-1995696
-1995973
-1995855
-1995463
-1995704
-1996085
-1996104
-1996011
-1995625
-1995895
-1996366
-1996386
-1996057
-1996035
-1996096
-1996622
-1996655
-1996631
-1996403
-1996684
-1997057
-1997252
-1996974
-1996648
-1997064
-1997478
-1997773
-1997545
-1997434
-1997449
-1997810
-1998248
-1999429
-1998277
-1998094
-1998638
-1998849
-1998810
-1998645
-1998705
-1999242
-1999285
-1999082
-1998557
-1999154
-1999535
-1999631
-1999617
-1999275
-1999598
-2000066
-2000249
-1999935
-1999674
-1999470
-2000021
-2000238
-2000168
-2000079
-2000017
-2000327
-2000682
-2000456
-2000356
-2000438
-2001109
-2001046
-2000973
-2000886
-2000860
-2001420
-2001471
-2001202
-2001200
-2001326
-2001761
-2002273
-2002013
-2001632
-2002014
-2002220
-2002521
-2002418
-2002434
-2002404
-2002760
-2003120
-2002933
-2002565
-2002864
-2003246
-2003389
-2003269
-2003063
-2003207
-2003621
-2003726
-2003695
-2003479
-2003720
-2004026
-2004075
-2003719
-2003565
-2003783
-2004224
-2004431
-2004034
-2003908
-2003912
-2004271
-2004509
-2004081
-2003734
-2004003
-2004419
-2004671
-2004197
-2004059
-2004265
-2004713
-2004801
-2004662
-2004444
-2004606
-2004693
-2005046
-2005021
-2004784
-2004785
-2005351
-2005271
-2005165
-2005198
-2005304
-2005653
-2005994
-2005876
-2005790
-2005860
-2006180
-2006496
-2006034
-2005830
-2006157
-2006564
-2006858
-2006645
-2006534
-2006505
-2007081
-2007016
-2006929
-2006809
-2006826
-2007318
-2007276
-2007225
-2007007
-2007052
-2007639
-2007652
-2007536
-2007255
-2007392
-2007553
-2007819
-2007628
-2007279
-2007513
-2007997
-2008214
-2007891
-2007580
-2007716
-2007846
-2007987
-2008057
-2007860
-2007821
-2008220
-2008434
-2008145
-2007779
-2007778
-2008358
-2008712
-2008363
-2008217
-2008099
-2008656
-2008359
-2008310
-2008143
-2008414
-2008716
-2008959
-2008587
-2008619
-2008544
-2009158
-2009000
-2008797
-2008639
-2008706
-2009102
-2009408
-2009233
-2008761
-2008999
-2008894
-2009394
-2009137
-2008956
-2009120
-2009360
-2009515
-2009171
-2008908
-2009161
-2009490
-2011093
-2009719
-2009451
-2009203
-2009550
-2009453
-2009419
-2009127
-2008873
-2009099
-2009115
-2008455
-2008138
-2009117
-2008206
-2007627
-2006660
-2006124
-2005625
-2005210
-2004721
-2003915
-2003284
-2002873
-2002470
-2002182
-2001312
-2000375
-1999812
-1999850
-1999413
-1998643
-1997925
-1997799
-1997564
-1997416
-1996647
-1996380
-1995955
-1995843
-1995950
-1996523
-1995430
-1995025
-1995172
-1994530
-1994854
-1994449
-1993989
-1994336
-1994549
-1994462
-1994532
-1994871
-1995124
-1995032
-1994964
-1995239
-1995747
-1996022
-1996063
-1995827
-1995896
-1996378
-1997007
-1996965
-1996837
-1997077
-1997686
-1997769
-1997917
-1997748
-1997824
-1998552
-1998884
-1998757
-1998651
-1998685
-1999176
-1999429
-1999087
-1998885
-1998895
-1999181
-1999411
-1999187
-1999053
-1998760
-1999317
-1999334
-1998912
-1998739
-1998581
-1998805
-1998792
-1998682
-1998129
-1998045
-1998435
-1998167
-1997707
-1997310
-1997421
-1997485
-1997581
-1997078
-1997529
-1996774
-1997026
-1997146
-1996748
-1996432
-1997168
-1996877
-1997019
-1996642
-1996480
-1996474
-1996895
-1997324
-1997093
-1997084
-1997071
-1997707
-1998053
-1998032
-1997957
-1997921
-1998415
-1998928
-1998648
-1998708
-1998779
-1999262
-1999475
-1999423
-1999286
-1999321
-1999829
-2000231
-2000153
-1999893
-1999988
-2000294
-2000428
-2000544
-2000274
-2000388
-2000813
-2001078
-2000601
-2000391
-2000219
-2000754
-2000886
-2000970
-2000493
-2000801
-2001066
-2001198
-2000959
-2000737
-2000752
-2001152
-2001076
-2001018
-2000919
-2000917
-2001369
-2001334
-2001211
-2001073
-2001027
-2001188
-2001667
-2001491
-2001144
-2001076
-2001645
-2001765
-2001767
-2001577
-2001662
-2001963
-2002039
-2002055
-2001615
-2001346
-2001862
-2002168
-2001523
-2001782
-2001941
-2002275
-2002387
-2004520
-2002850
-2002182
-2002627
-2002946
-2002328
-2002128
-2002208
-2002842
-2003113
-2002899
-2002850
-2002986
-2003205
-2003586
-2003383
-2002741
-2003349
-2003958
-2004147
-2004268
-2004028
-2003855
-2004359
-2004703
-2004755
-2004601
-2004683
-2005151
-2005244
-2005326
-2005216
-2005157
-2005497
-2005710
-2005758
-2005680
-2006268
-2006673
-2006436
-2006405
-2006553
-2006716
-2006956
-2006974
-2006511
-2006509
-2006601
-2007195
-2007039
-2006682
-2006836
-2007055
-2007413
-2007242
-2006846
-2007058
-2007312
-2007542
-2007517
-2007215
-2007072
-2007629
-2008493
-2007739
-2007452
-2007688
-2008020
-2008157
-2008268
-2007781
-2007864
-2008136
-2008580
-2008470
-2007810
-2008213
-2008753
-2008847
-2008434
-2008449
-2008677
-2009004
-2009221
-2008995
-2008658
-2008729
-2009050
-2009222
-2008938
-2008880
-2008787
-2009179
-2009311
