PPG
-1092112
-1092082
-1092129
-1091996
-1092002
-1092038
-1092117
-1091906
-1091803
-1091863
-1091873
-1091738
-1091636
-1091652
-1091544
-1091503
-1091420
-1091455
-1091478
-1091444
-1091352
-1091361
-1091275
-1091177
-1091150
-1091106
-1091095
-1091185
-1091046
-1091199
-1091297
-1091315
-1091422
-1091343
-1091485
-1091520
-1091631
-1091735
-1091826
-1091945
-1092241
-1092402
-1092576
-1092680
-1092751
-1092842
-1092968
-1093001
-1093140
-1093433
-1093709
-1093943
-1094025
-1094134
-1095198
-1094915
-1094976
-1095082
-1095145
-1094970
-1095352
-1095622
-1095861
-1095994
-1096167
-1096310
-1096549
-1096636
-1096677
-1096944
-1097248
-1097431
-1097691
-1097807
-1097989
-1098355
-1098453
-1098597
-1098874
-1099060
-1099314
-1099590
-1099703
-1099829
-1099798
-1100343
-1100614
-1100868
-1101100
-1101435
-1101729
-1102110
-1102188
-1102451
-1102698
-1102797
-1103099
-1103188
-1103162
-1103213
-1103400
-1104291
-1104715
-1103980
-1103807
-1103847
-1103926
-1103956
-1103957
-1103899
-1104275
-1104451
-1104633
-1104707
-1104828
-1104914
-1105050
-1105116
-1105262
-1105327
-1105583
-1105680
-1105732
-1105739
-1105616
-1106110
-1106309
-1106412
-1106354
-1106506
-1106784
-1107112
-1107242
-1107337
-1107531
-1107858
-1108125
-1108205
-1108388
-1108629
-1108843
-1109103
-1109236
-1109479
-1109649
-1109850
-1110081
-1110282
-1110449
-1110701
-1110864
-1111293
-1111485
-1111588
-1111696
-1111965
-1112191
-1112382
-1112656
-1112870
-1113161
-1113444
-1113313
-1113675
-1114023
-1114328
-1114772
-1114994
-1115082
-1115159
-1115446
-1115792
-1116138
-1116385
-1116468
-1116857
-1117075
-1117496
-1117802
-1118103
-1118396
-1118767
-1119165
-1119408
-1119666
-1120266
-1120679
-1120958
-1121266
-1121519
-1121938
-1122375
-1122595
-1122869
-1122983
-1123419
-1123807
-1123890
-1124048
-1124204
-1124345
-1124614
-1124584
-1124815
-1124722
-1124684
-1124735
-1124649
-1124704
-1124599
-1124538
-1124697
-1124606
-1124242
-1124411
-1124641
-1124604
-1124681
-1124645
-1124606
-1124694
-1124875
-1124924
-1124916
-1124979
-1125051
-1125269
-1125271
-1125401
-1125608
-1125791
-1125808
-1126029
-1126037
-1126326
-1126693
-1126926
-1127291
-1127503
-1127859
-1128356
-1128890
-1129404
-1129810
-1130227
-1130916
-1131377
-1131906
-1132508
-1133135
-1133816
-1134470
-1134873
-1135497
-1136115
-1136897
-1137498
-1138205
-1138667
-1139260
-1140093
-1140760
-1141321
-1141744
-1142340
-1142982
-1143725
-1144455
-1145040
-1145700
-1146297
-1146926
-1147559
-1148014
-1148451
-1148986
-1149522
-1149770
-1150034
-1150491
-1150755
-1150794
-1151101
-1151350
-1151213
-1150712
-1150636
-1150272
-1150111
-1149970
-1149929
-1150073
-1150221
-1150449
-1150621
-1150877
-1151620
-1151246
-1151190
-1151255
-1151281
-1151372
-1151178
-1150891
-1150939
-1151039
-1150963
-1151050
-1150991
-1150849
-1150860
-1150998
-1150943
-1150980
-1151082
-1151136
-1151173
-1151107
-1150931
-1151011
-1151057
-1151021
-1150953
-1150972
-1150925
-1151090
-1151122
-1151071
-1150969
-1150945
-1151244
-1151407
-1151445
-1151447
-1151332
-1151299
-1151421
-1151266
-1151157
-1150975
-1150999
-1150744
-1150630
-1150493
-1150462
-1150166
-1150025
-1150003
-1149987
-1149831
-1149710
-1149722
-1150270
-1149697
-1149521
-1149469
-1149398
-1149324
-1149034
-1148913
-1149077
-1149022
-1148962
-1148963
-1148838
-1148890
-1148922
-1148977
-1148833
-1148825
-1148911
-1148948
-1148771
-1148773
-1148643
-1148715
-1148850
-1148752
-1148666
-1148504
-1148647
-1148436
-1148370
-1148191
-1148114
-1147797
-1148006
-1147851
-1147733
-1147738
-1147689
-1147621
-1147590
-1147397
-1147260
-1147195
-1147193
-1146984
-1146917
-1146805
-1146891
-1146917
-1146954
-1146834
-1146829
-1146987
-1147062
-1146907
-1146776
-1146869
-1146804
-1146908
-1146747
-1146729
-1146694
-1146760
-1146802
-1146624
-1147442
-1146806
-1146671
-1146566
-1146584
-1146538
-1146461
-1146451
-1146464
-1146355
-1146334
-1146341
-1146315
-1146284
-1146316
-1146372
-1146373
-1146366
-1146494
-1146441
-1146378
-1146391
-1146334
-1146294
-1146210
-1145997
-1145999
-1145885
-1145790
-1145769
-1145557
-1145485
-1145420
-1145329
-1145100
-1145040
-1145009
-1145332
-1144956
-1144804
-1144691
-1144554
-1144435
-1144209
-1143955
-1143760
-1143722
-1143694
-1143608
-1143427
-1142950
-1143053
-1143100
-1143140
-1142877
-1142735
-1142607
-1142739
-1142703
-1142580
-1142520
-1142493
-1142456
-1142380
-1142317
-1142342
-1142242
-1142268
-1142146
-1142119
-1142099
-1142138
-1142185
-1142066
-1141986
-1141922
-1141859
-1141845
-1141800
-1141646
-1141844
-1141779
-1141708
-1141610
-1141575
-1141523
-1141614
-1141556
-1141566
-1141419
-1141323
-1141428
-1141383
-1141354
-1141297
-1141148
-1141165
-1141248
-1141123
-1141013
-1141035
-1140978
-1141006
-1140833
-1140608
-1140545
-1140478
-1140294
-1140213
-1139984
-1139922
-1139748
-1139814
-1139726
-1139549
-1139467
-1139587
-1139608
-1139493
-1139468
-1139547
-1139658
-1139575
-1139695
-1139781
-1139763
-1139820
-1139780
-1139781
-1139655
-1139763
-1139746
-1139693
-1139618
-1139640
-1139669
-1139526
-1139579
-1139341
-1139282
-1139247
-1139254
-1139356
-1139255
-1139259
-1139274
-1139297
-1139152
-1139154
-1139105
-1139157
-1139106
-1139093
-1139026
-1139021
-1138826
-1138974
-1138919
-1138837
-1138731
-1138707
-1138709
-1138584
-1138547
-1138521
-1138476
-1138505
-1138603
-1138569
-1138432
-1138385
-1138521
-1138518
-1138533
-1138444
-1138585
-1138565
-1138275
-1138346
-1138361
-1138422
-1138419
-1138388
-1138312
-1138936
-1138310
-1138132
-1138106
-1137962
-1137803
-1137592
-1137678
-1137738
-1137663
-1137565
-1137666
-1137697
-1137676
-1137449
-1137494
-1137033
-1137359
-1137331
-1137339
-1137191
-1137137
-1137105
-1137134
-1136948
-1136854
-1137000
-1136995
-1137438
-1137177
-1136971
-1136966
-1137071
-1137263
-1137234
-1137157
-1137217
-1137384
-1137546
-1137408
-1137427
-1137403
-1137542
-1137592
-1137512
-1137461
-1137323
-1137388
-1137348
-1137246
-1137134
-1137188
-1137274
-1137357
-1137306
-1137205
-1137213
-1137149
-1137292
-1137189
-1136988
-1136939
-1137103
-1137118
-1137033
-1137135
-1137205
-1137140
-1137263
-1137101
-1137077
-1137208
-1137125
-1137140
-1137148
-1136985
-1136991
-1136920
-1136849
-1136837
-1136500
-1136491
-1136434
-1136280
-1136213
-1135895
-1135756
-1135517
-1135471
-1135106
-1134866
-1134620
-1134432
-1134287
-1134124
-1133907
-1133664
-1133470
-1133380
-1133066
-1132786
-1132576
-1132319
-1132196
-1131898
-1131332
-1131295
-1131132
-1131025
-1130762
-1130629
-1130366
-1130349
-1130455
-1130162
-1129996
-1130012
-1130060
-1130018
-1129967
-1129968
-1130059
-1130174
-1130054
-1130265
-1130269
-1130323
-1130590
-1130635
-1130644
-1130606
-1130647
-1130856
-1130917
-1131098
-1131333
-1131438
-1131682
-1131887
-1131947
-1131992
-1132149
-1132513
-1133007
-1133193
-1133319
-1133626
-1134033
-1134404
-1134642
-1134865
-1135080
-1135312
-1135640
-1135699
-1135761
-1135783
-1135822
-1135922
-1135821
-1135577
-1135591
-1135364
-1135147
-1135085
-1134967
-1134762
-1134812
-1134724
-1134696
-1134566
-1134310
-1134560
-1134615
-1134749
-1134832
-1135063
-1135136
-1135259
-1135382
-1135339
-1135451
-1135654
-1135626
-1135543
-1135529
-1135625
-1135740
-1135911
-1135698
-1135703
-1135704
-1135770
-1135784
-1135711
-1135622
-1135563
-1135550
-1135485
-1135515
-1135425
-1135315
-1135378
-1135304
-1135256
-1135356
-1135363
-1135567
-1135462
-1135419
-1135448
-1135620
-1135797
-1135893
-1135753
-1135548
-1135666
-1135824
-1135994
-1136138
-1136244
-1136263
-1136594
-1136832
-1137125
-1137150
-1137358
-1137308
-1137662
-1137866
-1137952
-1138108
-1138450
-1138595
-1138684
-1138961
-1138985
-1139261
-1139549
-1139733
-1139832
-1140076
-1140358
-1140493
-1140511
-1140551
-1140667
-1140772
-1140958
-1140794
-1140924
-1140892
-1140858
-1140991
-1140845
-1140905
-1140859
-1140929
-1140759
-1140764
-1140567
-1140660
-1140549
-1140515
-1140977
-1140389
-1140242
-1140128
-1140101
-1140003
-1139938
-1139985
-1139954
-1139973
-1139931
-1139767
-1139628
-1139632
-1139672
-1139684
-1139591
-1139681
-1139690
-1139677
-1139743
-1139692
-1139711
-1139568
-1139541
-1139554
-1139365
-1139287
-1139320
-1139280
-1139250
-1139174
-1139118
-1139140
-1139175
-1138975
-1138814
-1138598
-1138877
-1138912
-1138841
-1138643
-1138668
-1138799
-1138904
-1138794
-1138751
-1138813
-1138833
-1138896
-1139012
-1139094
-1139157
-1139385
-1139678
-1139824
-1139903
-1140084
-1140311
-1140576
-1140580
-1140908
-1141080
-1140948
-1141134
-1141432
-1141363
-1141483
-1141713
-1141840
-1141822
-1141954
-1142055
-1142203
-1142233
-1142425
-1142561
-1142686
-1142894
-1143082
-1143141
-1143343
-1143531
-1143745
-1143955
-1144197
-1144396
-1144634
-1144831
-1144857
-1144882
-1144955
-1145263
-1145324
-1145431
-1145501
-1145547
-1145604
-1145846
-1145914
-1145995
-1146116
-1146246
-1146557
-1146796
-1146823
-1146977
-1147233
-1147497
-1147722
-1148094
-1148270
-1148369
-1148728
-1148934
-1148996
-1149184
-1149441
-1149697
-1149911
-1150008
-1150179
-1150278
-1150597
-1150750
-1151074
-1151176
-1151303
-1151613
-1151830
-1151988
-1152034
-1152188
-1152443
-1152578
-1152683
-1152864
-1153044
-1153198
-1153376
-1153511
-1153629
-1153832
-1154074
-1154325
-1154491
-1154518
-1154692
-1155111
-1155186
-1155354
-1155511
-1155581
-1155670
-1155763
-1155877
-1155878
-1156065
-1156083
-1156109
-1155997
-1155954
-1155884
-1156067
-1155855
-1155961
-1155738
-1155724
-1155751
-1155828
-1155639
-1155561
-1155503
-1155551
-1155483
-1155472
-1155319
-1155351
-1155347
-1155128
-1155030
-1155031
-1154875
-1154830
-1154654
-1154532
-1154389
-1154476
-1154124
-1154059
-1153740
-1153618
-1153595
-1153432
-1153225
-1153023
-1152931
-1152774
-1152642
-1152256
-1152168
-1152105
-1151911
-1151696
-1151611
-1151501
-1151300
-1151077
-1150938
-1150674
-1150470
-1150013
-1150222
-1150109
-1150024
-1149723
-1149752
-1149496
-1149400
-1149281
-1148759
-1148694
-1148722
-1148721
-1148573
-1148533
-1148448
-1148403
-1148468
-1148292
-1147965
-1148245
-1148112
-1148131
-1148238
-1148087
-1148088
-1148129
-1148003
-1148025
-1147965
-1147840
-1147914
-1147842
-1147750
-1147623
-1147745
-1147710
-1147853
-1147681
-1147738
-1147668
-1147721
-1147702
-1147820
-1147761
-1147739
-1147618
-1147684
-1147781
-1147770
-1147787
-1147731
-1147814
-1147754
-1147781
-1147773
-1147829
-1147841
-1147743
-1147838
-1147905
-1147888
-1147908
-1147901
-1147760
-1147804
-1147813
-1147933
-1147855
-1147796
-1147750
-1147755
-1147734
-1147627
-1147631
-1147530
-1147367
-1147243
-1147005
-1146964
-1146762
-1146637
-1146561
-1146249
-1146060
-1146546
-1145841
-1145542
-1145139
-1144844
-1144652
-1144468
-1144104
-1143801
-1143450
-1143192
-1142965
-1142664
-1142317
-1141850
-1141580
-1141280
-1140890
-1140462
-1140101
-1139781
-1139519
-1139042
-1138398
-1138044
-1137633
-1137260
-1136709
-1136309
-1135698
-1135454
-1135172
-1134726
-1134324
-1133901
-1133569
-1133285
-1133004
-1132734
-1132216
-1131912
-1131713
-1132523
-1131656
-1131215
-1131111
-1130937
-1130766
-1130580
-1130630
-1130682
-1130723
-1130725
-1130564
-1130503
-1130651
-1130791
-1130961
-1131051
-1131116
-1131224
-1131534
-1131610
-1131685
-1131902
-1131997
-1132155
-1132321
-1132506
-1132484
-1132577
-1132774
-1132942
-1132891
-1132908
-1133036
-1133255
-1133338
-1133378
-1133353
-1133484
-1133457
-1133560
-1133636
-1133526
-1133617
-1133742
-1133848
-1133877
-1133940
-1133815
-1134013
-1134032
-1134009
-1133958
-1134019
-1134001
-1134096
-1134004
-1133905
-1133948
-1133909
-1134071
-1133901
-1133764
-1133886
-1133822
-1133726
-1133778
-1133780
-1133655
-1133745
-1133612
-1133532
-1133566
-1133491
-1133556
-1133533
-1133544
-1133506
-1133561
-1133535
-1133659
-1133322
-1133539
-1133596
-1133547
-1133669
-1133627
-1133754
-1133704
-1133991
-1134068
-1134141
-1134149
-1134161
-1134387
-1134407
-1134487
-1134333
-1134543
-1134588
-1134592
-1134510
-1134473
-1134453
-1134517
-1134660
-1135566
-1134843
-1134419
-1134673
-1134642
-1134520
-1134639
-1134939
-1135295
-1135458
-1135585
-1135638
-1135643
-1135750
-1135793
-1135592
-1135522
-1135443
-1135471
-1135630
-1135820
-1135806
-1135851
-1135858
-1135988
-1135971
-1136013
-1135881
-1135954
-1136108
-1136667
-1136034
-1135853
-1136021
-1135991
-1135878
-1135882
-1135977
-1135944
-1136038
-1136094
-1136076
-1136133
-1136185
-1136248
-1136201
-1136157
-1136363
-1136520
-1136512
-1136462
-1136539
-1136699
-1136865
-1136982
-1137922
-1137255
-1137175
-1137288
-1137305
-1137315
-1137567
-1137723
-1138191
-1138344
-1138427
-1138458
-1138538
-1138697
-1138843
-1139075
-1139105
-1139258
-1139380
-1139640
-1139395
-1139675
-1140677
-1140247
-1140474
-1140543
-1140553
-1140762
-1141132
-1141196
-1141225
-1141431
-1141521
-1141670
-1141771
-1141847
-1141861
-1141982
-1142189
-1142389
-1142360
-1142497
-1142764
-1142976
-1143057
-1143212
-1143246
-1143563
-1143653
-1144012
-1144052
-1144070
-1144327
-1144458
-1144635
-1144691
-1144811
-1144876
-1144969
-1145129
-1145357
-1145371
-1145584
-1145636
-1145640
-1145740
-1145977
-1146154
-1146164
-1146148
-1146225
-1146473
-1146670
-1146708
-1146651
-1146816
-1146951
-1146934
-1147141
-1147217
-1147322
-1147467
-1147493
-1147595
-1147489
-1147491
-1147668
-1147760
-1147954
-1148011
-1147942
-1148150
-1148240
-1148269
-1148421
-1148535
-1148580
-1148740
-1148818
-1149650
-1149223
-1149074
-1149267
-1149279
-1149289
-1149301
-1149549
-1149665
-1149707
-1149565
-1149635
-1149844
-1149917
-1150041
-1149915
-1149993
-1150205
-1150213
-1150373
-1150255
-1150312
-1150488
-1150592
-1150683
-1150649
-1150665
-1150922
-1151045
-1151024
-1150934
-1151025
-1151366
-1151537
-1151608
-1151562
-1151594
-1151811
-1151892
-1151926
-1151855
-1151928
-1152101
-1152869
-1152315
-1152245
-1152423
-1152346
-1152512
-1152544
-1152464
-1152356
-1152601
-1152607
-1152776
-1152676
-1152712
-1152889
-1152898
-1153079
-1153000
-1153183
-1153129
-1153275
-1153478
-1153505
-1153591
-1153624
-1153853
-1153796
-1154040
-1154133
-1154232
-1155069
-1154441
-1154179
-1154597
-1154809
-1154960
-1155039
-1155001
-1154972
-1154917
-1154966
-1155000
-1154958
-1154914
-1155085
-1155201
-1155041
-1155052
-1154905
-1155008
-1154679
-1154934
-1155039
-1154931
-1154858
-1154890
-1155052
-1155017
-1154802
-1154813
-1155073
-1154957
-1155029
-1154924
-1155007
-1154972
-1155093
-1155158
-1154926
-1154963
-1155117
-1155222
-1155115
-1154922
-1155111
-1154850
-1154918
-1154931
-1154899
-1154892
-1154675
-1154929
-1154945
-1154921
-1154889
-1155041
-1154828
-1154807
-1154888
-1154916
-1154913
-1154945
-1154768
-1154665
-1154638
-1154796
-1154707
-1154577
-1154565
-1154536
-1154510
-1154237
-1154063
-1154114
-1154129
-1154080
-1153963
-1153751
-1153630
-1153485
-1153391
-1153102
-1152931
-1152695
-1152444
-1152151
-1151765
-1151292
-1151155
-1150731
-1150486
-1149974
-1149681
-1149343
-1149027
-1148692
-1148306
-1147886
-1147723
-1147234
-1146937
-1146649
-1146267
-1146011
-1145747
-1145257
-1145009
-1144662
-1144272
-1144101
-1143808
-1143410
-1143068
-1143052
-1143016
-1142782
-1142650
-1142406
-1142332
-1142480
-1142247
-1142068
-1142014
-1141950
-1141976
-1142029
-1141979
-1141948
-1142415
-1141937
-1141635
-1141532
-1141585
-1141341
-1141614
-1141678
-1141556
-1141500
-1141606
-1141567
-1141580
-1141368
-1141361
-1141280
-1141240
-1141265
-1141252
-1141242
-1141831
-1141100
-1140947
-1141050
-1141098
-1141140
-1141147
-1141235
-1141122
-1141058
-1141136
-1141211
-1140987
-1141183
-1141067
-1141111
-1141172
-1141250
-1141182
-1141181
-1141267
-1141164
-1141178
-1140948
-1140933
-1140875
-1140808
-1140676
-1140724
-1140467
-1140477
-1140597
-1140359
-1140213
-1140039
-1139936
-1139892
-1139786
-1139594
-1139517
-1139540
-1139431
-1139372
-1139242
-1139146
-1139050
-1139146
-1139088
-1139043
-1138945
-1138981
-1138881
-1138962
-1138860
-1138807
-1138866
-1138999
-1139058
-1139196
-1139027
-1139212
-1139315
-1139401
-1139053
-1139051
-1139095
-1139229
-1139410
-1139505
-1139633
-1139712
-1139800
-1139715
-1139498
-1139679
-1139733
-1139692
-1139854
-1139891
-1139934
-1139956
-1140024
-1140083
-1139986
-1139960
-1140056
-1139937
-1139942
-1139887
-1139958
-1139939
-1140053
-1139890
-1140604
-1140004
-1139968
-1139863
-1139642
-1139563
-1139714
-1139715
-1139712
-1139554
-1139576
-1139660
-1139547
-1139631
-1139465
-1139454
-1139587
-1139504
-1139455
-1139344
-1139220
-1139286
-1139302
-1139231
-1139235
-1139226
-1139266
-1139328
-1139226
-1139095
-1139041
-1139034
-1139069
-1139137
-1139173
-1139139
-1139185
-1139089
-1139038
-1138900
-1138913
-1139008
-1138887
-1138793
-1138890
-1138876
-1138832
-1138732
-1138857
-1138740
-1138607
-1139141
-1138783
-1138691
-1138561
-1138521
-1138558
-1138806
-1138688
-1138224
-1138521
-1138741
-1138557
-1138663
-1138679
-1138625
-1138659
-1138760
-1138861
-1138692
-1138669
-1138806
-1138911
-1138932
-1138829
-1138948
-1139021
-1139099
-1139136
-1139160
-1139145
-1139323
-1139387
-1139477
-1139694
-1139751
-1140015
-1140175
-1140172
-1140275
-1140256
-1140352
-1140697
-1140755
-1140679
-1140862
-1140832
-1140605
-1140927
-1140997
-1141597
-1141434
-1141499
-1141353
-1142194
-1142146
-1141813
-1141825
-1141714
-1141689
-1141706
-1141864
-1141918
-1141829
-1141876
-1141938
-1142008
-1142126
-1142139
-1142142
-1142082
-1142191
-1142214
-1142143
-1142336
-1142198
-1142330
-1142322
-1142244
-1142074
-1142159
-1142181
-1142286
-1142123
-1141981
-1141850
-1141904
-1141825
-1141695
-1141610
-1141440
-1141340
-1141314
-1141155
-1140862
-1140768
-1140701
-1140604
-1140245
-1140136
-1140005
-1140211
-1140168
-1139815
-1139795
-1139956
-1139902
-1139707
-1139723
-1139589
-1139579
-1139566
-1139183
-1139336
-1139400
-1139359
-1139479
-1139471
-1139429
-1139523
-1139527
-1139553
-1139487
-1139355
-1139345
-1139434
-1139403
-1139232
-1139160
-1139205
-1139299
-1139196
-1139316
-1139248
-1138997
-1138967
-1139143
-1139038
-1139099
-1139088
-1139133
-1139084
-1139019
-1139099
-1138868
-1139140
-1139036
-1139033
-1139028
-1139062
-1138982
-1139076
-1139119
-1138975
-1139036
-1139015
-1138963
-1139093
-1139097
-1139063
-1139052
-1139302
-1139335
-1139266
-1139531
-1139584
-1139667
-1139872
-1140002
-1140072
-1140275
-1140599
-1140829
-1140940
-1141015
-1141322
-1141481
-1141765
-1141886
-1141890
-1142253
-1142368
-1142645
-1142465
-1142825
-1143014
-1143007
-1143105
-1143304
-1143352
-1143395
-1143494
-1143474
-1143609
-1143534
-1143486
-1143566
-1143619
-1143604
-1143566
-1143584
-1143419
-1143528
-1143301
-1143191
-1143162
-1143222
-1142900
-1142786
-1142836
-1142854
-1142856
-1142816
-1142739
-1142634
-1142721
-1142786
-1142810
-1142795
-1142761
-1142668
-1142813
-1142802
-1142902
-1142817
-1142935
-1143200
-1143273
-1143252
-1143328
-1143420
-1143481
-1143657
-1143434
-1143533
-1143742
-1143835
-1144011
-1144112
-1144025
-1144228
-1144287
-1144428
-1144347
-1144412
-1144392
-1144702
-1144770
-1144633
-1144608
-1144724
-1144834
-1144857
-1144654
-1144685
-1144605
-1144750
-1144723
-1144453
-1144402
-1144331
-1144169
-1143948
-1143628
-1143332
-1143116
-1142891
-1142613
-1141925
-1141852
-1141503
-1141154
-1140910
-1140392
-1140042
-1139822
-1139647
-1139256
-1138850
-1138651
-1138481
-1138180
-1138092
-1137694
-1137372
-1137260
-1137133
-1137001
-1136808
-1136573
-1136500
-1136430
-1136351
-1136309
-1136229
-1136099
-1136134
-1136253
-1136104
-1136085
-1136364
-1136008
-1136233
-1136177
-1136205
-1136330
-1136571
-1136319
-1136470
-1136520
-1136692
-1136951
-1136932
-1136983
-1137105
-1137226
-1137438
-1137549
-1137599
-1137730
-1137787
-1137910
-1138057
-1137974
-1137980
-1138046
-1138245
-1138213
-1138284
-1138405
-1138487
-1138535
-1138510
-1138396
-1138434
-1138352
-1138403
-1138582
-1138367
-1138360
-1138446
-1138352
-1138312
-1138301
-1138139
-1137786
-1137932
-1138004
-1137876
-1137657
-1137693
-1137597
-1137294
-1137097
-1136887
-1136857
-1136742
-1136389
-1136208
-1136055
-1135667
-1135493
-1135333
-1135003
-1134777
-1134623
-1134512
-1134185
-1133932
-1133710
-1133607
-1133451
-1133456
-1133158
-1133047
-1132900
-1132969
-1132787
-1132542
-1132492
-1132596
-1132589
-1132631
-1132492
-1132392
-1132390
-1132591
-1132723
-1132655
-1132712
-1132801
-1132837
-1132946
-1132920
-1132898
-1132923
-1133020
-1132973
-1132862
-1132900
-1132950
-1133118
-1133132
-1133156
-1132965
-1133025
-1133109
-1133193
-1133041
-1133116
-1133108
-1133156
-1133281
-1133318
-1133345
-1133318
-1133246
-1133241
-1132745
-1132820
-1132814
-1132794
-1132849
-1132626
-1132603
-1132346
-1132661
-1132875
-1132910
-1132848
-1132892
-1132916
-1132754
-1132597
-1132409
-1132400
-1132486
-1132447
-1132236
-1132258
-1132257
-1132183
-1132047
-1131888
-1131846
-1132009
-1131940
-1131955
-1131887
-1131765
-1131678
-1131697
-1131784
-1131613
-1131591
-1131500
-1131751
-1131753
-1131768
-1131476
-1131550
-1131732
-1131808
-1131803
-1131685
-1131661
-1131862
-1131795
-1131785
-1131765
-1131738
-1131670
-1131775
-1131763
-1131723
-1131736
-1131954
-1132384
-1132578
-1132733
-1132796
-1132995
-1132964
-1132890
-1132651
-1132687
-1132743
-1132729
-1132763
-1133030
-1133293
-1133587
-1133500
-1133243
-1133361
-1134520
-1133737
-1133384
-1133254
-1133353
-1133588
-1133706
-1133789
-1133900
-1133799
-1133935
-1133886
-1133895
-1133710
-1133595
-1133515
-1133659
-1133653
-1133693
-1133538
-1133571
-1133530
-1133663
-1134191
-1133812
-1133726
-1133837
-1133732
-1133595
-1133659
-1133669
-1133605
-1133722
-1133679
-1133704
-1133706
-1133719
-1133824
-1133694
-1133766
-1133774
-1133867
-1133849
-1133760
-1133855
-1133881
-1134008
-1134019
-1133965
-1133914
-1133935
-1134011
-1133918
-1133991
-1133981
-1133943
-1133895
-1133777
-1133693
-1133821
-1133894
-1134004
-1133882
-1133751
-1133624
-1133611
-1133676
-1133612
-1133957
-1134377
-1134594
-1134722
-1134588
-1134642
-1134606
-1134479
-1134514
-1134351
-1134206
-1134111
-1134197
-1134290
-1134099
-1133974
-1133976
-1134235
-1134732
-1134777
-1134763
-1134875
-1134734
-1134847
-1134690
-1134701
-1134626
-1134551
-1134653
-1134711
-1134618
-1134656
-1134551
-1134670
-1134526
-1134466
-1134475
-1134486
-1134559
-1134641
-1134635
-1134662
-1134876
-1135156
-1135220
-1135120
-1135141
-1135305
-1135277
-1135154
-1135886
-1135239
-1135197
-1135217
-1134990
-1134855
-1134734
-1134701
-1134748
-1135282
-1134632
-1134374
-1134396
-1134779
-1134682
-1135136
-1136058
-1135541
-1135125
-1135138
-1135097
-1135055
-1135165
-1134986
-1135041
-1135065
-1135420
-1135399
-1135695
-1135688
-1135581
-1135425
-1135974
-1135519
-1135368
-1135193
-1135183
-1135203
-1135191
-1135553
-1135194
-1134943
-1135165
-1135585
-1135673
-1135743
-1135739
-1135724
-1135893
-1135891
-1135746
-1135734
-1135553
-1135556
-1135568
-1135550
-1135532
-1135625
-1135562
-1135448
-1135435
-1135428
-1135467
-1135694
-1135530
-1135579
-1135611
-1135659
-1135603
-1135540
-1135603
-1135635
-1135597
-1135789
-1135605
-1135566
-1135621
-1135783
-1135804
-1135692
-1135755
-1135782
-1135885
-1135800
-1135722
-1135580
-1135606
-1135384
-1135686
-1135677
-1135621
-1135614
-1135638
-1135574
-1135659
-1135632
-1135509
-1135517
-1135496
-1135432
-1135358
-1135412
-1135789
-1136246
-1136268
-1136015
-1135648
-1135803
-1135668
-1135376
-1134976
-1134606
-1134534
-1134077
-1133691
-1133265
-1133030
-1132678
-1132384
-1131864
-1131595
-1131377
-1131119
-1130889
-1130486
-1130274
-1130029
-1129776
-1129467
-1129210
-1129048
-1128886
-1128695
-1128658
-1128327
-1128287
-1128156
-1128021
-1128046
-1127839
-1127712
-1127834
-1127927
-1127695
-1127775
-1127709
-1127777
-1127776
-1127804
-1127747
-1127678
-1127753
-1127769
-1127988
-1127942
-1127899
-1128055
-1128038
-1128081
-1128129
-1128071
-1128170
-1128314
-1128483
-1128493
-1128265
-1128608
-1128570
-1128739
-1128800
-1128825
-1128850
-1128963
-1129153
-1129101
-1129193
-1129227
-1129295
-1129429
-1129368
-1129279
-1129364
-1129405
-1129455
-1129484
-1129409
-1129514
-1129515
-1129363
-1129527
-1129449
-1129589
-1129739
-1130101
-1130403
-1130407
-1130251
-1130330
-1130195
-1130215
-1130054
-1129899
-1129828
-1129737
-1129598
-1129514
-1129555
-1129391
-1129336
-1129196
-1129043
-1129029
-1128999
-1128882
-1128641
-1128610
-1128702
-1128592
-1128439
-1128369
-1128275
-1128415
-1128540
-1128420
-1128327
-1128423
-1128323
-1128483
-1128363
-1128314
-1128301
-1128466
-1128536
-1128535
-1128856
-1129225
-1129394
-1129439
-1129503
-1129432
-1129338
-1129420
-1129478
-1129379
-1129469
-1129330
-1129352
-1129377
-1129296
-1129186
-1129097
-1129241
-1129239
-1129154
-1129184
-1129107
-1129117
-1129167
-1129027
-1129030
-1128972
-1128909
-1129017
-1129533
-1129080
-1128899
-1128808
-1128713
-1128610
-1128531
-1128518
-1128472
-1128587
-1128408
-1128332
-1128300
-1128203
-1128271
-1128133
-1128061
-1128079
-1128023
-1127955
-1127908
-1127757
-1127837
-1127834
-1127822
-1127872
-1127769
-1127782
-1127811
-1127805
-1127802
-1127651
-1127667
-1127670
-1127885
-1127882
-1127726
-1127343
-1127652
-1127657
-1127840
-1127786
-1127896
-1127942
-1128053
-1128122
-1128053
-1128063
-1128113
-1128083
-1128191
-1128135
-1128181
-1128191
-1128236
-1128247
-1128232
-1128227
-1128641
-1128418
-1128399
-1128435
-1128449
-1128458
-1128554
-1128513
-1128544
-1128432
-1128500
-1128637
-1128685
-1128523
-1128574
-1128692
-1128704
-1128740
-1128576
-1128510
-1128595
-1128672
-1128698
-1128610
-1128548
-1128721
-1129242
-1129654
-1129751
-1129642
-1129772
-1129766
-1129712
-1129752
-1129664
-1129643
-1129704
-1129664
-1129515
-1129465
-1129556
-1129534
-1129480
-1129367
-1129295
-1129541
-1129510
-1129442
-1129495
-1129528
-1129414
-1129547
-1129538
-1129462
-1129437
-1129347
-1129376
-1129415
-1129439
-1129393
-1129497
-1129401
-1129422
-1129345
-1129447
-1129567
-1129506
-1129488
-1129437
-1129494
-1129449
-1129611
-1129474
-1129592
-1129627
-1129631
-1129579
-1129492
-1129480
-1129512
-1129594
-1129555
-1129600
-1129489
-1129480
-1129483
-1129567
-1129385
-1129414
-1129486
-1129462
-1129312
-1129344
-1129268
-1129412
-1129341
-1129316
-1129199
-1129177
-1129103
-1129193
-1129214
-1129171
-1129117
-1129147
-1129391
-1129808
-1129950
-1130007
-1130169
-1130263
-1130238
-1130124
-1130208
-1130125
-1130140
-1130035
-1129954
-1129907
-1129891
-1129938
-1129834
-1129885
-1129899
-1129923
-1129832
-1129990
-1129919
-1129917
-1129921
-1129842
-1129904
-1129787
-1129837
-1129805
-1130011
-1129857
-1129869
-1129735
-1129848
-1129961
-1129925
-1129854
-1129832
-1129802
-1130045
-1130011
-1130023
-1129875
-1129922
-1129989
-1129985
-1129913
-1129876
-1130084
-1130129
-1129970
-1129863
-1130049
-1130068
-1130059
-1130126
-1130106
-1130160
-1130121
-1130202
-1130239
-1130126
-1130074
-1130077
-1130134
-1130174
-1130187
-1130151
-1130145
-1130333
-1130332
-1130275
-1130365
-1130337
-1130562
-1130290
-1130288
-1130420
-1130447
-1130495
-1130650
-1130511
-1130500
-1130572
-1130741
-1130729
-1130781
-1130690
-1130843
-1130854
-1130814
-1130881
-1130868
-1130916
-1131017
-1130937
-1130903
-1130948
-1131053
-1131178
-1131113
-1131126
-1131107
-1131190
-1131244
-1131343
-1131197
-1131188
-1131365
-1131444
-1131494
-1131351
-1131292
-1131369
-1131537
-1131458
-1131503
-1131500
-1131411
-1131427
-1131403
-1131365
-1131335
-1131266
-1131385
-1131322
-1131277
-1131253
-1131133
-1131151
-1131064
-1131057
-1130882
-1130885
-1130721
-1130501
-1130395
-1130362
-1130248
-1129913
-1129450
-1129238
-1128929
-1128584
-1128312
-1128023
-1127641
-1127520
-1127202
-1126818
-1126554
-1126216
-1126028
-1125887
-1125593
-1125264
-1124905
-1124791
-1124559
-1124461
-1124185
-1123834
-1123738
-1123743
-1123587
-1123337
-1123235
-1123835
-1122893
-1122932
-1122901
-1122806
-1122695
-1122752
-1122680
-1122596
-1122619
-1122787
-1122783
-1122649
-1122689
-1122629
-1122755
-1122827
-1122927
-1122888
-1122927
-1123109
-1123141
-1123166
-1123242
-1123227
-1123459
-1123661
-1123671
-1123567
-1123593
-1123704
-1123891
-1124028
-1123962
-1124074
-1124154
-1124142
-1124258
-1124172
-1124256
-1124343
-1124505
-1124419
-1124474
-1124323
-1124437
-1124384
-1124448
-1124239
-1124319
-1124207
-1124163
-1124269
-1124028
-1124035
-1124005
-1123861
-1123703
-1123555
-1123472
-1123482
-1123468
-1123395
-1123058
-1122902
-1122894
-1122965
-1122754
-1122440
-1122294
-1122277
-1122331
-1122293
-1122765
-1122113
-1121976
-1121893
-1121671
-1121423
-1121442
-1121126
-1121345
-1121441
-1121446
-1121403
-1121277
-1121381
-1121361
-1121376
-1121810
-1121498
-1121570
-1121581
-1121578
-1121604
-1121679
-1121674
-1121633
-1121657
-1121655
-1121731
-1121700
-1121884
-1121763
-1121827
-1121826
-1121874
-1121999
-1122105
-1122119
-1122003
-1122121
-1121940
-1122058
-1122065
-1122018
-1122006
-1122170
-1122008
-1121980
-1121995
-1122077
-1122130
-1121958
-1121878
-1121896
-1121991
-1122008
-1121936
-1121753
-1121783
-1121764
-1121650
-1121548
-1121580
-1121559
-1121239
-1121400
-1121251
-1121146
-1121213
-1121254
-1121105
-1120997
-1120927
-1120812
-1120814
-1120898
-1120833
-1121108
-1121445
-1121764
-1121777
-1121674
-1121552
-1121631
-1121603
-1121562
-1121404
-1121412
-1121407
-1121503
-1121579
-1121401
-1121266
-1121232
-1121389
-1121519
-1121461
-1121338
-1121328
-1121386
-1121435
-1121370
-1121276
-1121407
-1121305
-1121396
-1121302
-1121287
-1121381
-1121293
-1121270
-1121121
-1121174
-1121247
-1121263
-1121237
-1121420
-1121625
-1121823
-1121870
-1121734
-1121821
-1121716
-1121723
-1121613
-1121567
-1121544
-1121530
-1121901
-1122212
-1122257
-1122194
-1122061
-1122112
-1122160
-1121958
-1121956
-1121914
-1121847
-1121897
-1122141
-1122248
-1122192
-1122285
-1122398
-1122408
-1122360
-1122381
-1122356
-1122435
-1122335
-1122242
-1122357
-1122471
-1122732
-1122742
-1122680
-1122701
-1122674
-1122716
-1122750
-1122733
-1122731
-1122820
-1122814
-1122716
-1122580
-1122691
-1122620
-1122556
-1122555
-1122422
-1122479
-1122490
-1122554
-1122395
-1122361
-1122443
-1122800
-1122920
-1122851
-1122825
-1122722
-1122845
-1122877
-1122901
-1122696
-1122789
-1122746
-1122756
-1122751
-1122868
-1122826
-1122845
-1122908
-1123025
-1122925
-1122895
-1123002
-1123125
-1123184
-1123006
-1123146
-1123245
-1123270
-1123192
-1123182
-1123168
-1123285
-1123231
-1123276
-1123198
-1123136
-1123294
-1123317
-1123357
-1123220
-1123229
-1123357
-1123303
-1123358
-1123142
-1123144
-1123306
-1123201
-1123264
-1122994
-1122943
-1122980
-1123079
-1123204
-1122992
-1122949
-1123090
-1123129
-1123057
-1123026
-1123009
-1122908
-1122977
-1122932
-1122861
-1122843
-1122861
-1123009
-1122914
-1122913
-1122850
-1122887
-1123008
-1122905
-1122638
-1122723
-1122939
-1122968
-1122943
-1122761
-1122767
-1122747
-1122895
-1122756
-1122733
-1122613
-1122853
-1122775
-1122863
-1122722
-1122841
-1122839
-1122838
-1122892
-1122835
-1122853
-1122922
-1122981
-1122744
-1122757
-1122814
-1122795
-1122963
-1122901
-1123022
-1122940
-1122956
-1123123
-1123118
-1122991
-1123026
-1123089
-1123148
-1123067
-1123003
-1122911
-1122922
-1123048
-1122978
-1122858
-1122856
-1122945
-1122862
-1122770
-1122866
-1122712
-1122698
-1122747
-1122886
-1122817
-1122658
-1122669
-1122758
-1122770
-1122716
-1122576
-1122648
-1122679
-1122665
-1122631
-1122450
-1122443
-1122589
-1122919
-1122944
-1123077
-1122799
-1123053
-1122963
-1122959
-1123604
-1123123
-1123055
-1122955
-1122849
-1122962
-1122893
-1123047
-1122881
-1122904
-1122941
-1122814
-1122934
-1122986
-1122939
-1122889
-1122886
-1122942
-1122978
-1122789
-1122913
-1122993
-1122918
-1122973
-1122939
-1122895
-1122893
-1122875
-1122941
-1122913
-1122787
-1122819
-1123030
-1123088
-1123013
-1122891
-1122996
-1123033
-1122976
-1122921
-1122975
-1122995
-1123004
-1123143
-1123036
-1122862
-1122895
-1122913
-1122890
-1122903
-1122915
-1122873
-1122920
-1122860
-1122894
-1122864
-1122897
-1122986
-1122921
-1122673
-1122634
-1122594
-1122582
-1122457
-1122477
-1122206
-1121988
-1121953
-1121834
-1121410
-1121145
-1120904
-1120653
-1120300
-1120070
-1119618
-1119327
-1119225
-1118846
-1118319
-1118054
-1117888
-1117557
-1117249
-1116750
-1116546
-1116311
-1116028
-1115723
-1115503
-1115261
-1115062
-1114846
-1114724
-1114510
-1114125
-1114128
-1114063
-1113948
-1113629
-1113579
-1113487
-1113555
-1113433
-1113461
-1113324
-1113458
-1113379
-1113461
-1113338
-1113351
-1113488
-1113415
-1113435
-1113387
-1113646
-1113703
-1113738
-1113699
-1113895
-1114008
-1114084
-1114203
-1114100
-1114186
-1114224
-1114483
-1114428
-1114528
-1114454
-1114532
-1114651
-1114568
-1114613
-1114765
-1115560
-1115158
-1115070
-1114900
-1114775
-1114993
-1115038
-1115032
-1114978
-1114855
-1114927
-1115008
-1115031
-1114823
-1114690
-1114697
-1114745
-1114781
-1114652
-1114632
-1114422
-1114392
-1114380
-1114098
-1114034
-1114068
-1114020
-1113784
-1113575
-1113413
-1113490
-1113496
-1113268
-1113098
-1112913
-1112810
-1112833
-1112685
-1112516
-1112344
-1112347
-1112264
-1112126
-1112092
-1112033
-1111984
-1111995
-1111929
-1111920
-1111851
-1111749
-1111867
-1111953
-1111793
-1111792
-1111858
-1111949
-1111912
-1111978
-1111954
-1111970
-1112018
-1112053
-1112088
-1112112
-1112344
-1112705
-1112447
-1112368
-1112449
-1112543
-1112560
-1112635
-1112515
-1112539
-1112592
-1112562
-1112659
-1112629
-1112677
-1112621
-1112637
-1112573
-1112526
-1112495
-1112527
-1112504
-1112575
-1112364
-1112333
-1112291
-1112465
-1112364
-1112237
-1112191
-1112142
-1112215
-1112051
-1112104
-1112025
-1111858
-1111925
-1111820
-1111647
-1111578
-1111502
-1111542
-1111404
-1111332
-1111255
-1111139
-1111188
-1111125
-1111232
-1111522
-1111860
-1111967
-1111911
-1111683
-1111648
-1111661
-1111643
-1111702
-1111551
-1111503
-1111431
-1111489
-1111632
-1111487
-1111502
-1111605
-1111539
-1111481
-1111444
-1111489
-1111504
-1111530
-1111677
-1111666
-1111618
-1111860
-1111733
-1111717
-1111795
-1111802
-1111959
-1111879
-1111929
-1111917
-1112042
-1112131
-1112085
-1112207
-1112137
-1112053
-1112195
-1112344
-1112268
-1112281
-1112414
-1112338
-1112425
-1112410
-1112360
-1112294
-1112423
-1112530
-1113238
-1112792
-1112507
-1112565
-1112742
-1112990
-1112829
-1112686
-1112628
-1112794
-1112677
-1112608
-1112543
-1112759
-1112740
-1112696
-1112743
-1112786
-1112771
-1112926
-1112910
-1112806
-1112737
-1112791
-1112850
-1112986
-1112843
-1112857
-1112836
-1112907
-1113034
-1112889
-1112919
-1112895
-1112959
-1112936
-1112795
-1112770
-1112669
-1113049
-1112948
-1112975
-1112841
-1113010
-1112971
-1113074
-1113042
-1113024
-1112963
-1112960
-1113049
-1113072
-1113040
-1112935
-1113078
-1113135
-1112946
-1112876
-1112977
-1113165
-1113184
-1113152
-1113087
-1113043
-1112982
-1113099
-1112774
-1112910
-1112935
-1112921
-1113093
-1113026
-1113012
-1112965
-1113044
-1113027
-1112975
-1112980
-1112982
-1112999
-1113003
-1113008
-1112945
-1113128
-1113106
-1113143
-1112705
-1112916
-1113065
-1113066
-1113133
-1113010
-1113063
-1113142
-1113205
-1113209
-1113236
-1113208
-1113236
-1113304
-1113256
-1113291
-1113270
-1113410
-1113374
-1113456
-1113339
-1113435
-1113232
-1113450
-1113510
-1113488
-1113421
-1113512
-1113688
-1113635
-1113673
-1113581
-1113720
-1113678
-1113786
-1113703
-1113731
-1113828
-1113977
-1113846
-1113863
-1113934
-1114868
-1114201
-1114022
-1113853
-1113817
-1113903
-1114001
-1114020
-1114000
-1113960
-1113993
-1114103
-1114067
-1114099
-1113902
-1113965
-1114171
-1114218
-1113998
-1114138
-1114154
-1114279
-1114276
-1114243
-1114249
-1114280
-1114281
-1114406
-1114242
-1114314
-1114322
-1114376
-1114314
-1114338
-1114322
-1114357
-1114411
-1114517
-1114534
-1114506
-1114542
-1114721
-1114693
-1114776
-1114599
-1114638
-1114817
-1114873
-1114815
-1114817
-1114820
-1114808
-1114985
-1115036
-1114994
-1115063
-1115198
-1115202
-1115013
-1114972
-1114998
-1115082
-1115258
-1115287
-1115130
-1115178
-1115237
-1115236
-1115271
-1115145
-1115210
-1115312
-1115136
-1115227
-1115201
-1115367
-1115307
-1115431
-1115351
-1115386
-1115488
-1115512
-1115565
-1115402
-1115497
-1116241
-1115799
-1115641
-1115645
-1115553
-1115640
-1115608
-1115637
-1115653
-1115582
-1115638
-1115843
-1115753
-1115788
-1115780
-1115761
-1115825
-1115945
-1115822
-1115802
-1115875
-1116021
-1116076
-1116041
-1116061
-1116049
-1116102
-1116233
-1116038
-1116135
-1115823
-1116198
-1116305
-1116212
-1116232
-1116025
-1116301
-1116283
-1116179
-1116358
-1116112
-1116446
-1116538
-1116270
-1116253
-1116344
-1116436
-1116369
-1116349
-1116409
-1116371
-1116338
-1116477
-1116454
-1116344
-1116407
-1116327
-1116290
-1115924
-1116256
-1116230
-1116351
-1116273
-1115991
-1115913
-1115772
-1115633
-1115525
-1115167
-1114919
-1114812
-1114533
-1114199
-1113768
-1113460
-1113349
-1113045
-1112723
-1112244
-1112017
-1111635
-1111559
-1111116
-1110779
-1110306
-1110019
-1109986
-1109781
-1109458
-1109245
-1108933
-1108796
-1108548
-1108308
-1108196
-1107988
-1107895
-1107865
-1107524
-1107550
-1107422
-1107400
-1107308
-1107217
-1107174
-1107214
-1107255
-1107257
-1107127
-1107001
-1107185
-1107222
-1107129
-1107192
-1107238
-1106965
-1107215
-1107273
-1107326
-1107344
-1107509
-1107580
-1107682
-1107692
-1107646
-1107811
-1108076
-1108039
-1107949
-1107985
-1108142
-1108303
-1108198
-1108130
-1108212
-1108291
-1108346
-1108467
-1108329
-1108349
-1108385
-1108459
-1108469
-1108166
-1108315
-1108509
-1108428
-1108512
-1108366
-1108348
-1108314
-1108247
-1108290
-1108163
-1108091
-1108048
-1108098
-1107886
-1107634
-1107688
-1107534
-1107582
-1107527
-1107306
-1107165
-1106968
-1106929
-1106885
-1106657
-1106395
-1106455
-1106418
-1106295
-1106078
-1105861
-1105885
-1105773
-1105613
-1106409
-1105655
-1105526
-1105569
-1105370
-1105185
-1105220
-1105281
-1105340
-1105344
-1105225
-1105109
-1105260
-1105337
-1105353
-1105312
-1105284
-1105369
-1105540
-1105489
-1105463
-1105367
-1105455
-1105594
-1105691
-1105719
-1105581
-1105603
-1105810
-1105827
-1105823
-1105756
-1105784
-1105803
-1105881
-1105705
-1105652
-1105664
-1105883
-1105854
-1105841
-1105834
-1105882
-1105842
-1105739
-1105632
-1105280
-1105589
-1105658
-1105584
-1105514
-1105432
-1105258
-1105413
-1105310
-1105224
-1105117
-1105160
-1105004
-1105040
-1104825
-1104755
-1104840
-1104687
-1104655
-1104435
-1104439
-1104462
-1104359
-1104261
-1104234
-1104058
-1104183
-1104066
-1104019
-1103869
-1103898
-1103915
-1103821
-1103776
-1103679
-1103604
-1103794
-1103698
-1103687
-1103646
-1103683
-1103746
-1103679
-1103702
-1103575
-1103596
-1103589
-1103756
-1103682
-1103575
-1103523
-1103646
-1103663
-1103725
-1103743
-1103717
-1103743
-1103791
-1103880
-1103752
-1103566
-1103604
-1103374
-1103591
-1103660
-1103636
-1103655
-1103730
-1103760
-1103830
-1103648
-1103671
-1103778
-1103807
-1103894
-1103844
-1103804
-1103926
-1104003
-1103898
-1103853
-1103880
-1103846
-1103991
-1103939
-1103798
-1103903
-1104053
-1103915
-1103911
-1103967
-1104030
-1103935
-1103831
-1103851
-1103936
-1103901
-1103970
-1103986
-1103895
-1103932
-1103915
-1104086
-1104103
-1103924
-1103900
-1104016
-1103930
-1103984
-1103846
-1103782
-1103878
-1103983
-1103824
-1103797
-1103866
-1103965
-1103973
-1104014
-1103780
-1103860
-1103792
-1103825
-1103763
-1103670
-1103691
-1103657
-1103729
-1103716
-1103674
-1103560
-1103553
-1103667
-1103646
-1103468
-1103519
-1103412
-1103443
-1103554
-1103519
-1103454
-1103485
-1103534
-1103479
-1103419
-1103429
-1103385
-1103439
-1103424
-1103380
-1103250
-1103264
-1103455
-1103392
-1103377
-1103210
-1103368
-1103259
-1103312
-1103279
-1103142
-1103264
-1103262
-1103281
-1103142
-1103154
-1103110
-1103320
-1103193
-1102985
-1103042
-1103051
-1103161
-1103205
-1102975
-1102927
-1102982
-1103011
-1103093
-1102977
-1102859
-1102809
-1102899
-1102966
-1102840
-1102876
-1102950
-1102854
-1102763
-1102877
-1102841
-1102758
-1102811
-1102907
-1102749
-1102650
-1102812
-1102945
-1102887
-1102762
-1102672
-1102802
-1102818
-1102932
-1102774
-1102822
-1102773
-1102836
-1102767
-1102749
-1102835
-1102751
-1102665
-1102774
-1102704
-1102733
-1102865
-1102926
-1102766
-1102707
-1102749
-1102664
-1102707
-1102766
-1102726
-1102754
-1102573
-1102792
-1102789
-1102553
-1102520
-1102491
-1102516
-1102453
-1102387
-1102327
-1102502
-1102603
-1102480
-1102450
-1102445
-1102325
-1102074
-1102245
-1102286
-1102379
-1102467
-1102503
-1102514
-1102363
-1102389
-1102507
-1102510
-1102386
-1102423
-1102404
-1102562
-1102432
-1102356
-1102444
-1102545
-1102532
-1102572
-1102491
-1102418
-1102460
-1102609
-1102417
-1102452
-1102430
-1102444
-1102374
-1102402
-1102272
-1102293
-1102414
-1102419
-1102247
-1102223
-1102214
-1102375
-1102421
-1102402
-1102335
-1102291
-1102309
-1102376
-1102469
-1102328
-1102363
-1102445
-1102513
-1102494
-1102428
-1102319
-1102366
-1102438
-1102417
-1102436
-1102428
-1102457
-1102620
-1102681
-1102504
-1102412
-1102485
-1102638
-1102529
-1102396
-1102544
-1102535
-1102622
-1102588
-1102562
-1102463
-1102486
-1102538
-1102532
-1102494
-1102547
-1102567
-1102484
-1102457
-1102357
-1102257
-1102400
-1102329
-1102259
-1102206
-1102229
-1102254
-1102299
-1102257
-1102038
-1101995
-1102017
-1102196
-1102180
-1101989
-1101821
-1101657
-1101745
-1101565
-1101341
-1101135
-1100908
-1100891
-1100515
-1100204
-1099942
-1099752
-1099433
-1100160
-1099185
-1098564
-1098140
-1097932
-1097704
-1097208
-1096870
-1096390
-1096275
-1096040
-1095730
-1095471
-1095406
-1095134
-1095066
-1094783
-1094415
-1094227
-1094156
-1093958
-1093706
-1093604
-1093406
-1093496
-1093367
-1093285
-1093208
-1093218
-1093268
-1093298
-1093236
-1093191
-1093285
-1093288
-1093337
-1093347
-1093302
-1093493
-1093434
-1093373
-1093504
-1093459
-1093635
-1093723
-1093771
-1093887
-1093899
-1093986
-1093939
-1093993
-1094122
-1094264
-1094274
-1094342
-1094328
-1094430
-1094549
-1094489
-1095329
-1094706
-1094664
-1094786
-1094731
-1094769
-1094669
-1094719
-1094697
-1094687
-1094779
-1094727
-1094713
-1094722
-1094731
-1094530
-1094485
-1094470
-1094598
-1094537
-1094322
-1094364
-1094317
-1094168
-1094040
-1094077
-1093915
-1093970
-1093840
-1093646
-1093478
-1093489
-1093373
-1093275
-1093194
-1093021
-1092925
-1092941
-1092923
-1092779
-1092582
-1092482
-1092398
-1092403
-1092368
-1092204
-1092004
-1092198
-1092196
-1092062
-1092108
-1092047
-1092043
-1092178
-1092300
-1092182
-1092227
-1092175
-1092231
-1092290
-1092308
-1092221
-1092355
-1092305
-1092497
-1092569
-1092461
-1092512
-1092679
-1092712
-1092611
-1092740
-1092754
-1092573
-1092792
-1092822
-1092703
-1092830
-1092895
-1092788
-1092769
-1092781
-1092840
-1092893
-1092801
-1092586
-1092472
-1092499
-1092687
-1092587
-1092396
-1092368
-1092276
-1092212
-1092181
-1092078
-1092007
-1092076
-1091887
-1091920
-1091628
-1091686
-1091752
-1091558
-1091557
-1091477
-1091428
-1091347
-1091295
-1091254
-1090969
-1091188
-1091267
-1091195
-1091097
-1091126
-1091125
-1091041
-1091138
-1091165
-1090985
-1091047
-1090964
-1091102
-1091082
-1091034
-1091042
-1091172
-1091201
-1091144
-1091091
-1091023
-1091268
-1091228
-1091215
-1091168
-1091182
-1091347
-1091283
-1091273
-1091330
-1091320
-1091369
-1091457
-1091317
-1091260
-1091270
-1091303
-1091377
-1091295
-1091365
-1091271
-1091325
-1091479
-1091471
-1091072
-1091272
-1091320
-1091273
-1091254
-1091250
-1091232
-1091224
-1091183
-1091186
-1091258
-1091176
-1091304
-1091346
-1091233
-1091241
-1091250
-1092023
-1091532
-1091395
-1091300
-1091310
-1091233
-1091332
-1091325
-1091242
-1091161
-1091296
-1091313
-1091304
-1091221
-1091281
-1091386
-1091500
-1091218
-1091275
-1091175
-1091308
-1091406
-1091251
-1091342
-1091408
-1091421
-1091284
-1091257
-1091286
-1091292
-1091286
-1091218
-1091169
-1091160
-1091081
-1091173
-1091212
-1091055
-1091080
-1091061
-1091070
-1091151
-1090987
-1091017
-1090952
-1091812
-1091186
-1090960
-1090849
-1090764
-1090767
-1090931
-1090823
-1090757
-1090768
-1090674
-1090659
-1090653
-1090552
-1090612
-1090660
-1090658
-1090612
-1090500
-1090583
-1090536
-1090681
-1090612
-1090585
-1090465
-1090478
-1090494
-1090645
-1090545
-1090442
-1090411
-1090535
-1090406
-1090435
-1090400
-1090506
-1090448
-1090322
-1090334
-1090303
-1090365
-1090406
-1090358
-1090336
-1090131
-1090953
-1090575
-1090365
-1090240
-1090243
-1090143
-1090307
-1090322
-1090225
-1090108
-1090230
-1090286
-1090154
-1090080
-1090076
-1090232
-1090330
-1090242
-1090089
-1090162
-1090268
-1090264
-1090255
-1090151
-1090127
-1090114
-1090286
-1090202
-1090201
-1090082
-1090223
-1090174
-1090195
-1090055
-1090004
-1089956
-1090068
-1090104
-1089998
-1089940
-1090573
-1090089
-1090074
-1090056
-1089947
-1089946
-1089856
-1089923
-1089839
-1089903
-1089856
-1089990
-1089964
-1089857
-1089694
-1089705
-1089781
-1089839
-1089759
-1089633
-1089643
-1089718
-1089707
-1089615
-1089653
-1089599
-1089714
-1089706
-1089721
-1089888
-1090131
-1090260
-1090351
-1090025
-1090181
-1090157
-1090222
-1090075
-1089890
-1089988
-1090011
-1090059
-1090009
-1089937
-1089769
-1089795
-1089804
-1089748
-1089758
-1089781
-1089837
-1089779
-1090005
-1090141
-1090140
-1090288
-1090208
-1090086
-1090158
-1090056
-1090151
-1090179
-1090127
-1089974
-1090047
-1090132
-1090041
-1090099
-1090104
-1090048
-1090049
-1090137
-1090095
-1090057
-1089962
-1090120
-1090011
-1089909
-1089878
-1090026
-1090106
-1090171
-1090034
-1089911
-1090049
-1090040
-1090054
-1089864
-1089886
-1089841
-1089958
-1089823
-1089762
-1089703
-1089876
-1090261
-1090464
-1090403
-1090456
-1090552
-1090465
-1090376
-1090247
-1089938
-1090204
-1090234
-1090188
-1090069
-1089950
-1089946
-1089813
-1089738
-1089570
-1089453
-1089672
-1089297
-1089095
-1088810
-1088557
-1088128
-1087925
-1087610
-1087296
-1086576
-1086555
-1086232
-1085951
-1085153
-1085036
-1084873
-1084642
-1084383
-1084002
-1083477
-1083330
-1083216
-1082981
-1082535
-1083064
-1082348
-1082028
-1081674
-1081356
-1081877
-1081152
-1081021
-1080845
-1080642
-1080573
-1080438
-1080461
-1080312
-1080096
-1079944
-1080002
-1080053
-1079992
-1080051
-1079999
-1079956
-1080054
-1080037
-1080024
-1080170
-1080155
-1080411
-1080299
-1080279
-1080446
-1080437
-1080666
-1080679
-1080651
-1080758
-1080766
-1080913
-1080804
-1080863
-1081076
-1081398
-1081481
-1081664
-1081516
-1081507
-1081499
-1081485
-1081475
-1081359
-1081501
-1081472
-1081567
-1081446
-1081331
-1081348
-1081365
-1081247
-1081170
-1081052
-1081048
-1081248
-1081400
-1081425
-1081348
-1081189
-1081205
-1080987
-1081133
-1080837
-1080558
-1080486
-1080574
-1080491
-1080169
-1080100
-1080057
-1079885
-1079796
-1079607
-1079485
-1079413
-1079411
-1079371
-1079191
-1079072
-1078983
-1078890
-1078842
-1078778
-1078748
-1078693
-1078598
-1078520
-1078461
-1078396
-1078378
-1078419
-1078384
-1078340
-1078199
-1078283
-1078359
-1078169
-1078087
-1078192
-1078271
-1078396
-1078205
-1078167
-1078190
-1078149
-1078249
-1078154
-1078141
-1078264
-1078145
-1078192
-1078173
-1078046
-1077978
-1078106
-1078057
-1078022
-1078014
-1077897
-1077986
-1078005
-1077946
-1077890
-1077863
-1077698
-1077756
-1077573
-1077603
-1077559
-1077454
-1077210
-1077326
-1077214
-1077189
-1077087
-1077010
-1076917
-1076848
-1076810
-1076859
-1076674
-1076527
-1076361
-1076366
-1076325
-1076170
-1076129
-1076077
-1075921
-1075811
-1075908
-1075835
-1075712
-1075531
-1075493
-1075385
-1075299
-1075160
-1075246
-1075305
-1075302
-1075280
-1075541
-1075769
-1075795
-1075779
-1075782
-1075791
-1075730
-1075639
-1075615
-1075715
-1075568
-1075543
-1075524
-1075526
-1075566
-1075549
-1075551
-1075559
-1075427
-1075386
-1075456
-1075440
-1075492
-1075454
-1075308
-1075279
-1075310
-1075344
-1075459
-1075507
-1075403
-1075234
-1075273
-1075337
-1075293
-1075331
-1075295
-1075372
-1075343
-1075478
-1075352
-1075339
-1075404
-1075484
-1075400
-1075207
-1075266
-1075201
-1075266
-1075264
-1075235
-1075162
-1075081
-1075195
-1075224
-1075086
-1075129
-1075032
-1075078
-1075064
-1075078
-1075069
-1075195
-1075114
-1075096
-1075078
-1075080
-1075134
-1075157
-1075018
-1074980
-1074950
-1074892
-1074944
-1074864
-1074604
-1074763
-1074780
-1074881
-1074749
-1074726
-1074723
-1074555
-1074596
-1074436
-1074420
-1074403
-1074383
-1074303
-1074218
-1074245
-1074209
-1074607
-1074260
-1074052
-1074050
-1074056
-1073965
-1074033
-1073973
-1073884
-1073921
-1073951
-1073870
-1073857
-1073826
-1073927
-1073965
-1073889
-1073968
-1073971
-1073905
-1073959
-1073944
-1073984
-1073978
-1073986
-1074130
-1074086
-1074026
-1073979
-1074138
-1074142
-1074064
-1074021
-1074174
-1074240
-1074285
-1074341
-1074232
-1074193
-1074295
-1074326
-1074294
-1074311
-1074308
-1074213
-1074209
-1074124
-1074113
-1074199
-1074290
-1074366
-1074186
-1074248
-1074171
-1074250
-1074413
-1074328
-1074296
-1074222
-1074476
-1074352
-1074336
-1074241
-1074436
-1074515
-1074571
-1074456
-1074406
-1074437
-1074505
-1074638
-1074291
-1074517
-1074514
-1074673
-1074703
-1074695
-1074789
-1074705
-1074869
-1074947
-1074967
-1074928
-1074935
-1075189
-1075121
-1075165
-1075182
-1075200
-1075396
-1075517
-1075305
-1075992
-1075794
-1075832
-1075878
-1075853
-1075945
-1076017
-1076031
-1076262
-1076261
-1076172
-1076343
-1076280
-1076422
-1076449
-1076531
-1076584
-1076749
-1076884
-1076920
-1076857
-1076822
-1076937
-1076938
-1076912
-1076944
-1076784
-1077014
-1077183
-1077253
-1077186
-1077266
-1077271
-1077286
-1077432
-1077338
-1077476
-1077515
-1077642
-1077658
-1077738
-1077777
-1077840
-1078001
-1077989
-1078151
-1078200
-1078287
-1078409
-1078498
-1078479
-1078549
-1078814
-1078865
-1078778
-1078851
-1078888
-1078976
-1079002
-1079090
-1079206
-1079201
-1079309
-1079306
-1079228
-1079367
-1080039
-1079575
-1079426
-1079517
-1079540
-1079660
-1079612
-1079660
-1079518
-1079590
-1079649
-1079664
-1079460
-1079494
-1079656
-1079730
-1079572
-1079834
-1079775
-1079728
-1079702
-1079889
-1079953
-1079693
-1079470
-1079894
-1079906
-1079965
-1079806
-1079890
-1079906
-1079991
-1079962
-1079866
-1079929
-1080060
-1080006
-1080046
-1079906
-1079883
-1079887
-1079928
-1079830
-1079486
-1079625
-1079605
-1079590
-1079323
-1079100
-1078862
-1078647
-1078365
-1078016
-1077811
-1077460
-1077315
-1076927
-1076522
-1076229
-1076556
-1075925
-1075579
-1075128
-1074687
-1074405
-1074282
-1073997
-1073813
-1073566
-1073227
-1073095
-1072936
-1072621
-1072389
-1071982
-1072073
-1071996
-1071921
-1071786
-1071700
-1071709
-1071662
-1071447
-1071361
-1071427
-1071324
-1071471
-1071417
-1071372
-1071339
-1071401
-1071479
-1071087
-1071234
-1071451
-1071533
-1071596
-1071750
-1071653
-1071729
-1071769
-1071958
-1071927
-1071840
-1071907
-1071987
-1072100
-1072089
-1072159
-1072239
-1072192
-1072300
-1072187
-1072147
-1072067
-1072136
-1072222
-1072158
-1072081
-1072016
-1072092
-1072154
-1072102
-1071993
-1071937
-1071912
-1071953
-1071922
-1071842
-1071763
-1071701
-1071652
-1071528
-1071456
-1071448
-1071413
-1070929
-1071023
-1071008
-1071014
-1070890
-1070959
-1070614
-1070442
-1070405
-1069865
-1070021
-1069962
-1069860
-1069772
-1069626
-1069648
-1069415
-1069210
-1069105
-1069121
-1069007
-1068949
-1068716
-1068766
-1068614
-1068678
-1068556
-1068523
-1068450
-1068575
-1068580
-1068362
-1068273
-1068228
-1068409
-1068481
-1068408
-1068280
-1068387
-1068386
-1068539
-1068499
-1068537
-1068423
-1068390
-1068458
-1068550
-1068509
-1068368
-1068494
-1068547
-1068541
-1068308
-1068405
-1068365
-1068266
-1068281
-1068171
-1068298
-1068225
-1068264
-1068134
-1068027
-1068146
-1068072
-1068107
-1068075
-1067894
-1067799
-1067795
-1067793
-1067776
-1067574
-1067608
-1067510
-1067501
-1067288
-1067174
-1067168
-1067115
-1067000
-1067041
-1066791
-1066750
-1066753
-1066759
-1066603
-1066328
-1066281
-1066346
-1066236
-1066055
-1065952
-1065942
-1065970
-1065873
-1065690
-1065556
-1065554
-1065640
-1065627
-1065562
-1065473
-1065384
-1065268
-1065236
-1065261
-1065196
-1065090
-1065124
-1065144
-1065121
-1065119
-1065010
-1064925
-1065161
-1065033
-1065062
-1065056
-1065143
-1065055
-1065123
-1064987
-1065042
-1065144
-1065266
-1065147
-1064987
-1065038
-1065157
-1065248
-1065116
-1065140
-1065198
-1065230
-1065205
-1065149
-1065054
-1065156
-1065228
-1065284
-1065100
-1065120
-1065097
-1065067
-1065094
-1064969
-1064916
-1064866
-1064891
-1064977
-1064913
-1064799
-1064821
-1064796
-1064851
-1064755
-1064646
-1064578
-1064543
-1064379
-1064373
-1064235
-1064105
-1064214
-1064073
-1063984
-1063895
-1063829
-1063936
-1063802
-1063783
-1063745
-1063482
-1063604
-1063691
-1063614
-1063455
-1063451
-1063314
-1063400
-1063315
-1063137
-1063020
-1063082
-1062961
-1062878
-1062355
-1062576
-1062607
-1062688
-1062608
-1062489
-1062440
-1062545
-1062505
-1062268
-1062005
-1062060
-1061785
-1061989
-1061933
-1061699
-1061709
-1061786
-1061666
-1061471
-1061544
-1061300
-1061349
-1061208
-1061128
-1061162
-1060998
-1060609
-1060953
-1060864
-1060761
-1060751
-1060582
-1060544
-1060479
-1060388
-1060345
-1060302
-1060486
-1060170
-1060174
-1060207
-1060213
-1060241
-1060100
-1060042
-1059922
-1059933
-1059927
-1059924
-1059757
-1059741
-1059814
-1059764
-1059594
-1059468
-1059457
-1059410
-1059480
-1059237
-1059166
-1059063
-1059121
-1059210
-1059024
-1058872
-1058750
-1058861
-1058706
-1058670
-1058642
-1058461
-1058418
-1058530
-1058418
-1058222
-1058252
-1058322
-1058396
-1058524
-1058440
-1058354
-1058382
-1058371
-1058282
-1058134
-1058028
-1058098
-1058048
-1057871
-1057830
-1058014
-1057895
-1057619
-1057725
-1057682
-1057716
-1057216
-1057074
-1057398
-1057248
-1057264
-1057352
-1057168
-1057199
-1057168
-1057166
-1057134
-1056932
-1057023
-1056939
-1056882
-1056972
-1056770
-1056697
-1056680
-1056664
-1056711
-1056546
-1056473
-1056703
-1057159
-1057134
-1057207
-1057153
-1057173
-1057209
-1057180
-1056979
-1056882
-1056868
-1056881
-1056843
-1056748
-1056674
-1056726
-1056753
-1056739
-1056528
-1056548
-1056619
-1056527
-1056505
-1056393
-1056464
-1056497
-1056470
-1056335
-1056223
-1056350
-1056435
-1056399
-1056393
-1056362
-1056197
-1056233
-1056375
-1056226
-1056112
-1056234
-1056292
-1056231
-1056186
-1056052
-1056255
-1056160
-1056283
-1056188
-1056185
-1056197
-1056118
-1056136
-1056189
-1056077
-1056226
-1056312
-1056307
-1056240
-1056124
-1056263
-1056249
-1056330
-1056478
-1056407
-1056397
-1056403
-1056489
-1056420
-1056413
-1056376
-1056292
-1056465
-1056394
-1056227
-1055044
-1054703
-1054455
-1054142
-1053941
-1053787
-1053501
-1053185
-1052906
-1052841
-1052519
-1052291
-1052070
-1051873
-1051555
-1051298
-1051129
-1050921
-1050702
-1050523
-1050304
-1050026
-1049927
-1049675
-1049493
-1049562
-1049309
-1049174
-1048988
-1049059
-1049017
-1048857
-1049766
-1049061
-1048898
-1048786
-1048713
-1048789
-1048753
-1048894
-1049010
-1048824
-1048947
-1048946
-1049061
-1049168
-1049196
-1049233
-1049181
-1049412
-1049366
-1049542
-1049463
-1049709
-1049812
-1049858
-1049930
-1049843
-1049987
-1050079
-1050267
-1050177
-1050135
-1050151
-1050382
-1050409
-1050563
-1050389
-1050407
-1050478
-1050458
-1050403
-1050562
-1050597
-1050518
-1050471
-1050367
-1050391
-1050289
-1050357
-1050226
-1049883
-1050006
-1050028
-1049966
-1049797
-1049709
-1049635
-1049519
-1049350
-1049382
-1049121
-1048614
-1048595
-1048736
-1048665
-1048696
-1048515
-1048445
-1048419
-1048211
-1048231
-1048211
-1048092
-1048016
-1047918
-1047974
-1047759
-1047922
-1048527
-1047965
-1047829
-1047753
-1047881
-1047803
-1047779
-1047785
-1047673
-1047630
-1047815
-1048224
-1047787
-1047700
-1047731
-1047639
-1047595
-1047447
-1047237
-1047426
-1047451
-1047373
-1047342
-1047409
-1047324
-1047320
-1047168
-1047128
-1047052
-1047026
-1046938
-1046897
-1046734
-1046647
-1046701
-1046481
-1046617
-1046537
-1046414
-1046321
-1046275
-1046020
-1045889
-1045773
-1045771
-1045820
-1045655
-1045427
-1045250
-1045273
-1045857
-1045345
-1045081
-1044835
-1044892
-1044883
-1044746
-1044626
-1044471
-1044351
-1044270
-1044202
-1043958
-1044040
-1044030
-1044043
-1043917
-1043793
-1043399
-1043526
-1043719
-1043557
-1043416
-1043339
-1043293
-1043291
-1043383
-1043198
-1043119
-1043214
-1043135
-1043003
-1043025
-1042629
-1042975
-1042897
-1042930
-1042843
-1042867
-1042921
-1042930
-1042900
-1042881
-1042856
-1042737
-1042544
-1042768
-1042793
-1042831
-1042865
-1042753
-1042777
-1042628
-1042599
-1042649
-1042639
-1042605
-1043668
-1042957
-1042805
-1042744
-1042565
-1042482
-1042668
-1042698
-1042605
-1042653
-1042486
-1042508
-1042655
-1042726
-1042668
-1042596
-1042536
-1042584
-1042598
-1042577
-1042377
-1042427
-1042470
-1042512
-1042444
-1042442
-1042324
-1042363
-1042275
-1042123
-1042095
-1042205
-1042184
-1042083
-1042124
-1042050
-1041924
-1041850
-1041847
-1041804
-1041773
-1041659
-1041660
-1041624
-1041462
-1041461
-1041370
-1041373
-1041386
-1041269
-1041215
-1041171
-1041249
-1041138
-1041202
-1041153
-1041028
-1041113
-1041146
-1040961
-1040827
-1040831
-1040754
-1040721
-1040855
-1040632
-1040577
-1040237
-1040363
-1040461
-1040348
-1040394
-1040496
-1040338
-1040224
-1040191
-1040149
-1040302
-1040208
-1040054
-1040116
-1040124
-1040014
-1040010
-1039859
-1039785
-1039762
-1039750
-1039874
-1039859
-1039642
-1039663
-1039689
-1039569
-1039599
-1039467
-1039348
-1039478
-1039349
-1039293
-1039159
-1039195
-1039260
-1039171
-1038875
-1038896
-1038950
-1039101
-1039001
-1039113
-1038981
-1038791
-1038740
-1038861
-1038929
-1038737
-1038741
-1038725
-1038722
-1038590
-1038509
-1038544
-1038558
-1038546
-1038509
-1038379
-1038368
-1038567
-1038592
-1038429
-1038364
-1038463
-1038411
-1038441
-1038369
-1038355
-1038372
-1038429
-1038445
-1038032
-1038192
-1038172
-1038326
-1038097
-1038164
-1038079
-1038210
-1038186
-1038187
-1038234
-1038219
-1038175
-1038126
-1038049
-1038727
-1038279
-1038085
-1038152
-1038151
-1037980
-1037941
-1038070
-1038072
-1037911
-1037866
-1037802
-1037886
-1037899
-1037730
-1037782
-1037601
-1037763
-1037705
-1037767
-1037694
-1037626
-1037368
-1037555
-1037556
-1037498
-1037544
-1037681
-1037722
-1037380
-1037428
-1037466
-1037522
-1037471
-1037625
-1037459
-1037505
-1037544
-1037579
-1037503
-1037401
-1037459
-1037589
-1037533
-1037456
-1037314
-1037407
-1037422
-1037389
-1037366
-1037333
-1037334
-1037317
-1037375
-1037348
-1037182
-1037165
-1037230
-1037258
-1037274
-1037121
-1037081
-1037089
-1037217
-1037054
-1036931
-1036963
-1037042
-1036959
-1036758
-1036792
-1036652
-1036770
-1036642
-1036626
-1036572
-1036446
-1036412
-1036480
-1036328
-1036355
-1036182
-1036231
-1036158
-1035913
-1035820
-1035553
-1035450
-1035318
-1035159
-1034885
-1034667
-1034341
-1034089
-1033797
-1033420
-1033260
-1033005
-1032508
-1032347
-1031937
-1031742
-1031271
-1031224
-1031012
-1030672
-1030392
-1030171
-1029829
-1029471
-1029282
-1029175
-1028917
-1028772
-1028465
-1028303
-1028130
-1028013
-1027532
-1027501
-1027491
-1027310
-1027253
-1027333
-1027268
-1027073
-1027010
-1026975
-1026999
-1026855
-1026665
-1026806
-1026859
-1026857
-1026705
-1026595
-1026582
-1026714
-1026679
-1026736
-1026663
-1026719
-1026724
-1026827
-1026806
-1026777
-1026778
-1026736
-1026634
-1026650
-1026760
-1026642
-1026731
-1026818
-1026779
-1026647
-1026604
-1026600
-1026643
-1026524
-1026568
-1026504
-1026434
-1026309
-1026323
-1026204
-1026070
-1026029
-1026003
-1025862
-1025626
-1025590
-1025426
-1025446
-1025177
-1025075
-1024887
-1024737
-1024526
-1024332
-1024130
-1023945
-1023878
-1023807
-1023482
-1023296
-1023074
-1022931
-1022866
-1022675
-1022412
-1022408
-1022263
-1022050
-1021953
-1021835
-1021783
-1021795
-1021670
-1021422
-1021395
-1021200
-1021216
-1021254
-1021230
-1021116
-1021201
-1021164
-1021255
-1021078
-1021065
-1021269
-1021179
-1021294
-1021358
-1021268
-1021324
-1021431
-1021482
-1021542
-1021579
-1021527
-1021595
-1021576
-1021700
-1021694
-1021700
-1021843
-1021868
-1021785
-1021683
-1021580
-1021682
-1021755
-1021770
-1021614
-1021497
-1021505
-1021533
-1021447
-1021266
-1021261
-1021190
-1021133
-1021005
-1020777
-1020776
-1020732
-1020695
-1020382
-1020260
-1020088
-1020052
-1020085
-1019852
-1019766
-1019271
-1019439
-1019316
-1019226
-1019084
-1018993
-1018776
-1018759
-1018608
-1018430
-1018317
-1018356
-1018164
-1018048
-1017888
-1017821
-1017764
-1017753
-1017581
-1017489
-1017571
-1017532
-1017456
-1017300
-1017291
-1017272
-1017335
-1017165
-1017054
-1017001
-1016917
-1016876
-1016912
-1016860
-1016689
-1016564
-1016752
-1016662
-1016543
-1016494
-1016504
-1016581
-1016462
-1016408
-1016399
-1016359
-1016440
-1016327
-1016133
-1016135
-1016081
-1016063
-1016043
-1015978
-1016250
-1016375
-1016454
-1016460
-1016440
-1016355
-1016293
-1016317
-1016251
-1016130
-1016030
-1016029
-1016047
-1016095
-1016007
-1015969
-1015846
-1015813
-1015708
-1015670
-1015624
-1015628
-1015606
-1015503
-1015562
-1015454
-1015423
-1015351
-1015295
-1015309
-1015262
-1015254
-1015208
-1015241
-1015229
-1015106
-1015227
-1015126
-1014986
-1014932
-1015019
-1014942
-1014924
-1014883
-1014779
-1014887
-1014794
-1014849
-1014640
-1014576
-1014583
-1014678
-1014640
-1014600
-1014428
-1014502
-1014563
-1014496
-1014519
-1014318
-1014351
-1014383
-1014278
-1014311
-1014250
-1014210
-1014150
-1014099
-1014147
-1013941
-1014839
-1014161
-1014013
-1014003
-1013863
-1013742
-1013732
-1013778
-1013777
-1013724
-1013776
-1013686
-1013556
-1013521
-1013470
-1013573
-1013605
-1013457
-1013424
-1013421
-1013526
-1013480
-1013401
-1013300
-1013393
-1013313
-1013284
-1013370
-1013189
-1013147
-1013197
-1013178
-1013148
-1013080
-1013035
-1013195
-1013042
-1013053
-1013024
-1013014
-1013163
-1013107
-1012974
-1012966
-1012963
-1012923
-1012988
-1012964
-1012953
-1012980
-1013021
-1012906
-1012938
-1012865
-1012942
-1012875
-1012870
-1012819
-1012920
-1012916
-1012789
-1012833
-1012827
-1012763
-1012715
-1012791
-1012849
-1012822
-1012668
-1012804
-1012776
-1012767
-1012838
-1012841
-1012768
-1012770
-1012721
-1012718
-1012574
-1012734
-1012637
-1012710
-1012598
-1012530
-1012541
-1012623
-1012587
-1012572
-1012464
-1012471
-1012603
-1012529
-1012509
-1012339
-1012344
-1012391
-1012397
-1012362
-1012316
-1012211
-1012288
-1012232
-1012170
-1012115
-1012164
-1012116
-1012998
-1012243
-1012111
-1012089
-1012167
-1012114
-1012020
-1012016
-1011883
-1011817
-1011947
-1011922
-1011721
-1011773
-1011829
-1011761
-1011663
-1011588
-1011636
-1011734
-1011723
-1011535
-1011522
-1011489
-1011452
-1011578
-1011547
-1011502
-1011500
-1011529
-1011593
-1011254
-1011305
-1011445
-1011576
-1011585
-1011447
-1011460
-1011455
-1011523
-1011504
-1011422
-1011477
-1011563
-1011591
-1011722
-1011556
-1011528
-1011535
-1011618
-1011639
-1011628
-1011661
-1011427
-1012400
-1011868
-1011707
-1011535
-1011582
-1011605
-1011692
-1011659
-1011495
-1011596
-1011599
-1011524
-1011557
-1011375
-1011319
-1011389
-1011543
-1011416
-1011401
-1011428
-1011410
-1011480
-1011339
-1011318
-1011204
-1011333
-1011279
-1011179
-1011040
-1011039
-1011111
-1011112
-1011024
-1010922
-1010828
-1010699
-1010687
-1010489
-1010364
-1010367
-1010156
-1009927
-1009775
-1009529
-1009267
-1009023
-1008888
-1008209
-1008158
-1007956
-1007610
-1007342
-1007108
-1006786
-1006428
-1006245
-1005971
-1005635
-1005337
-1005110
-1004846
-1004513
-1004210
-1003960
-1003670
-1003600
-1003234
-1003167
-1002946
-1002836
-1002603
-1002418
-1002300
-1002188
-1002094
-1002063
-1002069
-1001928
-1001697
-1001681
-1001680
-1001757
-1001599
-1001571
-1001642
-1001703
-1001657
-1001640
-1001671
-1001647
-1001659
-1001711
-1001730
-1001686
-1001796
-1001990
-1002013
-1001964
-1002053
-1002008
-1001999
-1002166
-1002112
-1002078
-1002101
-1002225
-1002342
-1002202
-1002200
-1002338
-1002353
-1002330
-1002412
-1003165
-1002579
-1002416
-1002436
-1002312
-1002220
-1002158
-1002208
-1002236
-1002172
-1002057
-1001952
-1001860
-1001768
-1001713
-1001588
-1001597
-1001546
-1001420
-1001266
-1001091
-1001104
-1000980
-1000963
-1000846
-1000654
-1000488
-1000359
-1000358
-1000248
-1000087
-1000016
-999897
-999880
-999733
-999556
-999641
-999562
-999409
-999474
-999327
-999261
-999318
-999307
-999142
-999177
-999288
-999255
-999297
-999262
-999296
-999433
-999450
-999460
-999559
-999614
-999608
-999660
-999807
-999429
-999837
-999872
-1000001
-1000000
-1000084
-1000052
-1000162
-1000204
-1000314
-1000370
-1000382
-1000282
-1000445
-1000605
-1000444
-1000422
-1000406
-1000478
-1000507
-1000502
-1000451
-1000405
-1000427
-1000450
-1000300
-1000262
-1000257
-1000361
-1000386
-1000254
-1000190
-1000222
-1000127
-1000051
-999877
-999893
-999804
-999845
-999831
-999650
-999556
-999457
-999382
-999415
-999295
-999117
-999131
-999104
-999458
-999142
-998844
-998929
-998899
-998741
-998646
-998612
-998584
-998665
-998503
-998470
-998529
-998573
-998468
-998611
-998504
-998439
-998403
-998438
-998659
-998505
-998418
-998422
-998626
-998661
-998490
-998563
-998553
-998687
-998772
-998678
-998755
-998695
-998766
-998817
-998866
-998861
-998812
-998956
-999034
-999013
-999038
-999033
-999024
-999092
-999158
-999189
-999307
-999344
-999327
-999262
-999317
-999429
-999450
-999524
-999342
-999373
-999374
-999246
-999462
-999516
-999477
-999559
-999597
-999703
-999577
-999514
-999551
-999711
-999766
-999560
-999579
-999696
-999787
-999841
-999834
-999703
-999740
-999875
-999880
-999820
-999627
-999631
-999747
-999867
-999785
-999671
-999678
-999675
-999727
-999670
-999696
-999741
-999822
-999855
-999843
-999812
-999874
-999941
-999913
-999768
-999834
-999923
-1000063
-1000103
-999960
-999948
-1000014
-1000062
-1000128
-1000059
-999984
-1000045
-1000173
-1000143
-1000136
-1000079
-1000107
-1000175
-1000224
-1000269
-1000242
-1000325
-1000328
-1000320
-1000394
-1000217
-1000404
-1000370
-1000563
-1000461
-1000433
-1000427
-1000601
-1000583
-1000622
-1000554
-1000671
-1000642
-1000737
-1000762
-1000843
-1000845
-1000883
-1000972
-1000956
-1000877
-1000860
-1000921
-1000971
-1000911
-1000906
-1001045
-1001152
-1001179
-1001065
-1001181
-1001201
-1001329
-1001266
-1001190
-1001217
-1001251
-1001336
-1001412
-1001310
-1001212
-1001350
-1001543
-1001563
-1001412
-1001342
-1001586
-1001546
-1001662
-1001621
-1001523
-1001606
-1001722
-1001733
-1001731
-1001696
-1001715
-1001747
-1001872
-1001773
-1001899
-1001870
-1001924
-1002053
-1002076
-1001957
-1002000
-1002053
-1002230
-1002152
-1002112
-1002242
-1002209
-1002276
-1002339
-1002262
-1002251
-1002389
-1002072
-1002203
-1002336
-1002445
-1002388
-1002434
-1002476
-1002478
-1002570
-1002651
-1002939
-1002421
-1002398
-1002594
-1002567
-1002612
-1002538
-1002444
-1002579
-1002573
-1002660
-1002694
-1002665
-1002624
-1002756
-1002743
-1002593
-1002598
-1002787
-1002913
-1002924
-1002743
-1002771
-1002733
-1002897
-1002967
-1002866
-1002947
-1002883
-1002985
-1003046
-1003049
-1002950
-1002978
-1003113
-1003142
-1003098
-1003124
-1003204
-1003279
-1003407
-1003255
-1003389
-1003365
-1003508
-1003621
-1003552
-1003484
-1003539
-1003733
-1003601
-1003787
-1003648
-1003731
-1003823
-1003941
-1003863
-1003885
-1004027
-1004060
-1003959
-1004048
-1004119
-1004042
-1004286
-1004196
-1004199
-1004051
-1004198
-1004385
-1004397
-1004356
-1004202
-1004376
-1004403
-1004577
-1004443
-1004362
-1004425
-1004503
-1004625
-1004659
-1004748
-1004705
-1004842
-1004831
-1004781
-1004865
-1004873
-1004970
-1004943
-1004959
-1004945
-1005045
-1005179
-1005213
-1005128
-1005195
-1005194
-1005291
-1005324
-1005399
-1005428
-1005524
-1005483
-1005574
-1005582
-1005563
-1005597
-1005743
-1005701
-1005722
-1005742
-1005797
-1005868
-1005844
-1005978
-1005963
-1005892
-1005983
-1005919
-1005839
-1005903
-1006014
-1006117
-1006047
-1006143
-1006097
-1006211
-1006100
-1006151
-1006102
-1006077
-1006066
-1006141
-1005945
-1005810
-1005729
-1005482
-1005418
-1005222
-1004989
-1004605
-1004453
-1004273
-1004097
-1003784
-1003431
-1003269
-1002938
-1002742
-1002373
-1002166
-1001894
-1001676
-1001340
-1001177
-1000897
-1000625
-1000530
-1000241
-1000000
-999672
-999665
-999449
-999205
-999012
-998955
-998783
-998714
-998679
-998434
-998500
-998473
-998580
-998497
-998495
-998270
-998414
-998524
-998554
-998440
-998375
-998430
-998627
-998620
-998688
-998546
-998640
-998867
-998836
-998898
-999048
-999074
-999150
-999153
-999321
-999296
-999292
-999482
-999391
-999458
-999418
-999609
-999771
-999896
-999752
-999830
-999815
-999969
-999903
-999909
-999959
-1000090
-1000195
-1000125
-1000031
-1000008
-1000116
-1000119
-1000118
-1000037
-999890
-999964
-1000005
-999892
-999764
-999665
-999669
-999702
-999489
-999393
-999386
-999296
-999200
-999100
-999004
-998894
-998869
-998790
-998550
-998520
-998243
-998293
-998239
-998205
-998098
-997958
-998007
-997963
-997883
-997620
-997380
-997548
-997785
-997706
-997754
-997734
-997695
-997697
-997703
-997765
-997690
-997808
-997871
-997904
-997934
-997833
-997942
-998057
-998074
-998080
-998092
-998235
-998246
-998247
-998150
-998139
-998151
-998383
-998420
-998261
-998237
-998293
-998281
-998439
-998361
-998296
-998283
-998216
-998258
-998089
-998128
-998057
-998115
-997978
-997835
-997771
-997830
-997697
-997753
-997498
-997393
-997340
-997368
-997456
-997232
-997169
-997166
-997202
-997022
-997043
-996761
-996712
-996850
-996697
-996590
-996693
-996547
-996646
-996624
-996582
-996533
-996480
-996592
-996476
-996464
-996460
-996391
-996462
-996570
-996478
-996527
-996557
-996659
-996638
-996527
-996613
-996702
-996758
-996735
-996605
-996586
-996732
-996764
-996869
-997419
-996955
-996907
-996953
-996877
-996912
-996900
-996975
-997133
-997105
-997093
-997117
-997137
-997251
-997301
-997278
-997169
-997315
-997464
-997418
-997433
-997392
-997587
-997549
-997621
-997435
-997388
-997441
-997602
-997588
-997549
-997440
-997475
-997596
-997559
-997632
-997535
-997625
-997647
-997601
-997723
-997683
-997787
-997687
-997765
-997610
-997647
-997717
-997742
-997768
-997777
-997666
-997806
-997875
-997791
-997697
-997621
-997595
-997621
-997663
-997591
-997621
-997627
-997756
-997662
-997545
-997568
-997584
-997565
-997544
-997538
-997567
-998622
-997838
-997577
-997461
-997161
-997431
-997543
-997376
-997459
-997453
-997452
-997493
-997400
-997465
-997365
-997395
-997495
-997432
-997425
-997403
-997462
-997463
-997415
-997316
-997293
-997433
-997403
-997482
-997436
-997133
-997301
-997463
-997545
-997411
-997310
-997360
-997426
-997382
-997418
-997378
-997443
-997495
-997449
-997520
-997450
-997560
-997490
-997647
-997640
-997578
-997585
-997665
-997676
-997646
-997693
-997786
-997886
-997756
-997661
-997828
-997923
-998003
-997891
-997816
-997880
-998058
-998032
-998093
-998134
-998034
-998048
-998178
-998180
-998112
-998141
-998249
-998349
-998382
-998364
-998341
-998337
-998412
-998438
-998484
-998532
-998560
-998609
-998540
-998555
-998608
-998659
-998755
-998739
-998788
-998773
-998872
-999010
-998932
-998953
-998911
-999066
-999217
-999124
-999070
-999122
-999207
-999287
-999336
-999405
-999340
-999465
-999476
-999498
-999465
-999500
-999634
-999752
-999675
-999637
-999809
-999908
-999903
-999913
-999969
-999954
-1000014
-1000215
-999865
-999996
-1000195
-1000328
-1000539
-1000431
-1000501
-1000397
-1000480
-1000669
-1000614
-1000622
-1000573
-1000698
-1000821
-1000720
-1000757
-1000894
-1000998
-1001071
-1001019
-1001010
-1001102
-1001169
-1001153
-1001152
-1001229
-1001214
-1001343
-1001464
-1001376
-1001373
-1001340
-1001487
-1001659
-1001686
-1001659
-1001633
-1001610
-1001715
-1001666
-1001815
-1001843
-1001933
-1002002
-1001899
-1001982
-1002023
-1002125
-1001910
-1002162
-1002296
-1002295
-1002256
-1002282
-1002283
-1002319
-1002443
-1002457
-1002593
-1002344
-1002458
-1002461
-1002587
-1002649
-1002780
-1002794
-1002832
-1002874
-1002987
-1002926
-1002887
-1002875
-1003020
-1003056
-1003070
-1002991
-1002938
-1003096
-1003233
-1003179
-1003178
-1003169
-1003268
-1003333
-1003330
-1003146
-1003216
-1003244
-1003159
-1003004
-1002995
-1002853
-1002755
-1002689
-1002638
-1002306
-1002213
-1001925
-1001836
-1001507
-1001142
-1000998
-1000706
-1000498
-1000149
-999852
-999594
-999445
-999189
-999058
-998645
-998415
-998085
-998066
-997836
-997603
-997359
-997283
-997040
-996954
-996796
-996495
-996458
-996434
-996166
-996160
-996065
-995946
-995949
-995963
-995844
-995850
-995911
-995901
-995858
-995823
-995950
-995965
-996078
-996138
-996262
-996208
-996340
-996439
-996464
-996490
-996639
-996802
-996808
-996928
-996947
-997037
-997099
-997298
-997254
-997341
-997383
-997496
-997587
-997554
-997544
-997611
-997830
-997890
-997945
-997856
-997893
-997937
-998133
-998117
-998123
-998044
-998006
-998113
-997978
-997915
-997907
-998012
-997867
-998517
-997998
-997761
-997662
-997719
-997598
-997380
-997238
-997243
-997104
-996989
-996869
-996851
-996802
-996416
-996508
-996404
-996410
-996408
-996299
-996140
-995969
-995933
-996034
-996032
-995977
-995888
-995778
-995772
-995686
-995680
-995538
-995649
-995735
-995761
-995636
-995722
-995791
-995822
-995757
-995839
-995888
-995911
-996098
-996007
-996059
-996067
-996013
-996106
-996276
-996287
-996241
-996320
-996317
-996518
-996344
-996442
-996604
-996575
-996634
-996623
-996702
-996703
-996750
-996774
-996789
-996776
-996775
-996752
-996946
-996765
-996695
-996746
-996713
-996835
-996847
-996679
-996577
-996690
-996606
-996612
-996416
-996424
-996390
-996326
-996219
-996054
-996078
-995994
-996068
-995917
-995813
-995597
-995724
-995848
-995819
-995628
-995547
-995592
-995622
-995661
-995598
-995524
-995462
-995506
-995590
-995487
-995496
-995504
-995653
-995611
-995535
-995496
-995559
-995735
-995661
-995729
-995786
-995758
-995841
-995901
-995896
-995823
-996041
-996133
-996089
-995959
-996040
-996110
-996172
-996086
-996143
-996164
-996340
-996266
-996393
-996404
-996392
-996478
-996439
-996364
-996425
-996493
-996532
-996567
-996612
-996628
-996557
-996655
-996789
-996657
-996622
-996695
-996814
-996714
-996804
-996852
-996873
-996927
-997009
-996871
-996880
-996874
-996878
-997014
-996947
-997026
-997078
-997134
-997127
-997090
-997107
-997111
-997118
-997183
-997209
-997284
-997325
-997422
-997309
-997315
-997333
-997386
-997409
-997465
-997548
-997527
-997501
-997453
-997488
-997449
-997390
-997603
-997576
-997578
-997606
-997520
-997539
-997614
-997746
-997726
-997557
-997585
-997742
-997833
-997770
-997737
-997725
-997715
-997687
-997748
-997602
-997766
-997807
-997841
-997787
-997857
-997977
-997932
-998033
-997968
-997927
-998023
-998062
-998061
-998067
-998017
-998132
-998142
-998171
-998197
-998194
-998215
-998187
-998376
-998385
-998409
-998420
-998341
-998458
-998478
-998371
-998540
-998620
-998672
-998579
-998649
-998660
-998655
-998862
-998770
-998733
-998754
-998875
-998796
-998967
-998860
-998973
-999024
-998975
-998914
-998918
-998921
-998829
-999075
-999106
-999141
-999177
-999222
-999356
-999265
-999644
-999413
-999331
-999390
-999362
-999296
-999219
-999389
-999237
-999272
-999280
-999228
-999284
-999304
-999314
-999285
-999221
-999295
-999384
-999406
-999306
-999327
-999411
-999471
-999505
-999305
-999351
-999448
-999534
-999514
-999427
-999476
-999493
-999516
-999550
-999533
-999623
-999611
-999790
-999667
-999702
-999551
-999802
-999816
-999838
-999817
-999751
-999918
-999901
-999914
-999788
-999984
-999848
-999883
-999983
-999981
-999979
-1000138
-1000165
-1000138
-1000178
-1000167
-1000340
-1000314
-1000337
-1000344
-1000247
-1000263
-1000433
-1000352
-1000296
-1000274
-1000448
-1000491
-1000478
-1000428
-1000575
-1000574
-1000672
-1000565
-1000560
-1000633
-1000688
-1000751
-1000743
-1001211
-1000911
-1000890
-1000819
-1000843
-1000839
-1000887
-1000859
-1000962
-1000922
-1000842
-1000893
-1000650
-1000933
-1001088
-1000990
-1001131
-1001221
-1002116
-1001509
-1001342
-1001264
-1001332
-1001500
-1001476
-1001519
-1001417
-1001548
-1001554
-1001661
-1001592
-1001665
-1001801
-1001734
-1001667
-1001872
-1001878
-1001810
-1001951
-1001885
-1001901
-1002054
-1002151
-1001978
-1001958
-1001950
-1002066
-1002142
-1002109
-1001974
-1001973
-1002015
-1002092
-1002152
-1002042
-1002065
-1002052
-1002075
-1002169
-1002027
-1002131
-1002200
-1002086
-1002226
-1002134
-1002025
-1002110
-1002202
-1002145
-1002019
-1001923
-1001932
-1001962
-1001768
-1001527
-1001298
-1001273
-1001065
-1000797
-1000538
-1000267
-999823
-999728
-999392
-999084
-998894
-998579
-998279
-997952
-997684
-997496
-997364
-997021
-996473
-996377
-996296
-996199
-996096
-995668
-995495
-995398
-995268
-995161
-995036
-994918
-994842
-994731
-994752
-994642
-994584
-994497
-994571
-994581
-994610
-994485
-994622
-994704
-994661
-994719
-994705
-994833
-994835
-995011
-995012
-995063
-995175
-995335
-995417
-995389
-995526
-995584
-995296
-995735
-995831
-995870
-995928
-995979
-996082
-996218
-996153
-996157
-996300
-996479
-996407
-996480
-996515
-996588
-996589
-996550
-996569
-996623
-996647
-996822
-996779
-996788
-996661
-996795
-996820
-996813
-996719
-996599
-996757
-996587
-996555
-996450
-996394
-996430
-996305
-996134
-996167
-996093
-996023
-995966
-995894
-995754
-995768
-995702
-995602
-995452
-995296
-995251
-995291
-995273
-995124
-995107
-995108
-995122
-994946
-994797
-994852
-994889
-994898
-994870
-994753
-994847
-994774
-994898
-994867
-994731
-994705
-994692
-994877
-994932
-994951
-995028
-995073
-995243
-995277
-995265
-995320
-995401
-995662
-995525
-995708
-995642
-995820
-995468
-995805
-995814
-995926
-996006
-996127
-995948
-995936
-996024
-996043
-996084
-996192
-996002
-996066
-996236
-996266
-996246
-996235
-996128
-996064
-996196
-996097
-995926
-995807
-996805
-996243
-996006
-995823
-995603
-995794
-995750
-995614
-995579
-995537
-995638
-995584
-995477
-995308
-995438
-995407
-995506
-995502
-995373
-995258
-995266
-995422
-995326
-995275
-995281
-995314
-995360
-996014
-995890
-996177
-995642
-995464
-995269
-995296
-995419
-995431
-995498
-995586
-995353
-995594
-995639
-995802
-995700
-995604
-995667
-995743
-995972
-996015
-996535
-996155
-996014
-996136
-995790
-995999
-996196
-996341
-996305
-996339
-996280
-996065
-996420
-996350
-996388
-996485
-996499
-996564
-996625
-996285
-996512
-996410
-996639
-996741
-996668
-996760
-996748
-996832
-996966
-996889
-996855
-996912
-996716
-996902
-996912
-996955
-996978
-997210
-997132
-997184
-996947
-997082
-996987
-997293
-997332
-997374
-997452
-997740
-997591
-997539
-997446
-997528
-997636
-997591
-997605
-997602
-997722
-997583
-997806
-997768
-997720
-997895
-998042
-998106
-998057
-997974
-998046
-998119
-998126
-998130
-998153
-998236
-998246
-998367
-998345
-998326
-998235
-998295
-998216
-998385
-998307
-998473
-998442
-998495
-998366
-998597
-998610
-998415
-998678
-998654
-998609
-998708
-998815
-998964
-998787
-998782
-998845
-999046
-999840
-999280
-999126
-999068
-999159
-999201
-999185
-999212
-999210
-1000116
-999713
-999484
-999567
-999478
-999578
-999695
-999688
-999669
-999834
-999958
-999967
-999873
-999944
-999989
-1000078
-1000161
-1000216
-1000284
-1000326
-1000357
-1000500
-1000462
-1000334
-1000433
-1000604
-1000589
-1000608
-1000661
-1000679
-1000806
-1000588
-1000695
-1000399
-1000700
-1000957
-1001032
-1001026
-1000977
-1001023
-1001217
-1002071
-1001537
-1001199
-1001066
-1001335
-1001398
-1001898
-1001293
-1001361
-1001461
-1002313
-1001748
-1001660
-1001756
-1001781
-1001845
-1001820
-1001776
-1001972
-1002009
-1001973
-1001925
-1002059
-1002172
-1002295
-1002252
-1002363
-1002316
-1002302
-1002480
-1003554
-1002889
-1002623
-1002651
-1002765
-1002800
-1002739
-1002687
-1002870
-1002890
-1002967
-1003039
-1002903
-1002948
-1003212
-1003149
-1003116
-1003183
-1003403
-1003435
-1003430
-1003490
-1003446
-1003576
-1003588
-1003780
-1003784
-1003808
-1003868
-1003970
-1003907
-1004023
-1003930
-1004067
-1004154
-1004269
-1004291
-1004294
-1004424
-1004390
-1004547
-1004517
-1004539
-1004614
-1004773
-1004721
-1004817
-1004737
-1004943
-1005054
-1005144
-1005044
-1004984
-1005197
-1005448
-1005353
-1005297
-1005339
-1005450
-1005495
-1005435
-1005412
-1005495
-1005619
-1005644
-1005701
-1005667
-1005741
-1005823
-1006319
-1005909
-1005828
-1005837
-1005961
-1006018
-1006075
-1005978
-1006069
-1006198
-1006255
-1006176
-1006251
-1006254
-1006451
-1006497
-1006454
-1006506
-1006484
-1006638
-1006758
-1006746
-1006748
-1006811
-1007019
-1007060
-1007083
-1007076
-1007228
-1007172
-1007313
-1007163
-1007271
-1007307
-1007423
-1007546
-1007409
-1007318
-1007364
-1007487
-1007538
-1007518
-1007461
-1007576
-1007674
-1007682
-1007711
-1007644
-1007768
-1007834
-1007902
-1007895
-1007937
-1007875
-1007871
-1007957
-1007958
-1007998
-1007952
-1007876
-1007926
-1007857
-1007644
-1007538
-1007486
-1007233
-1007025
-1006876
-1006711
-1006434
-1006293
-1006016
-1005749
-1005544
-1005300
-1005097
-1004719
-1004495
-1004320
-1004084
-1003812
-1003621
-1003351
-1003247
-1003072
-1002970
-1002653
-1002530
-1002488
-1002344
-1002339
-1002072
-1001998
-1001966
-1002044
-1001961
-1001993
-1001872
-1001905
-1001964
-1001990
-1001921
-1002024
-1002104
-1002279
-1002258
-1002285
-1002404
-1002575
-1002657
-1002732
-1002893
-1003032
-1003181
-1003402
-1003372
-1003517
-1003661
-1003776
-1003979
-1004016
-1004151
-1004113
-1004343
-1004534
-1004655
-1004624
-1004728
-1004925
-1005016
-1005207
-1005168
-1005201
-1005398
-1005441
-1005557
-1005666
-1005688
-1005836
-1006059
-1006094
-1006088
-1006028
-1006137
-1006249
-1006375
-1006340
-1006278
-1006368
-1006423
-1006465
-1006356
-1006428
-1006434
-1006541
-1006441
-1006429
-1006269
-1006226
-1006268
-1006167
-1006127
-1005991
-1006090
-1006006
-1006002
-1005990
-1005744
-1005820
-1005718
-1005538
-1005453
-1005357
-1005347
-1005343
-1005339
-1005162
-1005175
-1005072
-1005110
-1005088
-1004940
-1004847
-1005016
-1005030
-1004989
-1005006
-1004962
-1004988
-1005121
-1005254
-1005259
-1005095
-1005146
-1005310
-1005362
-1005358
-1005351
-1005477
-1005583
-1005575
-1005641
-1005523
-1005634
-1005814
-1005879
-1005803
-1005747
-1005876
-1006014
-1006018
-1005955
-1005921
-1005956
-1006087
-1006057
-1006031
-1006094
-1006193
-1006222
-1006240
-1006231
-1006209
-1006172
-1006304
-1006111
-1005955
-1005957
-1006046
-1006109
-1005881
-1005936
-1005857
-1005941
-1005832
-1005699
-1005572
-1005569
-1005688
-1005757
-1005556
-1005524
-1005604
-1005603
-1005491
-1005410
-1005376
-1005432
-1005484
-1005394
-1005320
-1005429
-1005499
-1005465
-1005469
-1005528
-1005430
-1005528
-1005547
-1005603
-1005532
-1005518
-1005567
-1005606
-1005784
-1005570
-1005669
-1005756
-1005761
-1005776
-1005769
-1005789
-1005997
-1005946
-1005965
-1005990
-1006070
-1006062
-1006236
-1006192
-1006142
-1006120
-1006279
-1006410
-1006417
-1006408
-1006485
-1006614
-1006546
-1006576
-1006634
-1006568
-1006690
-1006772
-1006796
-1006745
-1006646
-1006734
-1006994
-1006876
-1006886
-1006878
-1007053
-1007114
-1007162
-1007071
-1007194
-1007191
-1007269
-1007199
-1007081
-1007136
-1007190
-1007303
-1007366
-1007384
-1007413
-1007479
-1007382
-1007452
-1007455
-1007348
-1007383
-1007517
-1007452
-1007493
-1007320
-1007400
-1007513
-1007457
-1007465
-1007424
-1007447
-1007476
-1007443
-1007322
-1007409
-1007443
-1007476
-1007455
-1007372
-1007443
-1007436
-1007387
-1007502
-1007421
-1007410
-1007407
-1007447
-1007509
-1007504
-1007477
-1007587
-1007467
-1007458
-1007451
-1007411
-1007558
-1007644
-1007525
-1007495
-1007462
-1007508
-1007609
-1007513
-1007426
-1007546
-1007550
-1007647
-1007599
-1007614
-1007677
-1007586
-1007667
-1007628
-1007592
-1007545
-1007582
-1007566
-1007592
-1007572
-1007690
-1007668
-1007771
-1007696
-1007724
-1007541
-1007587
-1007760
-1007688
-1007739
-1007709
-1007793
-1007796
-1007785
-1007800
-1007636
-1007691
-1007806
-1007924
-1007940
-1007805
-1007924
-1007861
-1007868
-1007800
-1007848
-1007878
-1007954
-1007956
-1007955
-1007843
-1007977
-1008036
-1007956
-1008093
-1007948
-1008106
-1008156
-1008052
-1007993
-1008104
-1008225
-1008201
-1008213
-1008283
-1008306
-1008378
-1008463
-1008390
-1008400
-1008407
-1008521
-1008555
-1008588
-1008570
-1008540
-1008623
-1008583
-1008693
-1008642
-1008651
-1008609
-1008743
-1008811
-1008713
-1008663
-1008812
-1008881
-1008750
-1008651
-1008813
-1008919
-1008856
-1008898
-1008849
-1008985
-1008949
-1009077
-1009091
-1009013
-1009093
-1009129
-1009201
-1009190
-1009282
-1009317
-1009271
-1009421
-1009349
-1009326
-1009379
-1009465
-1009456
-1009526
-1009440
-1009511
-1009574
-1009590
-1009559
-1009563
-1009652
-1009583
-1009595
-1009607
-1009528
-1009542
-1009649
-1009695
-1009664
-1009750
-1009698
-1009748
-1009790
-1009908
-1009694
-1009724
-1009837
-1010014
-1010037
-1009990
-1009946
-1010056
-1010089
-1010112
-1009986
-1010086
-1010134
-1010186
-1010139
-1010194
-1010161
-1010327
-1010367
-1010310
-1010212
-1010346
-1010523
-1010601
-1010551
-1010409
-1010547
-1010529
-1010626
-1010680
-1010453
-1010548
-1010743
-1010725
-1010735
-1010749
-1010659
-1010667
-1010852
-1010716
-1010833
-1010824
-1010810
-1010893
-1010853
-1010845
-1010902
-1010981
-1010975
-1010988
-1010964
-1010923
-1011048
-1010988
-1011046
-1010978
-1011056
-1010940
-1010931
-1010671
-1010586
-1010480
-1010295
-1010177
-1009870
-1009675
-1009419
-1009181
-1008992
-1008789
-1008337
-1008107
-1007789
-1007635
-1007349
-1007087
-1006864
-1006676
-1006451
-1006068
-1005758
-1005629
-1005418
-1005310
-1004984
-1004766
-1004560
-1004592
-1004571
-1004350
-1004120
-1003979
-1003798
-1003898
-1003739
-1003631
-1003576
-1003663
-1003645
-1003538
-1003636
-1003692
-1003741
-1003796
-1003857
-1003753
-1003941
-1004029
-1004106
-1004114
-1004235
-1004285
-1004488
-1004585
-1004694
-1004764
-1004718
-1004968
-1005027
-1005122
-1005176
-1005312
-1005307
-1005539
-1005515
-1005649
-1005672
-1005885
-1006010
-1005958
-1005976
-1006057
-1006241
-1006197
-1006203
-1006283
-1006176
-1006235
-1006370
-1006452
-1006426
-1006351
-1006338
-1006465
-1006452
-1006491
-1006458
-1006454
-1006489
-1006323
-1006205
-1006273
-1006200
-1006194
-1006101
-1006153
-1005985
-1005947
-1005954
-1005835
-1005848
-1005783
-1005638
-1005620
-1005584
-1005414
-1005362
-1005332
-1005183
-1005056
-1004955
-1004923
-1004939
-1004861
-1004813
-1004771
-1004783
-1004829
-1004913
-1004773
-1004704
-1004736
-1004714
-1004851
-1004816
-1004650
-1004620
-1004825
-1004854
-1004816
-1004719
-1004772
-1004885
-1005006
-1004917
-1005001
-1005062
-1005033
-1005038
-1004989
-1005059
-1005109
-1005187
-1005199
-1005245
-1005226
-1005097
-1005227
-1005328
-1005329
-1005168
-1005151
-1005199
-1005305
-1005310
-1005284
-1005181
-1005369
-1005386
-1005317
-1005255
-1005176
-1005218
-1005217
-1005052
-1004991
-1004925
-1005083
-1004930
-1004882
-1004848
-1004794
-1004814
-1004905
-1004880
-1004708
-1004614
-1004751
-1004789
-1004752
-1004699
-1004665
-1004613
-1004646
-1004752
-1004658
-1004716
-1004795
-1004763
-1004720
-1004685
-1004664
-1004682
-1004892
-1004842
-1004840
-1004838
-1004950
-1005017
-1005051
-1004972
-1004862
-1004941
-1005113
-1004968
-1005036
-1004982
-1005168
-1005230
-1005143
-1005077
-1005125
-1005345
-1005363
-1005200
-1005093
-1005302
-1005349
-1005418
-1005326
-1005255
-1005370
-1005407
-1005549
-1005486
-1005334
-1005356
-1005551
-1005550
-1005496
-1005501
-1005486
-1005654
-1005675
-1005651
-1005593
-1005614
-1005684
-1005688
-1005677
-1005494
-1005535
-1005722
-1005821
-1005610
-1005557
-1005585
-1005747
-1005694
-1005788
-1005737
-1005670
-1005803
-1005845
-1005789
-1005800
-1005790
-1005721
-1005788
-1005672
-1005772
-1005888
-1005895
-1005886
-1005860
-1005962
-1005903
-1006135
-1006028
-1005907
-1005929
-1006060
-1006091
-1006092
-1006080
-1006111
-1006143
-1006244
-1006083
-1006053
-1006210
-1006216
-1006286
-1006342
-1006322
-1006267
-1006188
-1006144
-1006186
-1006253
-1006167
-1006083
-1006288
-1006256
-1006246
-1006241
-1006224
-1006147
-1006227
-1006211
-1006169
-1006052
-1006212
-1006228
-1006197
-1006130
-1006216
-1006161
-1006247
-1006136
-1006081
-1006008
-1006128
-1006007
-1006069
-1006057
-1005970
-1006108
-1006211
-1006091
-1006196
-1006147
-1006415
-1006458
-1006281
-1006286
-1006394
-1006411
-1006535
-1006472
-1006565
-1006693
-1006638
-1006602
-1006608
-1006751
-1006747
-1006790
-1006713
-1006796
-1006816
-1006975
-1006913
-1006898
-1006946
-1006998
-1007015
-1006971
-1007031
-1006974
-1007077
-1007177
-1007185
-1007319
-1007217
-1007276
-1007208
-1007376
-1007443
-1007265
-1007326
-1007418
-1007525
-1007507
-1007406
-1007411
-1007533
-1007518
-1007460
-1007491
-1007673
-1007691
-1007784
-1007740
-1007801
-1007764
-1007924
-1007809
-1007836
-1007724
-1007764
-1007926
-1007955
-1007820
-1007908
-1007720
-1007879
-1007967
-1007830
-1007918
-1007913
-1008056
-1008024
-1008044
-1007989
-1007993
-1007975
-1008144
-1008142
-1008193
-1008109
-1008206
-1008361
-1008366
-1008480
-1008627
-1008715
-1008739
-1008704
-1008644
-1008671
-1008778
-1008903
-1008814
-1008850
-1008900
-1008843
-1008895
-1008869
-1008916
-1008945
-1009130
-1009167
-1009087
-1009026
-1009059
-1009240
-1009288
-1009290
-1009295
-1009264
-1009385
-1009400
-1009447
-1009386
-1009507
-1009713
-1009742
-1009880
-1009773
-1009805
-1009934
-1010094
-1010076
-1010106
-1009960
-1010189
-1010376
-1010454
-1010346
-1010494
-1010635
-1010660
-1010629
-1010681
-1010700
-1010767
-1010796
-1010807
-1010810
-1010976
-1010923
-1011029
-1010992
-1010999
-1011125
-1011257
-1011228
-1011188
-1011165
-1011166
-1011125
-1011196
-1011098
-1011257
-1011359
-1011326
-1011385
-1011262
-1011252
-1010939
-1011128
-1011075
-1010962
-1010873
-1010836
-1010653
-1010364
-1010088
-1009880
-1009657
-1009417
-1009206
-1008910
-1008632
-1008510
-1008095
-1007726
-1007498
-1007229
-1007100
-1006903
-1006631
-1006381
-1006166
-1005944
-1005872
-1005657
-1005370
-1005209
-1005063
-1004915
-1004714
-1004628
-1004538
-1004634
-1004484
-1004294
-1004174
-1004150
-1004191
-1004275
-1004260
-1004142
-1004251
-1004302
-1004461
-1004443
-1004425
-1004473
-1004677
-1004757
-1004796
-1004703
-1004841
-1005033
-1005188
-1005156
-1005138
-1005369
-1005474
-1005501
-1005547
-1005764
-1005818
-1005801
-1005892
-1005909
-1006045
-1006064
-1006317
-1006284
-1006271
-1006297
-1006554
-1006600
-1006661
-1006683
-1006670
-1006817
-1006815
-1006921
-1007043
-1006877
-1006990
-1007024
-1007204
-1007015
-1007033
-1007163
-1006781
-1006868
-1006885
-1006830
-1006894
-1006831
-1006799
-1006603
-1006517
-1006512
-1006523
-1006261
-1006285
-1006239
-1005939
-1006077
-1006087
-1005949
-1005905
-1005725
-1005783
-1005720
-1005534
-1005521
-1005565
-1005445
-1005340
-1005213
-1005235
-1005282
-1005410
-1005345
-1005251
-1005168
-1005279
-1005394
-1005368
-1005495
-1005561
-1005654
-1005665
-1005739
-1005766
-1005977
-1005999
-1006002
-1006046
-1006062
-1006260
-1006382
-1006385
-1006298
-1006442
-1006506
-1006546
-1006677
-1006700
-1006667
-1006708
-1006773
-1006777
-1006881
-1006893
-1006995
-1006984
-1006920
-1006984
-1007048
-1007210
-1007143
-1007146
-1007160
-1007196
-1007236
-1007134
-1007013
-1007040
-1007037
-1007167
-1006999
-1007025
-1006878
-1006886
-1007004
-1006941
-1006779
-1006821
-1006907
-1006803
-1006739
-1006741
-1006642
-1006513
-1006643
-1006662
-1006415
-1006781
-1006641
-1006525
-1006412
-1006450
-1006411
-1006368
-1006469
-1006558
-1006425
-1006314
-1006377
-1006475
-1006457
-1006508
-1006445
-1006484
-1006633
-1006623
-1006609
-1006529
-1006535
-1006758
-1006809
-1006765
-1006781
-1006898
-1006984
-1006935
-1006869
-1007815
-1007207
-1007182
-1007235
-1007042
-1007070
-1007167
-1007218
-1007206
-1007203
-1007213
-1007304
-1007398
-1007359
-1007305
-1007485
-1007576
-1007543
-1007663
-1007629
-1007645
-1007709
-1007798
-1007662
-1007680
-1007725
-1007770
-1007824
-1007841
-1007713
-1007758
-1007939
-1007886
-1007982
-1007996
-1007905
-1008060
-1008020
-1008106
-1008123
-1008113
-1007979
-1008150
-1008165
-1008061
-1008104
-1008116
-1008130
-1008247
-1008152
-1008087
-1008250
-1008348
-1008384
-1008250
-1008220
-1008122
-1008249
-1008243
-1008163
-1008103
-1008069
-1008161
-1008236
-1008260
-1008215
-1008139
-1008158
-1008240
-1008277
-1008128
-1008134
-1008254
-1008330
-1008286
-1008184
-1008255
-1008232
-1008331
-1008372
-1008313
-1008431
-1008424
-1008425
-1008254
-1008319
-1008335
-1008518
-1008517
-1008469
-1008441
-1008521
-1008527
-1008542
-1008627
-1008586
-1008630
-1008711
-1008670
-1008542
-1008487
-1008559
-1008735
-1008766
-1008632
-1008564
-1008672
-1008732
-1008573
-1008695
-1008717
-1008852
-1008780
-1008748
-1008744
-1008757
-1008763
-1008662
-1008796
-1008876
-1008857
-1008979
-1008951
-1009013
-1008998
-1008906
-1008946
-1008996
-1009050
-1009099
-1008933
-1008969
-1009015
-1009138
-1009196
-1009131
-1009172
-1009362
-1009219
-1009198
-1009356
-1009267
-1009411
-1009463
-1009480
-1009427
-1009327
-1009538
-1009516
-1009517
-1009466
-1009588
-1009581
-1009595
-1009593
-1009470
-1009615
-1009603
-1009717
-1009611
-1009654
-1009803
-1009812
-1009765
-1009797
-1009831
-1009696
-1009830
-1009875
-1009834
-1009840
-1009919
-1009994
-1009959
-1009666
-1009898
-1009880
-1010008
-1009969
-1010080
-1010001
-1010058
-1010251
-1010190
-1010071
-1010162
-1010260
-1010248
-1010182
-1010179
-1010203
-1010351
-1010494
-1010403
-1010380
-1010388
-1010398
-1010605
-1010642
-1010619
-1010328
-1010684
-1010692
-1010710
-1010691
-1010643
-1010847
-1010991
-1010972
-1010892
-1010797
-1010714
-1010966
-1011065
-1011006
-1011046
-1011150
-1011079
-1011239
-1011057
-1011035
-1011169
-1011315
-1011364
-1011296
-1011263
-1011295
-1011261
-1011435
-1011430
-1011243
-1011932
-1011615
-1011490
-1011330
-1011417
-1011452
-1011518
-1011580
-1011513
-1011565
-1011660
-1011656
-1011628
-1011514
-1011487
-1011590
-1011748
-1011580
-1011544
-1011510
-1011555
-1011691
-1011768
-1011631
-1011753
-1011858
-1011900
-1011872
-1011861
-1011730
-1011922
-1011925
-1012000
-1012014
-1012007
-1012077
-1012066
-1012001
-1012092
-1012023
-1012035
-1012089
-1012042
-1012161
-1012114
-1012168
-1012221
-1012319
-1012192
-1012235
-1012208
-1012267
-1012311
-1012344
-1012347
-1012409
-1012439
-1012354
-1012246
-1012241
-1012288
-1012346
-1012325
-1012352
-1012388
-1012321
-1012384
-1012406
-1012378
-1012450
-1012392
-1012486
-1012549
-1012534
-1012392
-1012447
-1012449
-1012340
-1012113
-1011933
-1011934
-1011796
-1011569
-1011308
-1011025
-1010851
-1010540
-1010227
-1009919
-1009656
-1009420
-1009182
-1008827
-1008513
-1008071
-1007900
-1007769
-1007553
-1007191
-1006876
-1006725
-1006514
-1006264
-1006006
-1005836
-1005667
-1005553
-1005348
-1005079
-1004833
-1004878
-1004866
-1004630
-1004445
-1004371
-1004429
-1004430
-1004377
-1004257
-1004379
-1004431
-1004418
-1004472
-1004394
-1004427
-1004588
-1004722
-1004648
-1004787
-1004761
-1004875
-1005100
-1005158
-1005004
-1005019
-1005277
-1005342
-1005481
-1005453
-1005550
-1005636
-1005780
-1005794
-1005733
-1005848
-1005894
-1005887
-1005847
-1005844
-1005983
-1006180
-1006084
-1006165
-1006150
-1006285
-1006257
-1006267
-1006300
-1006244
-1006269
-1006305
-1006209
-1006165
-1006082
-1006087
-1006040
-1005953
-1006222
-1006029
-1005978
-1005954
-1005751
-1005630
-1005541
-1005431
-1005439
-1005332
-1005163
-1005076
-1005061
-1004876
-1004794
-1004715
-1004525
-1004537
-1004453
-1004295
-1004050
-1003954
-1003946
-1003903
-1003848
-1003627
-1003279
-1003416
-1003414
-1003357
-1003233
-1003151
-1003283
-1003286
-1003263
-1003156
-1003139
-1003269
-1003326
-1003152
-1003146
-1003282
-1003271
-1003357
-1003257
-1003246
-1003394
-1004027
-1003611
-1003457
-1003568
-1003540
-1003616
-1003523
-1003492
-1003514
-1003611
-1003668
-1003729
-1003675
-1003732
-1003759
-1003678
-1003715
-1003636
-1003648
-1003592
-1003640
-1003764
-1003755
-1003674
-1003600
-1003576
-1003573
-1003535
-1003474
-1003454
-1003452
-1003420
-1003324
-1003153
-1003071
-1003104
-1003100
-1002810
-1002897
-1002834
-1002819
-1002782
-1002709
-1002575
-1002607
-1002646
-1002594
-1002605
-1002421
-1002379
-1002488
-1002498
-1002424
-1002398
-1002375
-1002494
-1002397
-1002329
-1002348
-1002456
-1002921
-1002464
-1002463
-1002429
-1002533
-1002488
-1002436
-1002449
-1002487
-1002628
-1002657
-1002652
-1002555
-1002683
-1002716
-1002837
-1002862
-1002682
-1002686
-1002927
-1002848
-1002893
-1002852
-1002878
-1002897
-1003055
-1002953
-1003455
-1003250
-1003197
-1003168
-1003216
-1003162
-1003203
-1003368
-1003378
-1003345
-1003265
-1003267
-1003402
-1003467
-1003372
-1003385
-1003352
-1003550
-1003569
-1003532
-1003388
-1003480
-1003645
-1003611
-1003655
-1003576
-1003570
-1003718
-1003687
-1003773
-1004469
-1003890
-1003911
-1003834
-1003799
-1003800
-1003743
-1003857
-1003930
-1003786
-1003843
-1003727
-1003810
-1003835
-1003792
-1003874
-1003940
-1003907
-1003902
-1004001
-1003924
-1003881
-1003909
-1003946
-1004066
-1003889
-1003987
-1004019
-1004172
-1004107
-1004026
-1004056
-1003972
-1004122
-1004732
-1004273
-1004140
-1004326
-1004482
-1004456
-1004316
-1004373
-1004091
-1004326
-1004425
-1004419
-1004435
-1004607
-1004706
-1004662
-1004505
-1004259
-1004558
-1004694
-1004579
-1004600
-1004634
-1004765
-1004708
-1004586
-1004630
-1004602
-1004737
-1004781
-1004736
-1004688
-1004781
-1004845
-1004865
-1004801
-1004751
-1004898
-1005053
-1005136
-1005149
-1005050
-1005135
-1005198
-1005164
-1005309
-1005195
-1005285
-1005343
-1005332
-1005323
-1005332
-1005314
-1005411
-1005538
-1005596
-1005460
-1005515
-1005698
-1005797
-1005621
-1005681
-1005682
-1005865
-1005976
-1005937
-1005723
-1005822
-1005921
-1006047
-1006037
-1006053
-1006006
-1006009
-1006107
-1006097
-1006037
-1006095
-1006158
-1006354
-1006230
-1006364
-1006015
-1006364
-1007228
-1006667
-1006438
-1006548
-1006614
-1006543
-1006519
-1006596
-1006630
-1006649
-1006835
-1006852
-1006866
-1006842
-1006880
-1007047
-1006990
-1006768
-1006849
-1007064
-1007034
-1007117
-1007105
-1007201
-1007258
-1007360
-1007206
-1007153
-1007236
-1007432
-1007436
-1007359
-1007152
-1007428
-1007467
-1007604
-1007598
-1007576
-1007558
-1007749
-1007718
-1007809
-1007774
-1007841
-1007942
-1007922
-1007923
-1007985
-1008024
-1008130
-1007831
-1008065
-1008095
-1008127
-1008385
-1008406
-1008352
-1008368
-1008385
-1008414
-1008609
-1008533
-1008459
-1008589
-1008747
-1008702
-1008721
-1008708
-1008771
-1008882
-1009078
-1009117
-1009032
-1009047
-1009141
-1009197
-1009163
-1009147
-1009261
-1009301
-1009462
-1009448
-1009186
-1009405
-1009576
-1009623
-1009701
-1009688
-1009766
-1009813
-1009904
-1009849
-1009822
-1010267
-1010173
-1010197
-1010174
-1010041
-1010070
-1010177
-1009796
-1010136
-1010124
-1010134
-1010350
-1010382
-1010398
-1010262
-1010472
-1010547
-1010561
-1010489
-1010541
-1010554
-1010641
-1010763
-1010707
-1010596
-1010710
-1010862
-1010998
-1010916
-1010857
-1010959
-1010991
-1011109
-1011034
-1011062
-1011110
-1011170
-1011233
-1011300
-1011315
-1011292
-1011516
-1011645
-1011636
-1011554
-1011579
-1011708
-1011765
-1011741
-1011773
-1011780
-1011948
-1012045
-1011959
-1012064
-1012062
-1012199
-1012255
-1012200
-1012217
-1012310
-1012442
-1012371
-1012375
-1012451
-1012604
-1012586
-1012667
-1012733
-1012610
-1012586
-1012833
-1012776
-1012665
-1012636
-1012707
-1012912
-1012825
-1012898
-1012801
-1012912
-1013389
-1013081
-1012929
-1012855
-1012852
-1012776
-1012740
-1012676
-1012491
-1012244
-1012119
-1012005
-1011723
-1011436
-1011141
-1010922
-1010736
-1010669
-1010259
-1009584
-1009522
-1009250
-1008991
-1008584
-1008253
-1008122
-1007888
-1007554
-1007214
-1007073
-1006870
-1006761
-1006425
-1006190
-1006112
-1005894
-1005848
-1005590
-1005491
-1005413
-1005370
-1005211
-1005124
-1004970
-1005068
-1005089
-1005025
-1005066
-1004878
-1004900
-1005052
-1005090
-1005914
-1005243
-1005157
-1005369
-1005331
-1005330
-1005323
-1005488
-1005536
-1005752
-1005723
-1005794
-1005910
-1006200
-1006156
-1006209
-1006000
-1006409
-1006524
-1006596
-1006760
-1006736
-1006809
-1007129
-1007225
-1007216
-1007225
-1007307
-1007549
-1007652
-1007680
-1007670
-1007797
-1007781
-1007847
-1008028
-1007994
-1008125
-1008168
-1008336
-1008321
-1008220
-1008173
-1008336
-1008313
-1008281
-1008203
-1008243
-1008305
-1008389
-1008157
-1008018
-1008016
-1007995
-1008064
-1007875
-1007699
-1007831
-1007680
-1007668
-1007504
-1007440
-1007204
-1007262
-1007135
-1007067
-1006808
-1006738
-1006768
-1006744
-1006577
-1006336
-1006383
-1006391
-1006283
-1006270
-1006218
-1006043
-1006219
-1006253
-1006165
-1006048
-1006134
-1006158
-1006324
-1006255
-1006219
-1006351
-1006514
-1006420
-1006424
-1006483
-1006541
-1006594
-1006755
-1006676
-1006609
-1006712
-1006801
-1006977
-1006919
-1006949
-1006866
-1007121
-1007192
-1007028
-1007103
-1007212
-1007258
-1007291
-1007200
-1007211
-1007258
-1007210
-1007238
-1007353
-1007196
-1007161
-1007248
-1007276
-1007173
-1007222
-1007189
-1007196
-1007252
-1007069
-1006956
-1006933
-1007059
-1006946
-1006890
-1006693
-1006814
-1006751
-1006709
-1006603
-1006637
-1007393
-1006923
-1006786
-1006649
-1006485
-1006516
-1006634
-1006585
-1006511
-1006984
-1006586
-1006526
-1006418
-1006489
-1006501
-1006487
-1006621
-1006520
-1006486
-1006518
-1006450
-1006482
-1006602
-1006566
-1006382
-1006452
-1006587
-1006581
-1006710
-1006616
-1006698
-1006499
-1006909
-1006724
-1006809
-1006856
-1006776
-1006910
-1006879
-1006918
-1006966
-1007139
-1007063
-1006987
-1006799
-1006980
-1007169
-1007158
-1007149
-1007151
-1007200
-1007325
-1007400
-1007416
-1007433
-1007346
-1007520
-1007466
-1007433
-1007545
-1007541
-1007598
-1007684
-1007699
-1007755
-1007868
-1007940
-1007900
-1007968
-1007893
-1007946
-1008024
-1008100
-1008074
-1008007
-1008189
-1008283
-1008342
-1008260
-1008217
-1008225
-1008254
-1008174
-1008169
-1008204
-1008251
-1008399
-1008416
-1008381
-1008260
-1008245
-1008275
-1008405
-1008268
-1008389
-1008342
-1008266
-1008363
-1008347
-1008379
-1008229
-1008308
-1008271
-1008347
-1008323
-1008268
-1008353
-1008275
-1008154
-1008226
-1008267
-1008369
-1008355
-1008260
-1008262
-1008193
-1008269
-1008312
-1008274
-1008223
-1008261
-1008323
-1008402
-1008165
-1008227
-1008280
-1008389
-1008258
-1008252
-1008171
-1008262
-1008268
-1008312
-1008172
-1008118
-1008257
-1008344
-1008321
-1008260
-1008289
-1008317
-1008278
-1008334
-1008313
-1008167
-1008304
-1008294
-1008403
-1008821
-1008494
-1009133
-1008611
-1008275
-1008356
-1008333
-1008393
-1008390
-1008433
-1008444
-1008481
-1008394
-1008615
-1008633
-1008638
-1008577
-1008588
-1008598
-1008604
-1008587
-1008564
-1008747
-1008850
-1008741
-1008702
-1008769
-1008793
-1008788
-1008953
-1008806
-1008764
-1008879
-1008900
-1008956
-1008810
-1008795
-1008914
-1008959
-1009032
-1008978
-1008827
-1008939
-1008917
-1008864
-1008886
-1008764
-1008915
-1008936
-1009044
-1008919
-1008964
-1008885
-1008980
-1008965
-1008961
-1008854
-1008907
-1009705
-1009186
-1008896
-1009550
-1009106
-1009019
-1008931
-1008949
-1008956
-1009037
-1009169
-1009078
-1008988
-1008967
-1009003
-1009056
-1009217
-1009060
-1009154
-1009224
-1009336
-1009187
-1009077
-1009153
-1009239
-1009318
-1009309
-1009274
-1009351
-1009337
-1009283
-1009339
-1009273
-1009317
-1009259
-1009342
-1009413
-1009418
-1009301
-1009475
-1009496
-1009537
-1009431
-1009362
-1009528
-1009674
-1009641
-1009568
-1009491
-1009515
-1009599
-1009539
-1009603
-1009537
-1009719
-1009694
-1009753
-1009742
-1009765
-1009714
-1010174
-1009830
-1009790
-1009704
-1009838
-1009681
-1009705
-1009768
-1009770
-1009903
-1009898
-1009806
-1009786
-1009829
-1009880
-1009976
-1010062
-1009988
-1010015
-1009995
-1010011
-1010100
-1010033
-1010029
-1010111
-1010240
-1010247
-1010225
-1010179
-1010169
-1010266
-1010430
-1010282
-1010347
-1010364
-1010448
-1010456
-1010353
-1010398
-1010993
-1010621
-1010528
-1010455
-1010416
-1010340
-1010547
-1010480
-1010489
-1010441
-1010534
-1010663
-1010543
-1010482
-1010424
-1010425
-1010436
-1010597
-1010494
-1010439
-1010459
-1010501
-1010442
-1010503
-1010377
-1010523
-1010600
-1010520
-1010475
-1010426
-1010479
-1010455
-1010418
-1010376
-1010136
-1009952
-1010019
-1009914
-1009642
-1009387
-1009227
-1009106
-1008737
-1008464
-1008193
-1007547
-1007608
-1007385
-1007038
-1006752
-1006542
-1006145
-1006011
-1005674
-1005277
-1005096
-1004837
-1004573
-1004325
-1004030
-1003895
-1003613
-1003388
-1003135
-1002950
-1002823
-1002747
-1002578
-1002381
-1002151
-1002088
-1002166
-1002007
-1001950
-1001867
-1001767
-1001733
-1001860
-1001732
-1001620
-1001682
-1001783
-1001821
-1001798
-1001802
-1001871
-1001878
-1002049
-1002020
-1002061
-1003129
-1002520
-1002404
-1002440
-1002361
-1002552
-1002635
-1002755
-1002733
-1002630
-1002661
-1002914
-1002918
-1002866
-1002860
-1002996
-1003092
-1003221
-1003237
-1003201
-1003244
-1003392
-1003370
-1003286
-1003322
-1003361
-1003566
-1003450
-1003421
-1003440
-1003570
-1003551
-1003448
-1003286
-1003368
-1003445
-1003419
-1003271
-1003300
-1003177
-1003265
-1003266
-1003101
-1003102
-1003688
-1002854
-1002888
-1002819
-1002609
-1002479
-1002451
-1002372
-1002215
-1002109
-1001973
-1001983
-1001853
-1001783
-1001710
-1001522
-1001508
-1001430
-1001353
-1001303
-1001203
-1001282
-1001347
-1001315
-1001159
-1001195
-1001101
-1001183
-1001164
-1001148
-1001199
-1001236
-1001245
-1001268
-1001278
-1001176
-1001106
-1001216
-1001303
-1001323
-1001312
-1001309
-1001398
-1001418
-1001280
-1001233
-1001370
-1001375
-1001400
-1001219
-1001295
-1001203
-1001207
-1001147
-1001181
-1001127
-1001101
-1001252
-1001102
-1001045
-1001095
-1001039
-1000876
-1000747
-1000726
-1000669
-1000576
-1000522
-1000437
-1000276
-1000282
-1000201
-1000056
-999981
-1000008
-999852
-999913
-999823
-999628
-999583
-999579
-999646
-999555
-999447
-999370
-999415
-999342
-999232
-999239
-999270
-999334
-999275
-999211
-999183
-999138
-999156
-999134
-999242
-999165
-999099
-999125
-999159
-999169
-999240
-999260
-999252
-999375
-999374
-999259
-999937
-999184
-999404
-999472
-999441
-999513
-999523
-999692
-999647
-999665
-999390
-999603
-999701
-999845
-999816
-999757
-999804
-999959
-999981
-999826
-999686
-999970
-999955
-999969
-999925
-999853
-999813
-1000085
-1000137
-999962
-1000069
-999852
-999965
-1000059
-1000038
-1000025
-1000153
-1000172
-1000019
-999904
-999996
-999966
-1000054
-999949
-1000026
-1000056
-1000098
-1000070
-1000021
-999902
-1000767
-1000166
-1000131
-999977
-999936
-999934
-999950
-1000005
-999898
-999841
-999856
-999877
-999814
-999847
-999788
-999739
-999797
-999907
-999762
-999796
-999696
-999868
-999843
-999908
-999865
-999719
-999888
-999905
-999885
-999771
-999811
-999877
-999765
-999661
-999567
-999645
-999621
-999667
-999700
-999535
-999608
-999530
-999670
-999359
-999478
-999459
-999268
-999581
-999625
-999494
-999456
-999465
-999547
-999638
-999551
-999516
-999454
-999620
-999758
-999641
-999598
-999617
-999638
-999661
-999598
-999625
-999804
-999796
-999769
-999675
-999799
-999858
-1000587
-999987
-1000597
-1000057
-999991
-1000054
-1000011
-1000082
-1000018
-1000022
-1000221
-1000260
-1000056
-1000093
-1000201
-1000355
-1000216
-1000351
-1000353
-1000433
-1000429
-1000501
-1000445
-1000456
-1000567
-1000520
-1000564
-1000476
-1000505
-1000573
-1000652
-1000608
-1000361
-1000582
-1000712
-1000792
-1000671
-1000770
-1000600
-1000596
-1000735
-1000682
-1000670
-1000784
-1000801
-1000742
-1000727
-1000594
-1000726
-1000807
-1000796
-1000871
-1000811
-1000794
-1000864
-1000954
-1001745
-1001157
-1000888
-1000881
-1000853
-1000803
-1000795
-1000887
-1000870
-1000913
-1001006
-1000983
-1001078
-1001129
-1001106
-1001032
-1000925
-1000983
-1001062
-1001082
-1001083
-1000994
-1000907
-1001168
-1001174
-1001173
-1001139
-1001170
-1001288
-1001172
-1001213
-1001167
-1001258
-1001273
-1001237
-1001298
-1001218
-1001170
-1001211
-1001392
-1001446
-1001391
-1001323
-1001410
-1001475
-1001404
-1001290
-1001299
-1001307
-1001390
-1001340
-1001304
-1001461
-1001438
-1001568
-1001491
-1001544
-1001508
-1001547
-1001556
-1001614
-1001643
-1001624
-1001790
-1001750
-1001708
-1001801
-1001770
-1001831
-1001838
-1001872
-1001955
-1001919
-1002049
-1002063
-1001945
-1002016
-1002041
-1002150
-1002135
-1002002
-1002177
-1002222
-1002264
-1002245
-1002271
-1002325
-1002256
-1002231
-1002170
-1002229
-1002106
-1002205
-1002316
-1002269
-1002282
-1002162
-1002221
-1002283
-1002230
-1002072
-1001976
-1002082
-1002068
-1001873
-1001722
-1001505
-1001419
-1001289
-1001017
-1000693
-1000364
-1000181
-999933
-999565
-999189
-998939
-998683
-998465
-998083
-997810
-997492
-997385
-996931
-996677
-996478
-996254
-995945
-995655
-995441
-995156
-995121
-994995
-994853
-994608
-994398
-994373
-994197
-994126
-994041
-993895
-993743
-993756
-993731
-993344
-993457
-993557
-994374
-993827
-993751
-993611
-993691
-993673
-993798
-993646
-993552
-993757
-993876
-993930
-993837
-993867
-993837
-993907
-994067
-994073
-994141
-994126
-994246
-994408
-994389
-994280
-994378
-994474
-994558
-994521
-994481
-994653
-994771
-994873
-994929
-994844
-994780
-994902
-994869
-994922
-994831
-994822
-994888
-995003
-994890
-994820
-994765
-994701
-994703
-994567
-994579
-994450
-994370
-994379
-994195
-994173
-994047
-993818
-993956
-993811
-993554
