PPG
-998920
-998878
-998968
-998973
-998959
-998745
-999103
-999191
-999365
-999455
-999500
-999401
-999481
-999620
-999678
-999642
-999667
-999755
-999892
-1000007
-999919
-999909
-1000128
-1000133
-1000028
-1000104
-1000084
-1000137
-1000262
-1000284
-1000268
-1000385
-1000221
-1000389
-1000381
-1000518
-1000574
-1000716
-1000838
-1000835
-1000805
-1000827
-1000938
-1000897
-1000988
-1000983
-1000998
-1001128
-1001110
-1001174
-1001281
-1001054
-1001214
-1001344
-1001327
-1001324
-1001387
-1001442
-1001546
-1001579
-1001643
-1001732
-1001700
-1001717
-1001684
-1001655
-1001853
-1001964
-1001905
-1001956
-1001927
-1002038
-1002146
-1002121
-1002115
-1002192
-1002261
-1002178
-1002703
-1002572
-1002494
-1002598
-1002465
-1002497
-1002537
-1002545
-1002717
-1002681
-1002758
-1002757
-1002772
-1002853
-1002880
-1002927
-1002868
-1002939
-1003101
-1003113
-1003196
-1003206
-1003665
-1003587
-1003650
-1003570
-1003400
-1003465
-1003527
-1003697
-1003894
-1004018
-1003991
-1004138
-1004069
-1004062
-1004104
-1004052
-1004447
-1004523
-1004566
-1004626
-1004395
-1004471
-1004501
-1004544
-1004811
-1004935
-1005073
-1005075
-1004884
-1005005
-1004845
-1004935
-1004993
-1005051
-1005046
-1005112
-1005345
-1005343
-1005333
-1005296
-1005299
-1005295
-1005362
-1005322
-1005284
-1004925
-1004983
-1004925
-1004903
-1004640
-1004492
-1004264
-1003886
-1003485
-1003083
-1002763
-1002328
-1001925
-1001702
-1001202
-1000810
-1000317
-999990
-999510
-999154
-998658
-998228
-997897
-997476
-997152
-996777
-996458
-996143
-995950
-995492
-995321
-995840
-995078
-994775
-994475
-994330
-994081
-994021
-993861
-993629
-993665
-993541
-993589
-993640
-993586
-993635
-993496
-993518
-993491
-993468
-993579
-993623
-993849
-993883
-993925
-994084
-994123
-994167
-994188
-994261
-994464
-994635
-994734
-994716
-994720
-994827
-994889
-994983
-995007
-995059
-995257
-995234
-995446
-995519
-995513
-995548
-995676
-995609
-995617
-995742
-995746
-995758
-995890
-996040
-995871
-995922
-996102
-995994
-995958
-995860
-995940
-995948
-996017
-996119
-995980
-996071
-995900
-995967
-995867
-995915
-995829
-995822
-995791
-995787
-995728
-995867
-995883
-995892
-995968
-995956
-995985
-996085
-996096
-996236
-996233
-996137
-996197
-996209
-996322
-996377
-996618
-996746
-996710
-996749
-996895
-996931
-997036
-997084
-997101
-997273
-997291
-997470
-997537
-997640
-997703
-997733
-997714
-997756
-997958
-997833
-997915
-998102
-998080
-998036
-998048
-998112
-998095
-998094
-998118
-998131
-998123
-998188
-998200
-998175
-998129
-998239
-998178
-998161
-997969
-997908
-998026
-998004
-997961
-998028
-997883
-997840
-997859
-997811
-997734
-997818
-997734
-997223
-997601
-997776
-997844
-997915
-997811
-997856
-997834
-997467
-997747
-997764
-997866
-997968
-997945
-997968
-998158
-998096
-998049
-998142
-998164
-998239
-998281
-998441
-998572
-998619
-998672
-998626
-998649
-998732
-998760
-998903
-998830
-998984
-999096
-999192
-999233
-999329
-999270
-999449
-999595
-999771
-999698
-999843
-999854
-999984
-999977
-1000061
-1000122
-1000196
-1000360
-1000412
-1000330
-1000590
-1000621
-1000798
-1000940
-1001033
-1001271
-1000875
-1000845
-1000993
-1001046
-1001360
-1001290
-1001423
-1001531
-1001461
-1001454
-1001373
-1001548
-1001652
-1001800
-1001869
-1002036
-1001897
-1001886
-1001858
-1001883
-1002055
-1002251
-1002401
-1002355
-1002463
-1002286
-1002276
-1002394
-1002423
-1002411
-1002432
-1002470
-1002661
-1002656
-1002743
-1002681
-1002895
-1002868
-1002893
-1002921
-1002988
-1003215
-1003238
-1003290
-1003368
-1003403
-1003329
-1003320
-1003384
-1003507
-1003533
-1003682
-1003727
-1003701
-1003772
-1003806
-1003940
-1004013
-1003960
-1003927
-1003953
-1004044
-1004171
-1003835
-1004165
-1004295
-1004439
-1004442
-1004396
-1004356
-1004520
-1004564
-1004618
-1004715
-1004623
-1004589
-1005180
-1004952
-1004698
-1004854
-1004767
-1004770
-1004965
-1004909
-1004984
-1005041
-1005098
-1005106
-1005040
-1004974
-1005046
-1005120
-1005224
-1005269
-1005379
-1005322
-1005333
-1005469
-1005400
-1005603
-1005554
-1005643
-1005678
-1005755
-1005840
-1005803
-1005864
-1005938
-1006009
-1006087
-1006009
-1006133
-1006210
-1005896
-1006336
-1006453
-1006469
-1006543
-1006448
-1006641
-1006554
-1006722
-1006774
-1006895
-1006964
-1007033
-1007143
-1007182
-1007126
-1007173
-1007184
-1007373
-1007413
-1007506
-1007601
-1007714
-1007689
-1007630
-1007751
-1007724
-1007793
-1007878
-1008032
-1007994
-1008125
-1008031
-1008078
-1008111
-1008095
-1008060
-1007876
-1007756
-1007662
-1007535
-1007323
-1007118
-1006750
-1006469
-1006204
-1005803
-1005376
-1005153
-1004798
-1004461
-1003984
-1003503
-1003237
-1002850
-1002417
-1001898
-1001449
-1001210
-1000928
-1000590
-1000291
-999850
-999552
-999284
-999072
-998784
-998449
-998296
-998120
-997997
-997781
-997690
-997636
-997456
-997316
-997273
-997110
-997118
-997145
-997237
-997134
-997135
-997275
-997185
-997223
-997304
-997394
-997500
-997485
-997691
-997841
-997926
-997931
-997974
-998004
-998141
-998162
-998346
-998271
-998503
-998551
-998582
-998729
-998836
-998869
-998864
-998973
-999175
-999270
-999381
-999391
-999398
-999397
-999522
-999502
-999615
-999663
-999693
-999823
-999782
-999817
-999892
-999975
-999955
-999899
-999858
-999797
-999891
-999996
-999923
-1000073
-1000054
-1000059
-999996
-999956
-1000033
-999988
-1000045
-1000120
-1000124
-1000228
-1000167
-1000172
-1000119
-1000129
-1000092
-1000205
-1000179
-1000508
-1000618
-1000572
-1000755
-1000956
-1000946
-1001077
-1001231
-1000977
-1001049
-1001199
-1001216
-1001419
-1001514
-1001655
-1001663
-1001577
-1001515
-1001551
-1001703
-1001951
-1002111
-1002100
-1002163
-1002042
-1002052
-1001935
-1001925
-1002117
-1002228
-1002357
-1002392
-1003057
-1002367
-1002261
-1002108
-1002044
-1002134
-1002213
-1002227
-1002114
-1002297
-1002207
-1002253
-1002292
-1002188
-1002225
-1002175
-1002138
-1002197
-1002208
-1002118
-1002069
-1002035
-1002052
-1002099
-1002054
-1001997
-1001957
-1001981
-1001980
-1002153
-1002049
-1002067
-1002032
-1002174
-1002110
-1002162
-1002120
-1002237
-1002188
-1002246
-1002255
-1002242
-1002294
-1002320
-1002408
-1002428
-1002462
-1002583
-1002605
-1002822
-1002865
-1002892
-1002918
-1002911
-1003029
-1003149
-1003233
-1003282
-1003267
-1003409
-1003477
-1003489
-1003619
-1003664
-1003766
-1003790
-1003784
-1003941
-1003979
-1004147
-1004221
-1004243
-1004293
-1004296
-1004319
-1004405
-1004387
-1004576
-1004549
-1004735
-1004818
-1004743
-1004859
-1004905
-1004955
-1004957
-1004927
-1005053
-1005004
-1005118
-1004926
-1005196
-1005260
-1005327
-1005905
-1005589
-1005476
-1005471
-1005449
-1005507
-1005685
-1005631
-1005750
-1005886
-1005770
-1005895
-1005859
-1006071
-1006120
-1006145
-1006178
-1006226
-1006361
-1006351
-1006433
-1006403
-1006445
-1006431
-1006612
-1006621
-1006735
-1006719
-1006746
-1006907
-1006872
-1007015
-1007056
-1007192
-1007292
-1007379
-1007319
-1007265
-1007339
-1007432
-1007479
-1007606
-1007719
-1007684
-1007737
-1007749
-1007787
-1007834
-1007999
-1007943
-1007954
-1008074
-1008052
-1008123
-1008127
-1008168
-1008289
-1008368
-1008398
-1008458
-1008420
-1008463
-1008438
-1008551
-1008658
-1008758
-1008818
-1008808
-1008878
-1009107
-1009035
-1009003
-1009022
-1009180
-1009259
-1009328
-1009368
-1009427
-1009440
-1009489
-1009435
-1009580
-1009619
-1009571
-1009758
-1009865
-1009731
-1009842
-1009985
-1010019
-1009960
-1009931
-1010108
-1010139
-1010222
-1010287
-1010271
-1010382
-1010489
-1010514
-1010673
-1010690
-1010873
-1010874
-1010992
-1010967
-1010988
-1011199
-1011253
-1011246
-1011267
-1011236
-1011353
-1011451
-1011598
-1011730
-1011778
-1011647
-1011612
-1011717
-1011751
-1011574
-1011507
-1011534
-1011331
-1011312
-1011039
-1010943
-1010760
-1010394
-1010069
-1009716
-1009547
-1009303
-1008881
-1008399
-1008018
-1007719
-1007196
-1006863
-1006544
-1006078
-1005590
-1005138
-1004806
-1004486
-1004171
-1003974
-1003702
-1003276
-1002886
-1002432
-1002034
-1001860
-1001521
-1001593
-1001347
-1001272
-1001093
-1000723
-1000498
-1000358
-1000255
-1000388
-1000448
-1000334
-1000252
-1000256
-1000220
-1000030
-1000040
-1000152
-1000243
-1000389
-1000456
-1000460
-1000512
-1000588
-1000620
-1000530
-1000639
-1000610
-1000735
-1000901
-1001028
-1001123
-1001289
-1001206
-1001254
-1001401
-1001593
-1001711
-1001673
-1001777
-1001804
-1001855
-1001998
-1002141
-1002238
-1002158
-1002316
-1002010
-1002305
-1002478
-1002632
-1002551
-1002605
-1002629
-1002344
-1002644
-1002735
-1002854
-1002883
-1002853
-1002827
-1002956
-1002984
-1002735
-1002930
-1003034
-1003076
-1002879
-1002884
-1002843
-1002920
-1002953
-1003049
-1003116
-1003113
-1003005
-1003096
-1002967
-1003068
-1003187
-1003303
-1003298
-1003260
-1003330
-1003606
-1004136
-1003715
-1003691
-1003830
-1003764
-1003801
-1003870
-1003807
-1004303
-1004198
-1004291
-1004363
-1004350
-1004514
-1004426
-1004493
-1004596
-1004547
-1004605
-1004798
-1004829
-1004772
-1004858
-1004905
-1004848
-1005043
-1005072
-1005134
-1005175
-1005094
-1005050
-1004805
-1004807
-1004969
-1005041
-1005034
-1004896
-1004998
-1005034
-1004990
-1004979
-1004986
-1004942
-1005073
-1004998
-1004972
-1004981
-1004948
-1005154
-1005090
-1005115
-1005147
-1005290
-1005272
-1005254
-1005489
-1005554
-1005669
-1005602
-1005618
-1005698
-1005727
-1005914
-1005928
-1006085
-1006083
-1006234
-1006314
-1006315
-1006440
-1006393
-1006451
-1006554
-1006625
-1006756
-1006888
-1006947
-1007026
-1006996
-1007167
-1007139
-1007128
-1007409
-1007373
-1007589
-1007585
-1007598
-1007785
-1007723
-1007833
-1007869
-1007884
-1008108
-1008254
-1008198
-1008313
-1008299
-1008373
-1008410
-1008500
-1008522
-1008551
-1008629
-1008788
-1008862
-1008868
-1008986
-1008984
-1009023
-1009034
-1009073
-1009176
-1009356
-1009393
-1009432
-1009435
-1009493
-1009666
-1009627
-1009785
-1009736
-1009820
-1009880
-1009957
-1010089
-1010139
-1010096
-1010114
-1010220
-1010333
-1010448
-1010404
-1010381
-1010616
-1010557
-1010717
-1010780
-1010740
-1010771
-1010840
-1010872
-1010892
-1010975
-1011133
-1011266
-1011232
-1011329
-1011333
-1011383
-1011317
-1011448
-1011506
-1011554
-1011487
-1011540
-1011711
-1011677
-1011806
-1012024
-1012135
-1012026
-1011906
-1011986
-1011960
-1011996
-1012159
-1012280
-1012414
-1012466
-1012423
-1012367
-1012347
-1012492
-1012646
-1012920
-1012884
-1012861
-1012874
-1012795
-1012814
-1012740
-1012876
-1013125
-1013286
-1013395
-1013463
-1013208
-1013157
-1013247
-1013390
-1013332
-1013262
-1013493
-1013431
-1013292
-1013418
-1013513
-1013649
-1013800
-1013794
-1013820
-1013843
-1013975
-1013888
-1014003
-1014124
-1014056
-1014260
-1014308
-1014394
-1014302
-1014310
-1014401
-1014546
-1014623
-1014607
-1014712
-1014711
-1015494
-1014998
-1014868
-1015017
-1015070
-1015050
-1015190
-1015191
-1015252
-1015211
-1015323
-1015349
-1015372
-1015446
-1015414
-1015369
-1015193
-1014879
-1014867
-1014815
-1014630
-1014407
-1014291
-1014012
-1013806
-1013351
-1012996
-1012732
-1012458
-1012063
-1011638
-1011195
-1010822
-1010551
-1010032
-1009585
-1009201
-1008978
-1008653
-1008218
-1008007
-1007668
-1007938
-1007169
-1006832
-1006442
-1006135
-1005915
-1005792
-1005511
-1005258
-1005177
-1004907
-1004747
-1004700
-1004442
-1004497
-1004413
-1004316
-1004211
-1004219
-1004053
-1004012
-1004036
-1004056
-1004027
-1004042
-1004059
-1004136
-1004142
-1004198
-1004284
-1004351
-1004393
-1004521
-1004500
-1004649
-1004691
-1004745
-1004804
-1004887
-1004935
-1005001
-1004859
-1005105
-1005103
-1005221
-1005313
-1005437
-1005366
-1005352
-1005503
-1005534
-1005604
-1006384
-1005864
-1005736
-1005706
-1005840
-1005829
-1005801
-1005863
-1005881
-1005894
-1005903
-1006011
-1006052
-1005923
-1005903
-1005938
-1005868
-1005893
-1005956
-1005869
-1005823
-1005962
-1005976
-1005877
-1005821
-1005919
-1005775
-1005762
-1005774
-1005805
-1005778
-1005882
-1005971
-1006065
-1006010
-1005990
-1005772
-1005857
-1005777
-1006085
-1005917
-1006301
-1006427
-1006393
-1006493
-1006674
-1006626
-1006763
-1006736
-1006848
-1006957
-1007053
-1007015
-1007073
-1007189
-1007210
-1007326
-1007258
-1007311
-1007516
-1007623
-1007689
-1007700
-1007739
-1007760
-1007635
-1007670
-1007643
-1007660
-1007738
-1007835
-1007748
-1007801
-1007794
-1007732
-1007704
-1007717
-1007730
-1007682
-1007743
-1007655
-1007748
-1007706
-1007679
-1007698
-1007593
-1007438
-1007603
-1007419
-1007435
-1007444
-1007421
-1007408
-1007469
-1007343
-1007702
-1007530
-1007367
-1007377
-1007362
-1007036
-1007380
-1007429
-1007373
-1007390
-1007443
-1007410
-1007465
-1007469
-1007443
-1007478
-1007572
-1007532
-1007597
-1007935
-1008060
-1008083
-1008109
-1007997
-1007870
-1007878
-1007952
-1008169
-1008366
-1008385
-1008517
-1008690
-1008503
-1008405
-1008470
-1008706
-1009650
-1009308
-1009129
-1009161
-1009078
-1008977
-1009123
-1009098
-1009426
-1009488
-1009685
-1009601
-1009582
-1009633
-1009640
-1009692
-1009694
-1009881
-1009899
-1009954
-1010160
-1009892
-1010089
-1010405
-1010308
-1010387
-1010394
-1010510
-1010580
-1010738
-1010756
-1010861
-1010799
-1011000
-1010978
-1011036
-1011043
-1010991
-1011174
-1011336
-1011350
-1011287
-1011329
-1011453
-1011553
-1011453
-1011477
-1011608
-1011431
-1011520
-1011525
-1011697
-1011787
-1011808
-1011803
-1011812
-1011869
-1012042
-1012038
-1012181
-1012194
-1012333
-1012276
-1012277
-1012279
-1012429
-1012360
-1012314
-1012441
-1012605
-1012762
-1012569
-1012747
-1012649
-1012734
-1012789
-1012836
-1012951
-1013038
-1012942
-1012917
-1013311
-1013169
-1013223
-1013122
-1013210
-1013230
-1013304
-1013182
-1013312
-1013394
-1013305
-1013296
-1013388
-1013468
-1013424
-1013597
-1013560
-1013646
-1013645
-1013650
-1013745
-1013764
-1013762
-1013759
-1013718
-1013762
-1013853
-1013867
-1013934
-1013979
-1014009
-1014031
-1014098
-1014143
-1014135
-1014181
-1014380
-1014328
-1014436
-1014951
-1014602
-1014540
-1014621
-1014628
-1014661
-1014798
-1014804
-1014905
-1014848
-1014989
-1014957
-1015146
-1015279
-1015292
-1015463
-1015424
-1015614
-1015750
-1015777
-1015648
-1015823
-1015821
-1015826
-1015893
-1016074
-1015940
-1016138
-1016040
-1016064
-1016197
-1016113
-1016127
-1015980
-1015964
-1015960
-1015810
-1015620
-1015488
-1015355
-1015158
-1014780
-1014576
-1014199
-1013959
-1013664
-1013177
-1012771
-1012409
-1012053
-1011644
-1011196
-1010836
-1010240
-1009990
-1009338
-1009127
-1008672
-1008376
-1007939
-1007672
-1007322
-1007077
-1006744
-1006516
-1006291
-1005894
-1005674
-1005471
-1005319
-1005207
-1004858
-1004801
-1004700
-1004533
-1004413
-1004454
-1004340
-1004287
-1004204
-1004278
-1004312
-1004367
-1004342
-1004274
-1004070
-1004261
-1004479
-1004528
-1004538
-1004355
-1004579
-1004505
-1004770
-1004886
-1004986
-1005090
-1005139
-1005230
-1005364
-1005496
-1005505
-1005671
-1005351
-1005686
-1005797
-1005941
-1006080
-1006084
-1006219
-1006182
-1006200
-1006211
-1006139
-1006502
-1006433
-1006358
-1006485
-1006508
-1006401
-1006340
-1006460
-1006367
-1006551
-1006493
-1006508
-1006542
-1006595
-1006544
-1006624
-1006698
-1006525
-1006445
-1006500
-1006401
-1007269
-1007298
-1006812
-1006522
-1006528
-1006270
-1006233
-1006303
-1006458
-1006491
-1006531
-1006647
-1006692
-1006530
-1006565
-1006419
-1006574
-1006838
-1006935
-1007046
-1007102
-1007017
-1006964
-1006933
-1007005
-1007138
-1007273
-1007398
-1007319
-1007566
-1007612
-1007549
-1007307
-1007603
-1007577
-1007391
-1007592
-1007760
-1007581
-1007732
-1007765
-1007726
-1007801
-1007799
-1007894
-1007907
-1007757
-1007758
-1008326
-1007888
-1007713
-1007739
-1007604
-1007660
-1007252
-1007360
-1007379
-1007322
-1007327
-1007421
-1006933
-1007103
-1007184
-1007254
-1007280
-1007073
-1007122
-1007083
-1007192
-1007153
-1006978
-1007073
-1006987
-1007029
-1006984
-1006951
-1006971
-1006969
-1007030
-1007060
-1007065
-1007163
-1007231
-1007184
-1007322
-1007384
-1007410
-1007487
-1007604
-1007576
-1007495
-1007637
-1007644
-1007698
-1007807
-1007786
-1007836
-1007951
-1007965
-1007929
-1007995
-1008014
-1008193
-1008184
-1008234
-1008349
-1008311
-1008506
-1008374
-1008497
-1008536
-1008588
-1008619
-1008669
-1008671
-1008777
-1008845
-1009055
-1009115
-1009042
-1009028
-1009074
-1009306
-1009277
-1009379
-1009456
-1009494
-1009544
-1009700
-1009612
-1009726
-1009885
-1009862
-1009838
-1009850
-1009937
-1010018
-1010154
-1009872
-1010074
-1010243
-1010251
-1010324
-1010253
-1010237
-1010227
-1010351
-1010421
-1010395
-1010597
-1010555
-1010637
-1010649
-1010709
-1010774
-1010905
-1010754
-1010816
-1010782
-1010817
-1010961
-1010934
-1010958
-1011028
-1010894
-1011070
-1011058
-1011150
-1011262
-1011195
-1011338
-1011298
-1011369
-1011347
-1011399
-1011333
-1011309
-1011402
-1011405
-1011323
-1011443
-1011568
-1011542
-1011625
-1011614
-1011524
-1011686
-1011782
-1011720
-1011750
-1011865
-1011824
-1011855
-1011849
-1011887
-1012054
-1012047
-1012023
-1012065
-1012083
-1012235
-1012324
-1012274
-1012348
-1012428
-1012421
-1012554
-1012558
-1012569
-1012733
-1012720
-1012714
-1012732
-1012817
-1012834
-1012886
-1012940
-1012929
-1013031
-1013196
-1013138
-1013175
-1013223
-1013277
-1013298
-1013479
-1013453
-1013612
-1013626
-1013610
-1013624
-1013690
-1013587
-1013641
-1013708
-1013611
-1013621
-1013569
-1013583
-1013510
-1013353
-1013206
-1012912
-1012824
-1012585
-1012347
-1012055
-1011797
-1011511
-1011092
-1010909
-1010421
-1009970
-1009679
-1009333
-1008956
-1008442
-1007904
-1007703
-1007212
-1006920
-1006480
-1006173
-1005738
-1005398
-1005015
-1004666
-1004524
-1004216
-1003864
-1003643
-1003339
-1003059
-1002824
-1002660
-1002532
-1002466
-1002478
-1002213
-1002093
-1002040
-1001990
-1002057
-1002014
-1001860
-1001979
-1001957
-1001996
-1002014
-1002055
-1002157
-1002145
-1002195
-1002212
-1002220
-1002290
-1002490
-1002617
-1002599
-1002664
-1002767
-1002877
-1002766
-1002883
-1002963
-1003032
-1003265
-1003370
-1003526
-1003451
-1003517
-1003577
-1003706
-1003738
-1003760
-1003843
-1003856
-1004022
-1003991
-1003945
-1003999
-1004039
-1003975
-1003958
-1003935
-1004004
-1004022
-1003988
-1004014
-1003909
-1004050
-1004109
-1004015
-1004070
-1004048
-1004051
-1003913
-1004044
-1003883
-1003866
-1003889
-1003918
-1003821
-1003890
-1003895
-1003771
-1003830
-1003877
-1003930
-1003650
-1003929
-1003936
-1004003
-1004584
-1004349
-1004482
-1004374
-1004350
-1004481
-1004433
-1004585
-1004630
-1004701
-1004738
-1004779
-1004945
-1005017
-1005022
-1005186
-1005161
-1005210
-1005056
-1005002
-1005012
-1005038
-1005029
-1005025
-1005091
-1005127
-1004991
-1005112
-1005152
-1005191
-1005198
-1005072
-1004971
-1005033
-1004930
-1005022
-1004749
-1004900
-1004804
-1004686
-1004584
-1004551
-1004477
-1004415
-1004433
-1004500
-1004367
-1004341
-1004436
-1004409
-1004304
-1004243
-1004198
-1004147
-1004278
-1004209
-1004123
-1004184
-1004141
-1004193
-1004116
-1004106
-1004158
-1004117
-1004223
-1004168
-1004138
-1004136
-1004176
-1004194
-1004200
-1004191
-1004264
-1004444
-1004424
-1004408
-1004333
-1004406
-1004499
-1004953
-1004927
-1004995
-1005102
-1005113
-1005206
-1005264
-1005427
-1005384
-1005539
-1005478
-1005568
-1005643
-1005775
-1005716
-1005821
-1005807
-1006007
-1005970
-1006103
-1006168
-1006282
-1006531
-1006488
-1006653
-1006685
-1006661
-1006571
-1006658
-1006854
-1006967
-1007110
-1007204
-1007166
-1007143
-1007071
-1007068
-1007099
-1007432
-1007550
-1007594
-1007671
-1007482
-1007438
-1007335
-1007575
-1007709
-1007688
-1007668
-1007838
-1007899
-1007618
-1007670
-1007657
-1007728
-1007734
-1007838
-1007834
-1007974
-1008013
-1008002
-1008152
-1008221
-1008310
-1008335
-1008207
-1008319
-1008404
-1008526
-1008395
-1008402
-1008468
-1008504
-1008659
-1008713
-1008671
-1008755
-1008764
-1008817
-1008814
-1008759
-1008731
-1008871
-1008882
-1008860
-1009012
-1009011
-1009027
-1009141
-1009066
-1009183
-1009274
-1009105
-1009204
-1009212
-1009317
-1009175
-1009352
-1009419
-1009384
-1009486
-1009538
-1009598
-1009639
-1009514
-1009578
-1009581
-1009628
-1009736
-1009811
-1009872
-1009804
-1009975
-1009939
-1009974
-1009917
-1009872
-1009960
-1010127
-1010215
-1010279
-1010226
-1010324
-1010471
-1010482
-1010453
-1011313
-1010791
-1010699
-1010690
-1010782
-1010842
-1010925
-1010877
-1010979
-1010996
-1011114
-1011061
-1011176
-1011244
-1011094
-1011205
-1011376
-1011420
-1011431
-1011418
-1011212
-1011354
-1011235
-1011267
-1011061
-1011069
-1010744
-1010700
-1010436
-1010215
-1010017
-1009736
-1009465
-1009049
-1008729
-1008303
-1007971
-1007603
-1007133
-1006764
-1006292
-1005903
-1005491
-1005008
-1004614
-1004125
-1003827
-1003502
-1002985
-1002517
-1002187
-1001905
-1001590
-1001246
-1000947
-1000573
-1000233
-1000009
-999837
-999535
-999337
-999181
-999050
-998881
-998811
-998674
-998729
-998556
-998534
-998486
-998477
-998424
-998548
-998524
-998529
-998504
-998560
-998606
-998663
-998746
-998770
-998796
-998843
-998996
-999027
-999120
-999184
-999113
-999418
-999439
-999540
-999462
-999483
-999562
-999679
-999669
-999736
-999816
-999746
-999919
-999966
-999908
-999962
-1000030
-1000055
-999989
-999974
-999923
-1000006
-999971
-999962
-999976
-999869
-999771
-999825
-999847
-999741
-999657
-999633
-999594
-999477
-999625
-999595
-999528
-999580
-999444
-999312
-999330
-999357
-999279
-999240
-999293
-999259
-999369
-999273
-999172
-999447
-999314
-999415
-999372
-999357
-999460
-999390
-999573
-999711
-999650
-999772
-999755
-999831
-999935
-999996
-1000097
-1000144
-1000294
-1000335
-1000381
-1000417
-1000477
-1000552
-1000733
-1000743
-1000810
-1000963
-1001047
-1001106
-1001111
-1001110
-1001142
-1001153
-1001179
-1001155
-1001162
-1001331
-1001389
-1001354
-1001221
-1001292
-1001224
-1001079
-1001051
-1000941
-1000951
-1000873
-1000880
-1000820
-1000781
-1000827
-1000689
-1000622
-1000633
-1000617
-1000530
-1000579
-1001286
-1000718
-1000533
-1000363
-1000317
-1000363
-1000274
-1000283
-1000227
-1000224
-1000021
-1000252
-1000230
-1000254
-1000225
-1000333
-1000233
-1000221
-1000248
-1000328
-1000280
-1000248
-1000299
-1000394
-1000370
-1000391
-1000308
-1000448
-1000603
-1000519
-1000613
-1000630
-1000828
-1000922
-1000932
-1000895
-1001024
-1001132
-1001079
-1001252
-1001325
-1001318
-1001393
-1001633
-1001546
-1001591
-1001633
-1001837
-1001802
-1001835
-1001980
-1002035
-1002058
-1002153
-1002123
-1002241
-1002275
-1002344
-1002308
-1002416
-1002355
-1002548
-1003314
-1002883
-1002804
-1002787
-1002777
-1002816
-1002835
-1002834
-1002845
-1002952
-1002986
-1003010
-1003055
-1003180
-1003182
-1003244
-1003386
-1003481
-1003497
-1003590
-1003603
-1003750
-1003755
-1003852
-1003824
-1003835
-1003862
-1004046
-1004073
-1004018
-1004022
-1004101
-1004103
-1004072
-1004199
-1004145
-1004266
-1004355
-1004326
-1004270
-1004343
-1004382
-1004392
-1004370
-1004426
-1004523
-1004575
-1004660
-1004816
-1004795
-1004789
-1004783
-1004871
-1004830
-1004945
-1004920
-1004982
-1005012
-1005062
-1005044
-1005095
-1005240
-1005214
-1005232
-1005151
-1005303
-1005395
-1005325
-1005366
-1005528
-1005587
-1005592
-1005698
-1005642
-1005599
-1005774
-1005822
-1005779
-1005858
-1005876
-1005919
-1006060
-1005980
-1005976
-1006139
-1006175
-1006165
-1006216
-1006351
-1006368
-1006279
-1006331
-1006389
-1006372
-1006443
-1006468
-1006480
-1006454
-1006583
-1006551
-1006454
-1006625
-1006583
-1006557
-1006581
-1006753
-1006667
-1006689
-1006806
-1006977
-1007139
-1007132
-1007183
-1007338
-1007220
-1007260
-1007208
-1007259
-1007601
-1007653
-1007666
-1007837
-1007784
-1007774
-1007734
-1007772
-1008083
-1008155
-1008248
-1008305
-1008200
-1008154
-1008113
-1008095
-1008135
-1008270
-1008357
-1008309
-1008316
-1008083
-1007900
-1007926
-1007654
-1007276
-1007241
-1007145
-1006871
-1006610
-1006302
-1005961
-1005547
-1005140
-1004745
-1004382
-1004088
-1003552
-1003261
-1002767
-1002461
-1001966
-1001558
-1001205
-1000813
-1000459
-1000055
-999676
-999382
-999075
-998787
-998476
-998321
-997915
-997795
-997428
-997191
-997126
-996948
-996825
-996778
-996535
-996525
-996457
-996400
-996415
-996324
-996231
-996305
-996272
-996377
-996384
-996369
-996311
-996304
-996337
-996581
-996673
-996588
-996665
-996592
-996724
-996777
-996743
-996764
-996914
-996992
-997045
-997026
-997196
-997209
-997223
-997243
-997312
-997198
-997271
-997373
-997955
-997386
-997215
-997305
-997422
-997346
-997376
-997313
-997213
-997227
-997109
-997090
-997136
-997234
-997204
-997129
-997014
-997032
-997075
-996919
-996887
-996845
-996848
-996990
-996978
-996984
-996941
-996860
-997011
-997023
-996981
-997128
-997069
-997139
-997200
-997378
-997383
-997366
-997415
-997547
-997731
-997795
-997829
-997801
-997922
-998054
-998023
-998129
-998196
-998204
-998336
-998390
-998412
-998370
-998467
-998646
-998591
-998625
-998699
-998721
-998754
-998742
-998753
-998851
-998869
-998812
-998882
-998783
-998813
-998810
-998805
-998788
-998690
-998715
-998713
-998785
-998674
-998622
-998608
-998571
-998451
-998386
-998489
-998430
-998494
-998483
-998384
-998467
-998502
-998435
-998429
-998337
-998285
-998351
-998410
-998444
-998267
-998264
-998396
-998467
-998438
-998225
-998402
-998432
-998434
-998510
-998605
-998552
-998524
-998582
-998781
-998745
-998787
-998866
-998768
-998976
-998984
-999061
-999056
-999099
-999097
-999149
-999223
-999306
-999504
-999532
-999568
-999719
-999701
-999716
-999800
-999826
-999936
-1000002
-999979
-1000037
-1000128
-1000189
-1000209
-1000248
-1000368
-1000454
-1000483
-1000484
-1000633
-1000641
-1000669
-1000864
-1000833
-1000859
-1000958
-1000986
-1001157
-1001212
-1001297
-1001234
-1001292
-1001427
-1001366
-1001389
-1001441
-1001528
-1001702
-1001733
-1001794
-1001895
-1001828
-1001963
-1001982
-1001918
-1002033
-1002044
-1002134
-1002101
-1002285
-1002262
-1002191
-1002330
-1002510
-1002548
-1002599
-1002604
-1002605
-1002679
-1002729
-1002869
-1002767
-1002843
-1002905
-1003750
-1003122
-1002989
-1003014
-1003071
-1003072
-1003135
-1003172
-1003208
-1003351
-1003362
-1003343
-1003317
-1003435
-1003558
-1003579
-1003619
-1003728
-1003746
-1003877
-1003913
-1003874
-1003549
-1003794
-1003830
-1004096
-1004163
-1004019
-1004259
-1004176
-1004171
-1004179
-1004206
-1004340
-1004325
-1004483
-1004567
-1004494
-1004472
-1004633
-1004506
-1004567
-1004526
-1004709
-1004841
-1004730
-1004743
-1004783
-1004824
-1004783
-1004898
-1004955
-1004919
-1005005
-1005134
-1005153
-1005189
-1005228
-1005231
-1005259
-1005375
-1005388
-1005293
-1005331
-1005468
-1005506
-1005542
-1005604
-1005646
-1005708
-1005763
-1005734
-1005927
-1006035
-1005964
-1006010
-1006177
-1006125
-1006241
-1006253
-1006302
-1006399
-1006426
-1006499
-1006623
-1006776
-1006798
-1006810
-1006831
-1006981
-1007089
-1007107
-1007112
-1007139
-1007239
-1007029
-1007174
-1007306
-1007389
-1007430
-1007353
-1007352
-1007360
-1007221
-1007059
-1006870
-1006862
-1006622
-1006522
-1006143
-1005960
-1005656
-1005399
-1005113
-1004746
-1004375
-1004146
-1003747
-1003422
-1002986
-1002548
-1002235
-1001841
-1001467
-1001081
-1000741
-1000348
-1000064
-999734
-999466
-999244
-998935
-998808
-998525
-998298
-998120
-997581
-997539
-997424
-997280
-997095
-997032
-996939
-996837
-996787
-996823
-996836
-996736
-996618
-996596
-996581
-996767
-996781
-996719
-996644
-996655
-996764
-996835
-996847
-996866
-996931
-996979
-996970
-997047
-997135
-997228
-997169
-997334
-997466
-997518
-997548
-997460
-997512
-997614
-997663
-997662
-997639
-997826
-997875
-997905
-997725
-997730
-997964
-997893
-998043
-998041
-997919
-997926
-998015
-997930
-997919
-997987
-997936
-997954
-997977
-997852
-997891
-997996
-997929
-998009
-997859
-997873
-998668
-998192
-998049
-997991
-997926
-997980
-997920
-997925
-997867
-997854
-997940
-997924
-998002
-998173
-998205
-998253
-998184
-998229
-998452
-998467
-998507
-999224
-998961
-998608
-998881
-998931
-999023
-999014
-999138
-999066
-999222
-999341
-999416
-999408
-999481
-999514
-999607
-999694
-999612
-999800
-999772
-999862
-1000004
-999846
-999911
-999988
-999949
-999851
-999677
-999765
-999865
-999927
-999765
-999703
-999633
-999739
-999648
-999651
-999568
-999643
-999536
-999572
-999496
-999531
-999521
-999391
-999409
-999432
-999481
-999617
-999625
-999634
-999632
-999404
-999357
-999316
-999384
-999346
-999306
-999352
-999343
-999294
-999394
-999392
-999455
-999531
-999505
-999511
-999502
-999625
-1000302
-999833
-999894
-999843
-999868
-1000457
-1000148
-999910
-1000064
-1000175
-1000208
-1000290
-1000388
-1000392
-1000515
-1000506
-1000634
-1000586
-1000654
-1000859
-1000819
-1000872
-1000965
-1001047
-1001015
-1001097
-1001162
-1001188
-1001215
-1001305
-1001307
-1001475
-1001649
-1001541
-1001612
-1001716
-1001732
-1001787
-1001814
-1001940
-1002030
-1002043
-1002090
-1002019
-1002161
-1002240
-1002193
-1002319
-1002298
-1002324
-1002398
-1002505
-1002534
-1002636
-1002749
-1002820
-1002960
-1002950
-1002995
-1002907
-1003182
-1003190
-1003225
-1003324
-1003332
-1003413
-1003391
-1003510
-1003549
-1003604
-1003539
-1003617
-1003619
-1003623
-1003801
-1003756
-1003735
-1003925
-1004021
-1003999
-1004060
-1003959
-1004103
-1004121
-1004204
-1004265
-1004413
-1004350
-1004324
-1004524
-1004494
-1004454
-1004577
-1004600
-1004576
-1004610
-1004584
-1004684
-1004719
-1004902
-1004814
-1004903
-1004893
-1004988
-1005011
-1005089
-1005186
-1005189
-1005281
-1005224
-1005243
-1005301
-1005430
-1005477
-1005518
-1005530
-1005466
-1005501
-1005616
-1005595
-1005633
-1005753
-1005692
-1005688
-1005770
-1005669
-1005829
-1005951
-1006065
-1005958
-1005981
-1005982
-1006121
-1006252
-1006170
-1006344
-1006265
-1006427
-1006470
-1006337
-1006468
-1006540
-1006612
-1006677
-1006621
-1006682
-1006701
-1006782
-1006758
-1006965
-1006986
-1006965
-1007125
-1007052
-1007062
-1007922
-1007406
-1007422
-1007418
-1007310
-1007314
-1007474
-1007547
-1007525
-1007545
-1007577
-1007701
-1007802
-1007867
-1007998
-1007993
-1008145
-1008123
-1008246
-1008266
-1008394
-1008326
-1008442
-1008485
-1008521
-1008642
-1008568
-1008633
-1008663
-1008708
-1008702
-1008578
-1008268
-1008396
-1008447
-1008437
-1008254
-1008012
-1007987
-1007784
-1007492
-1007151
-1006899
-1006527
-1006470
-1005989
-1005655
-1005318
-1004824
-1004345
-1003924
-1003541
-1003292
-1002933
-1002568
-1002163
-1001740
-1001496
-1001043
-1000722
-1000344
-1000067
-999807
-999325
-999193
-999044
-998857
-998756
-998431
-998247
-998078
-998002
-997761
-997718
-997729
-997639
-997342
-997409
-997350
-997314
-997189
-997158
-997185
-997266
-997217
-997246
-997258
-997261
-997320
-997346
-997239
-998208
-997708
-997569
-997367
-997625
-997705
-997860
-997913
-997974
-997858
-998012
-997997
-998036
-998122
-997987
-998734
-998364
-998194
-998161
-998220
-998320
-998231
-998319
-998351
-998409
-998397
-998366
-998272
-998216
-998181
-998139
-998182
-998146
-998173
-998276
-998163
-998161
-998106
-997994
-997992
-997856
-997844
-997889
-997903
-997867
-997840
-997754
-997788
-997821
-997782
-997721
-997849
-997816
-997786
-997795
-997819
-997914
-997907
-998062
-998041
-998038
-998078
-998127
-998283
-998452
-998420
-998546
-998555
-998574
-998712
-998690
-998787
-998939
-998995
-999111
-999091
-999261
-999280
-999321
-999449
-999382
-999460
-999490
-999613
-999680
-999676
-999744
-999774
-999761
-999777
-999698
-999852
-999888
-999884
-999879
-999937
-999792
-999898
-999808
-999677
-999604
-999602
-999698
-999669
-999558
-999505
-999454
-999423
-999428
-999372
-999258
-999263
-999186
-999296
-999169
-999278
-999284
-999227
-999115
-999100
-999155
-999117
-999126
-999158
-998996
-999019
-999061
-999137
-999217
-999131
-999210
-999378
-999408
-999086
-999300
-999490
-999526
-999562
-999406
-999467
-999712
-999667
-999757
-999864
-999802
-999745
-999964
-999992
-999948
-1000022
-1000003
-1000072
-1000155
-1000184
-1000307
-1000338
-1000389
-1001063
-1000736
-1000634
-1000741
-1000771
-1000837
-1000838
-1000956
-1001041
-1001171
-1001227
-1001176
-1001214
-1001193
-1001381
-1001529
-1001591
-1001656
-1001641
-1001841
-1001939
-1001922
-1001918
-1002001
-1002037
-1002100
-1002155
-1002242
-1002323
-1002289
-1002329
-1002357
-1002406
-1002435
-1002592
-1002641
-1002562
-1002804
-1002850
-1002821
-1002913
-1002984
-1003765
-1003283
-1003178
-1002998
-1003176
-1003253
-1003226
-1003283
-1003288
-1003246
-1003431
-1003470
-1003556
-1003561
-1003542
-1003603
-1003719
-1003693
-1003803
-1003746
-1003840
-1003864
-1003904
-1004020
-1004149
-1004201
-1004192
-1004151
-1004146
-1004254
-1004233
-1004373
-1004456
-1004390
-1004428
-1004501
-1004592
-1004529
-1004542
-1004285
-1004561
-1004611
-1004728
-1004827
-1004796
-1004950
-1004924
-1004968
-1005110
-1005191
-1005118
-1005124
-1005311
-1005393
-1005296
-1005424
-1005465
-1005513
-1005397
-1005408
-1005584
-1005709
-1005631
-1005632
-1005762
-1005738
-1005855
-1005971
-1005989
-1005984
-1006053
-1006042
-1006064
-1006114
-1006134
-1006171
-1006179
-1006323
-1006231
-1006246
-1006358
-1006438
-1006541
-1006353
-1006468
-1006266
-1006535
-1006640
-1006816
-1006692
-1006759
-1006842
-1006929
-1007055
-1007149
-1007005
-1007160
-1007247
-1007243
-1007224
-1007247
-1007384
-1007348
-1007392
-1007421
-1007549
-1007537
-1007698
-1007699
-1007854
-1007811
-1007906
-1007742
-1007835
-1008044
-1007992
-1008025
-1008076
-1008300
-1008193
-1008531
-1009013
-1009307
-1008927
-1009216
-1009317
-1009386
-1009273
-1009260
-1009273
-1009319
-1009317
-1009118
-1008754
-1008722
-1008687
-1008237
-1008159
-1007954
-1007787
-1007373
-1007111
-1006751
-1006351
-1005976
-1005650
-1005159
-1004776
-1004168
-1003827
-1003300
-1002943
-1002578
-1002112
-1001742
-1001394
-1000922
-1000604
-1000225
-999983
-999555
-999310
-999098
-998767
-998558
-998319
-998092
-997840
-997844
-997706
-997515
-997388
-997304
-997287
-997227
-997234
-997264
-997237
-997174
-997283
-997330
-997224
-997304
-997340
-997380
-997196
-997430
-997563
-997580
-997644
-997943
-997953
-997737
-998064
-998048
-998165
-998156
-998298
-998454
-998483
-998584
-998703
-998759
-998827
-998901
-998811
-998857
-998832
-998989
-999014
-999109
-999568
-999341
-999182
-999335
-999404
-999377
-999326
-999248
-999243
-999229
-999154
-998988
-999091
-998985
-999082
-999080
-999035
-999108
-999004
-998897
-999011
-998969
-998866
-998941
-998928
-998963
-999009
-998972
-998924
-998965
-998928
-999122
-999136
-999224
-999306
-999345
-999337
-999319
-999442
-999603
-999566
-999644
-999765
-999641
-999783
-999891
-1000744
-1000286
-1000140
-1000210
-1000279
-1000239
-1000321
-1000383
-1000471
-1000586
-1000665
-1000792
-1000865
-1000903
-1000886
-1000754
-1000712
-1000756
-1000898
-1000811
-1000710
-1000778
-1000790
-1000675
-1000717
-1000790
-1000693
-1000694
-1000627
-1000632
-1000532
-1000473
-1000393
-1000463
-1000496
-1000384
-1000349
-1000367
-1000410
-1000434
-1000334
-1000276
-1000323
-1000285
-1000264
-1000193
-1000247
-1000332
-1000307
-1000386
-1000388
-1000342
-1000328
-1000404
-1000419
-1000452
-1000454
-1000500
-1000598
-1000591
-1000648
-1000667
-1000729
-1000788
-1000783
-1000896
-1000889
-1000858
-1001001
-1000866
-1000695
-1000949
-1001177
-1001250
-1001351
-1001378
-1001479
-1001530
-1001612
-1001745
-1001727
-1001826
-1001964
-1001971
-1001923
-1001539
-1001887
-1002136
-1002314
-1002289
-1002435
-1002475
-1002575
-1002548
-1002609
-1002700
-1002775
-1002783
-1002972
-1003012
-1003045
-1003115
-1003208
-1003121
-1003278
-1003347
-1003378
-1003409
-1003484
-1003637
-1003660
-1003670
-1003710
-1003736
-1003908
-1003847
-1003879
-1004047
-1004117
-1004203
-1004323
-1004364
-1004329
-1004457
-1004496
-1004476
-1004436
-1004669
-1004616
-1004805
-1004753
-1004711
-1004716
-1004874
-1004747
-1005019
-1004971
-1005190
-1005220
-1005314
-1005363
-1005260
-1005292
-1005296
-1005449
-1005493
-1005529
-1005531
-1005627
-1005651
-1005700
-1005686
-1005758
-1005834
-1005897
-1005810
-1005870
-1005967
-1006036
-1006137
-1006098
-1006110
-1006101
-1006159
-1006263
-1006307
-1006218
-1006292
-1006355
-1006527
-1006470
-1006605
-1006559
-1006553
-1006622
-1006587
-1006647
-1006785
-1006725
-1006794
-1006814
-1006895
-1006920
-1007018
-1007047
-1007134
-1007121
-1007143
-1007200
-1007349
-1007284
-1006998
-1007241
-1007343
-1007348
-1007468
-1007519
-1007485
-1007618
-1007576
-1007664
-1007762
-1007760
-1007947
-1007993
-1007907
-1007959
-1008026
-1008091
-1008106
-1008162
-1008250
-1008340
-1008369
-1008368
-1008289
-1008490
-1008477
-1008499
-1008690
-1008739
-1008826
-1008937
-1008885
-1008919
-1009100
-1009159
-1009145
-1009102
-1009254
-1009357
-1009508
-1009540
-1009463
-1009444
-1009499
-1009590
-1009688
-1009709
-1009816
-1009739
-1009921
-1010127
-1010170
-1010285
-1010131
-1010270
-1011022
-1010463
-1010407
-1010245
-1010386
-1010281
-1010268
-1010275
-1010136
-1009938
-1009961
-1009789
-1009572
-1009317
-1009129
-1008856
-1008556
-1008245
-1007684
-1007461
-1007103
-1006673
-1006382
-1005906
-1005565
-1005077
-1004685
-1004364
-1003833
-1003462
-1003156
-1002876
-1002418
-1002067
-1001766
-1001523
-1001329
-1000998
-1000611
-1000457
-1000303
-1000096
-1000711
-999937
-999791
-999474
-999418
-999252
-999130
-999200
-999203
-999211
-998902
-999092
-999103
-999115
-999119
-999266
-999236
-999386
-999435
-999449
-999546
-999644
-999851
-999835
-1000002
-1000102
-1000159
-1000180
-1000304
-1000455
-1000572
-1000530
-1000789
-1000735
-1000828
-1001022
-1000993
-1001139
-1001207
-1001387
-1001563
-1001493
-1001474
-1001583
-1001694
-1001829
-1001740
-1001842
-1001818
-1001934
-1001973
-1001985
-1002027
-1001961
-1001981
-1001962
-1002103
-1002019
-1002114
-1002075
-1002111
-1002131
-1002126
-1002073
-1002218
-1002185
-1002143
-1002066
-1002089
-1002175
-1002131
-1002155
-1002240
-1002177
-1002134
-1002127
-1002154
-1002325
-1002358
-1002478
-1002488
-1002627
-1002685
-1002653
-1002759
-1002892
-1002883
-1003030
-1003169
-1003165
-1003306
-1003255
-1003288
-1003383
-1003401
-1003386
-1003424
-1003520
-1003250
-1003672
-1003781
-1003686
-1003800
-1003741
-1003780
-1003858
-1003749
-1003850
-1003851
-1003795
-1003924
-1003718
-1003833
-1003787
-1003692
-1003655
-1003585
-1003582
-1003556
-1003538
-1003635
-1003544
-1003556
-1003448
-1003413
-1003348
-1003262
-1003250
-1003344
-1003363
-1003356
-1003328
-1003808
-1003434
-1003267
-1003300
-1003132
-1003202
-1003249
-1003290
-1003320
-1003209
-1003147
-1003639
-1003465
-1003381
-1003372
-1003438
-1003541
-1003530
-1003545
-1003521
-1003679
-1003640
-1003695
-1003679
-1003715
-1003857
-1003926
-1003934
-1004111
-1004169
-1004219
-1004182
-1004192
-1004273
-1004265
-1004342
-1004593
-1004706
-1004810
-1004734
-1004820
-1004874
-1005010
-1004708
-1004842
-1005103
-1005171
-1005398
-1005403
-1005370
-1005528
-1005630
-1005722
-1005786
-1005827
-1005922
-1006039
-1006122
-1005974
-1006116
-1006279
-1006282
-1006334
-1006353
-1006458
-1006519
-1006588
-1006666
-1006694
-1006803
-1006862
-1006898
-1006943
-1006909
-1006968
-1007134
-1007225
-1007183
-1007267
-1007260
-1007444
-1007498
-1007575
-1007520
-1007531
-1007632
-1007759
-1007741
-1007784
-1007929
-1007931
-1007958
-1008045
-1008157
-1008071
-1008229
-1008246
-1008379
-1008414
-1008330
-1008504
-1008608
-1008537
-1008747
-1008793
-1008843
-1008808
-1008827
-1008946
-1008905
-1009049
-1008997
-1009120
-1009149
-1009103
-1009291
-1009339
-1009590
-1009588
-1009540
-1009629
-1009657
-1009611
-1009788
-1009735
-1009795
-1009746
-1009933
-1010008
-1009944
-1010026
-1010037
-1010073
-1010176
-1010302
-1010316
-1010459
-1010293
-1010395
-1010673
-1010568
-1010571
-1010549
-1010571
-1010535
-1010608
-1010431
-1010707
-1010809
-1010789
-1010802
-1010854
-1010891
-1011027
-1011074
-1011113
-1011052
-1011124
-1011249
-1011986
-1011551
-1011390
-1011478
-1011440
-1011520
-1011527
-1011535
-1011645
-1011829
-1011833
-1011875
-1011968
-1011981
-1012011
-1012805
-1012387
-1012270
-1012361
-1012471
-1012535
-1012490
-1012479
-1012486
-1012616
-1012805
-1012779
-1012909
-1013054
-1012883
-1013040
-1012940
-1013085
-1013147
-1013161
-1012991
-1012868
-1012818
-1012762
-1012739
-1012476
-1012242
-1012022
-1011706
-1011492
-1011431
-1011114
-1010695
-1010323
-1009974
-1009425
-1009005
-1008377
-1008198
-1007890
-1007528
-1007187
-1006760
-1006443
-1005877
-1005530
-1005206
-1004841
-1004633
-1004184
-1003846
-1003583
-1003436
-1003198
-1002883
-1002656
-1002531
-1002425
-1001974
-1002083
-1001915
-1001938
-1001710
-1001698
-1001611
-1001586
-1001530
-1001413
-1001508
-1001585
-1001505
-1001648
-1001574
-1001707
-1001889
-1001869
-1001855
-1001684
-1001904
-1001953
-1002174
-1002210
-1002253
-1002395
-1002476
-1002546
-1002674
-1002794
-1002952
-1002979
-1002994
-1003061
-1003203
-1003383
-1003449
-1003447
-1003456
-1003631
-1003646
-1003745
-1003758
-1003804
-1003845
-1003904
-1003972
-1003968
-1003994
-1003962
-1004036
-1004108
-1004225
-1004165
-1004303
-1004302
-1004189
-1004224
-1004306
-1004273
-1004332
-1004339
-1004256
-1004241
-1004198
-1004275
-1004047
-1004200
-1004230
-1004262
-1004307
-1004445
-1004478
-1004543
-1004482
-1004445
-1004471
-1004531
-1004500
-1004695
-1004733
-1004782
-1004767
-1004716
-1004878
-1004897
-1005063
-1005208
-1005306
-1005242
-1005363
-1005408
-1005609
-1005674
-1005626
-1005710
-1005915
-1005810
-1005805
-1005774
-1005947
-1005904
-1005943
-1005999
-1006103
-1006065
-1006075
-1005991
-1006057
-1006058
-1006096
-1006129
-1006040
-1006875
-1006302
-1005930
-1006156
-1006043
-1005921
-1005939
-1006118
-1006063
-1005996
-1005902
-1005973
-1005879
-1005885
-1005880
-1005848
-1005790
-1005710
-1005688
-1005643
-1005627
-1005701
-1005699
-1005736
-1005623
-1005712
-1005625
-1005654
-1005586
-1005642
-1005615
-1005714
-1005777
-1005769
-1005661
-1005768
-1005762
-1005876
-1005910
-1005917
-1006011
-1005945
-1006102
-1006063
-1006419
-1006534
-1006509
-1006707
-1006709
-1006785
-1006821
-1006944
-1006895
-1006940
-1007117
-1007179
-1007213
-1007278
-1007366
-1008243
-1007726
-1007614
-1007595
-1007656
-1007769
-1007956
-1007931
-1007980
-1008179
-1008159
-1008212
-1008217
-1008236
-1008355
-1008445
-1008592
-1008731
-1008669
-1008872
-1008973
-1009025
-1009084
-1009044
-1009034
-1009122
-1009093
-1009274
-1009362
-1009415
-1009444
-1009412
-1009532
-1009649
-1009693
-1009707
-1009700
-1009770
-1009968
-1009971
-1010134
-1010208
-1010080
-1010292
-1010386
-1010400
-1010509
-1010483
-1010456
-1010569
-1010723
-1010746
-1010725
-1010715
-1010897
-1010831
-1010881
-1011059
-1011145
-1011023
-1011200
-1011284
-1011304
-1011346
-1011314
-1011356
-1011288
-1011420
-1011579
-1011664
-1011715
-1011680
-1011707
-1011828
-1011920
-1011776
-1011913
-1012037
-1012109
-1012220
-1012293
-1012219
-1012227
-1012281
-1012392
-1012480
-1012428
-1012626
-1012593
-1012656
-1012606
-1012700
-1012740
-1012791
-1012915
-1012875
-1012984
-1013043
-1013045
-1013075
-1013035
-1013240
-1013307
-1013337
-1013247
-1013279
-1013177
-1013312
-1013420
-1013475
-1013598
-1013574
-1013641
-1013675
-1013659
-1013697
-1013891
-1013944
-1013906
-1013993
-1014102
-1014094
-1014260
-1014288
-1014174
-1014427
-1014355
-1014412
-1014497
-1014503
-1014533
-1015510
-1014807
-1014573
-1014642
-1014753
-1014748
-1014839
-1014881
-1014936
-1015022
-1014968
-1015093
-1015167
-1015296
-1015194
-1015270
-1015387
-1015488
-1015624
-1015721
-1015755
-1015818
-1015904
-1015877
-1015870
-1015905
-1016008
-1016038
-1016149
-1016278
-1016300
-1016401
-1016371
-1016443
-1016488
-1016644
-1016635
-1016472
-1016598
-1016568
-1016469
-1016416
-1016281
-1016226
-1016018
-1015756
-1015681
-1015278
-1015141
-1014806
-1014460
-1014079
-1013684
-1013180
-1012904
-1012336
-1011852
-1011522
-1011048
-1010711
-1010279
-1009790
-1009400
-1008971
-1008472
-1008220
-1007618
-1007332
-1007137
-1006880
-1006470
-1006199
-1005897
-1005607
-1005401
-1005271
-1005068
-1004891
-1004771
-1004554
-1004465
-1004266
-1004157
-1004181
-1004163
-1004027
-1004128
-1004165
-1004060
-1003980
-1003962
-1004109
-1004188
-1004118
-1004142
-1004207
-1004248
-1004356
-1004470
-1004401
-1004449
-1004650
-1004577
-1004662
-1004805
-1004937
-1004996
-1005089
-1005026
-1005162
-1005313
-1005497
-1005421
-1005511
-1005569
-1005757
-1005758
-1005848
-1005842
-1005950
-1006028
-1006026
-1006096
-1006114
-1006161
-1006316
-1006513
-1006541
-1006427
-1006378
-1006534
-1006442
-1006435
-1006410
-1006546
-1006309
-1006497
-1006566
-1006577
-1006628
-1006544
-1006478
-1006422
-1006542
-1006572
-1006500
-1006547
-1006606
-1006609
-1006645
-1006666
-1006491
-1006547
-1006634
-1006658
-1006599
-1006782
-1006798
-1006693
-1006749
-1006844
-1006829
-1006896
-1006941
-1006854
-1007026
-1007116
-1007197
-1007276
-1007244
-1007210
-1007498
-1007594
-1007447
-1007516
-1007565
-1007746
-1007840
-1007850
-1007873
-1007905
-1007967
-1008088
-1008069
-1008130
-1008163
-1008255
-1008191
-1008195
-1008192
-1008297
-1008723
-1008364
-1008383
-1008417
-1008264
-1008248
-1008259
-1008174
-1008135
-1008168
-1008198
-1008206
-1008159
-1008134
-1008115
-1008178
-1008078
-1008042
-1008043
-1007993
-1007977
-1008104
-1008082
-1007978
-1007818
-1008003
-1007979
-1008043
-1008098
-1008129
-1008080
-1008074
-1008128
-1008185
-1008217
-1008252
-1008287
-1008436
-1008310
-1008380
-1008545
-1008664
-1008710
-1008656
-1008671
-1008823
-1008891
-1008893
-1008983
-1009080
-1009059
-1009099
-1009310
-1009192
-1009256
-1009344
-1009510
-1009632
-1009643
-1009651
-1009678
-1009744
-1009806
-1009839
-1010023
-1010146
-1010152
-1010197
-1010143
-1010315
-1010494
-1010546
-1010676
-1010793
-1010908
-1010978
-1010885
-1010993
-1011008
-1011087
-1011286
-1011227
-1011272
-1011305
-1011541
-1012102
-1011718
-1011745
-1011645
-1011787
-1011960
-1011745
-1011882
-1011946
-1012086
-1012235
-1012345
-1012352
-1012307
-1012456
-1012352
-1012524
-1012584
-1012635
-1012728
-1012797
-1012756
-1013009
-1012804
-1012918
-1013087
-1013144
-1013159
-1013235
-1013316
-1013415
-1013455
-1013406
-1013431
-1013615
-1013690
-1013764
-1014289
-1013964
-1013967
-1013980
-1014021
-1014014
-1014046
-1014077
-1014081
-1014158
-1014344
-1014388
-1014382
-1014321
-1014439
-1014497
-1014547
-1014656
-1014731
-1014829
-1014919
-1014763
-1014949
-1014863
-1015035
-1015093
-1015077
-1015088
-1015125
-1015195
-1015372
-1015214
-1015420
-1015349
-1015488
-1015292
-1015377
-1015571
-1015713
-1015803
-1015932
-1015990
-1015791
-1016649
-1016227
-1015841
-1016031
-1016084
-1016274
-1016312
-1016411
-1016434
-1016600
-1016450
-1016495
-1016518
-1016591
-1016584
-1016781
-1016888
-1016914
-1016862
-1016877
-1016955
-1016867
-1016953
-1016965
-1017165
-1017219
-1017013
-1017129
-1017268
-1017358
-1017347
-1017407
-1017405
-1017548
-1017719
-1017706
-1017815
-1017829
-1017861
-1017910
-1018013
-1018163
-1018251
-1018259
-1018317
-1018467
-1018505
-1018573
-1018679
-1018623
-1018669
-1018731
-1018744
-1018813
-1018951
-1019045
-1018963
-1019078
-1019198
-1019129
-1019140
-1019206
-1019229
-1019267
-1019318
-1019305
-1019351
-1019369
-1019274
-1019180
-1019035
-1018819
-1018724
-1018514
-1018308
-1017982
-1017716
-1017297
-1017001
-1016730
-1016381
-1016012
-1015424
-1015133
-1014726
-1014238
-1013893
-1013396
-1013108
-1012601
-1012179
-1011913
-1011425
-1011196
-1010769
-1010532
-1010311
-1009590
-1009608
-1009298
-1009154
-1008984
-1008715
-1008493
-1008404
-1008352
-1008267
-1008014
-1007959
-1007865
-1007748
-1007643
-1007575
-1007529
-1007382
-1007529
-1007633
-1007636
-1007610
-1007586
-1007571
-1007773
-1007811
-1007799
-1007985
-1008019
-1008083
-1008156
-1008266
-1008227
-1008223
-1008302
-1008415
-1008535
-1008601
-1008691
-1008910
-1009011
-1009130
-1009110
-1009187
-1009379
-1009295
-1009392
-1009532
-1009635
-1009680
-1009828
-1010720
-1010226
-1010141
-1010164
-1010031
-1010131
-1010135
-1010246
-1010277
-1010377
-1010449
-1010345
-1010458
-1010408
-1010413
-1010451
-1010408
-1010424
-1010488
-1010509
-1010567
-1010555
-1010558
-1010486
-1010550
-1010501
-1010534
-1010560
-1010715
-1010574
-1010723
-1010741
-1010678
-1010744
-1010709
-1010750
-1010865
-1010966
-1011038
-1011129
-1011177
-1011171
-1011264
-1011302
-1011888
-1011591
-1011542
-1011695
-1011730
-1011728
-1011833
-1011802
-1011934
-1011892
-1011965
-1011989
-1011983
-1012028
-1012194
-1012209
-1012403
-1012299
-1012298
-1012312
-1012395
-1012365
-1012391
-1012501
-1012407
-1012314
-1012374
-1012260
-1012320
-1012237
-1012268
-1012271
-1012177
-1012073
-1012159
-1012090
-1012082
-1012059
-1011966
-1012006
-1011955
-1011942
-1011999
-1011841
-1012007
-1011985
-1011956
-1011955
-1011861
-1011826
-1011906
-1011929
-1012033
-1011978
-1011929
-1011968
-1011803
-1011995
-1011918
-1012123
-1012075
-1012162
-1012329
-1012229
-1013069
-1012625
-1012498
-1012479
-1012535
-1012539
-1012585
-1012715
-1012809
-1012745
-1012799
-1012955
-1013081
-1013086
-1012901
-1013036
-1013218
-1013313
-1013431
-1013416
-1013488
-1013605
-1013622
-1013689
-1013821
-1013850
-1013885
-1013956
-1014029
-1014111
-1014152
-1014195
-1014352
-1014459
-1014403
-1014619
-1014718
-1014648
-1015598
-1015000
-1014968
-1014964
-1015017
-1015044
-1015248
-1015347
-1015353
-1015479
-1015418
-1015616
-1015810
-1015764
-1015769
-1015856
-1015974
-1015963
-1016020
-1016135
-1016147
-1016351
-1016310
-1016401
-1016405
-1016533
-1016653
-1016620
-1016796
-1016727
-1016828
-1016768
-1016896
-1016927
-1016913
-1016922
-1017079
-1017127
-1017069
-1017193
-1017156
-1017308
-1017464
-1017349
-1017360
-1017490
-1017483
-1017594
-1017564
-1017621
-1017637
-1017748
-1017735
-1017884
-1017920
-1017914
-1018012
-1018006
-1018061
-1018164
-1018796
-1018436
-1018286
-1018386
-1018338
-1018282
-1018469
-1018414
-1018563
-1018688
-1018666
-1018669
-1018701
-1018839
-1018803
-1018798
-1019007
-1018874
-1019020
-1019202
-1019126
-1019173
-1019232
-1019319
-1019468
-1019171
-1020096
-1019764
-1019640
-1019665
-1019639
-1019771
-1019835
-1019772
-1019757
-1019840
-1019975
-1020083
-1020087
-1020267
-1020183
-1020311
-1020381
-1020492
-1020427
-1020538
-1020547
-1020676
-1020789
-1020896
-1020747
-1020767
-1020867
-1020890
-1020934
-1021041
-1020951
-1020914
-1020827
-1020851
-1020760
-1020692
-1020468
-1020290
-1020244
-1019988
-1019855
-1019576
-1019242
-1018955
-1018605
-1018332
-1017463
-1017147
-1016723
-1016311
-1015947
-1014146
-1013378
-1013019
-1012382
-1012294
-1012156
-1011943
-1011611
-1011357
-1011153
-1010226
-1010037
-1009960
-1009961
-1010003
-1009893
-1009717
-1009844
-1009946
-1009809
-1009964
-1009881
-1010048
-1010055
-1010140
-1010174
-1010129
-1010274
-1010453
-1010513
-1010647
-1010635
-1010824
-1010885
-1010856
-1011040
-1011091
-1011167
-1011209
-1011502
-1011518
-1011537
-1011667
-1011834
-1011811
-1011596
-1011899
-1012100
-1012188
-1012234
-1012372
-1012463
-1012530
-1012427
-1012437
-1012451
-1012489
-1012572
-1012672
-1012843
-1012750
-1012779
-1012881
-1012772
-1012827
-1012869
-1012799
-1012843
-1012856
-1012962
-1012993
-1012972
-1012956
-1013023
-1013089
-1012983
-1013017
-1012797
-1013129
-1013171
-1013314
-1013360
-1013440
-1013514
-1013569
-1013615
-1013649
-1013672
-1013817
-1013861
-1014044
-1013970
-1014130
-1014148
-1014375
-1014367
-1014427
-1014442
-1014472
-1014542
-1014644
-1014735
-1014812
-1014776
-1014904
-1014861
-1014823
-1014914
-1015036
-1014991
-1015057
-1014796
-1014926
-1014996
-1015095
-1014863
-1014889
-1014956
-1014968
-1014832
-1015022
-1015052
-1015066
-1014898
-1014841
-1014792
-1014858
-1014446
-1014783
-1014747
-1014918
-1014714
-1014785
-1014701
-1014625
-1014590
-1014592
-1014651
-1014604
-1014660
-1014668
-1014701
-1014662
-1014606
-1014623
-1014550
-1014613
-1014658
-1014601
-1015359
-1014873
-1014699
-1014765
-1014694
-1014643
-1014670
-1014701
-1014805
-1014851
-1014987
-1014954
-1014895
-1014982
-1015198
-1015116
-1015256
-1015153
-1015311
-1015430
-1015443
-1015498
-1015608
-1015604
-1015649
-1015718
-1015867
-1015829
-1016010
-1016109
-1016263
-1016206
-1016232
-1016457
-1016422
-1016539
-1016589
-1016563
-1016759
-1016784
-1016968
-1016970
-1017201
-1017195
-1017207
-1017286
-1017354
-1017448
-1017468
-1017652
-1017600
-1017698
-1017820
-1017979
-1017955
-1018034
-1018124
-1018103
-1018150
-1018202
-1018339
-1018319
-1018401
-1018570
-1018571
-1018686
-1018656
-1018761
-1018874
-1018923
-1018837
-1018945
-1019050
-1019153
-1019250
-1019173
-1019301
-1019317
-1019364
-1019463
-1019487
-1019736
-1019605
-1019571
-1019656
-1019720
-1019731
-1019872
-1019993
-1020092
-1020176
-1020214
-1020253
-1020254
-1020341
-1020308
-1020403
-1020485
-1020484
-1020425
-1020470
-1020588
-1020642
-1020634
-1020753
-1020773
-1020820
-1020740
-1020878
-1021015
-1021062
-1020857
-1020955
-1020986
-1021051
-1021225
-1020903
-1021227
-1021367
-1021421
-1021521
-1021600
-1021637
-1021619
-1021732
-1021835
-1021836
-1021774
-1021852
-1021875
-1021922
-1022078
-1021902
-1022172
-1022322
-1022180
-1022151
-1022270
-1022514
-1022568
-1022635
-1022654
-1022687
-1022752
-1022818
-1022865
-1022853
-1022951
-1022940
-1022934
-1023148
-1023194
-1023171
-1023216
-1023382
-1023363
-1023285
-1023313
-1023058
-1023308
-1023317
-1023275
-1023229
-1022999
-1022808
-1022645
-1022474
-1022402
-1022058
-1021911
-1021469
-1021239
-1020832
-1020498
-1020204
-1019795
-1019419
-1018855
-1015773
-1015517
-1014996
-1014853
-1014503
-1014272
-1013892
-1013657
-1013451
-1013220
-1012754
-1012716
-1012615
-1012442
-1012448
-1012243
-1012193
-1012057
-1012049
-1012016
-1011959
-1011852
-1011878
-1011870
-1011963
-1012003
-1012011
-1011914
-1012003
-1012056
-1012137
-1012278
-1012227
-1012322
-1012447
-1012403
-1012507
-1012634
-1012458
-1012586
-1012729
-1012821
-1012939
-1013096
-1013228
-1013193
-1013347
-1013424
-1013537
-1013500
-1013632
-1013577
-1013701
-1013730
-1013686
-1013846
-1013888
-1014066
-1014037
-1014168
-1014240
-1014362
-1014343
-1014386
-1014400
-1014474
-1014316
-1014413
-1014440
-1014434
-1014533
-1014557
-1014499
-1014626
-1014475
-1014565
-1014479
-1014610
-1014592
-1014610
-1014678
-1014726
-1014617
-1014697
-1014806
-1014784
-1014870
-1014925
-1014959
-1015106
-1015193
-1015195
-1015306
-1015300
-1015393
-1015495
-1015594
-1015638
-1015680
-1015767
-1015529
-1015775
-1015970
-1015767
-1016015
-1016112
-1016185
-1016228
-1016306
-1016375
-1016431
-1016362
-1016554
-1016432
-1016484
-1016448
-1016355
-1016311
-1016448
-1016469
-1016417
-1016447
-1016467
-1016372
-1016415
-1016336
-1016357
-1016991
-1016490
-1016300
-1016191
-1016116
-1016165
-1016076
-1016007
-1015965
-1015982
-1015844
-1015894
-1015958
-1015921
-1015910
-1015963
-1015950
-1015885
-1015940
-1015958
-1015916
-1015939
-1015905
-1015907
-1015956
-1016057
-1016054
-1016114
-1016118
-1016149
-1016106
-1016257
-1016242
-1016199
-1016247
-1016390
-1016362
-1016366
-1016519
-1016547
-1016644
-1016598
-1016779
-1016762
-1016776
-1016859
-1017012
-1017065
-1017251
-1017287
-1017310
-1017448
-1017604
-1017659
-1017547
-1017696
-1017753
-1017746
-1017869
-1017963
-1017961
-1018123
-1018204
-1018166
-1018336
-1018369
-1018475
-1018495
-1018412
-1018521
-1018622
-1018731
-1018638
-1018629
-1018708
-1018816
-1018974
-1018931
-1019009
-1019063
-1019043
-1019274
-1019292
-1019185
-1019231
-1019235
-1019394
-1019371
-1019388
-1019467
-1019513
-1019569
-1019682
-1019665
-1019749
-1019851
-1019861
-1019985
-1020001
-1020098
-1020084
-1020125
-1020215
-1020220
-1020307
-1020385
-1020589
-1020544
-1020689
-1020716
-1020775
-1020767
-1020855
-1020961
-1021006
-1021030
-1021077
-1021147
-1021133
-1021200
-1021348
-1021352
-1021276
-1021366
-1021463
-1021436
-1021458
-1021538
-1021588
-1021683
-1021765
-1021920
-1021908
-1021978
-1021836
-1022004
-1021988
-1022052
-1022177
-1022039
-1022053
-1022153
-1022268
-1023098
-1022394
-1022453
-1022343
-1022450
-1022546
-1022624
-1022670
-1022671
-1022707
-1022765
-1022786
-1022869
-1022868
-1022873
-1022968
-1023111
-1023053
-1023039
-1023050
-1023287
-1023270
-1023335
-1023508
-1024009
-1023658
-1023712
-1023781
-1023701
-1023633
-1023627
-1023840
-1023964
-1024044
-1024220
-1024273
-1024222
-1024223
-1024345
-1024425
-1024477
-1024311
-1024313
-1024297
-1024103
-1023968
-1023879
-1023801
-1023556
-1023315
-1023149
-1022783
-1022405
-1022060
-1021804
-1021437
-1021049
-1020648
-1020287
-1019754
-1019431
-1019002
-1018394
-1017987
-1017527
-1017213
-1016782
-1016349
-1015979
-1015688
-1015326
-1014958
-1014582
-1014323
-1013998
-1013740
-1013473
-1013237
-1013068
-1012841
-1012678
-1012592
-1012298
-1012289
-1012277
-1012673
-1012170
-1012012
-1011936
-1011908
-1011906
-1011980
-1011798
-1011855
-1011846
-1011963
-1012076
-1011953
-1012120
-1012205
-1012169
-1012245
-1012237
-1012246
-1012497
-1012612
-1012587
-1012700
-1012737
-1012708
-1012841
-1013015
-1012962
-1013055
-1013076
-1013271
-1013332
-1013176
-1013326
-1013418
-1013486
-1013512
-1013593
-1013599
-1013667
-1013892
-1013940
-1013896
-1014021
-1014020
-1013988
-1014056
-1014093
-1014214
-1014087
-1014032
-1014070
-1013995
-1014090
-1014041
-1014128
-1014189
-1014197
-1014115
-1014103
-1013995
-1013949
-1013979
-1013867
-1013810
-1013821
-1013764
-1013774
-1013850
-1013848
-1013986
-1014080
-1014032
-1014047
-1014053
-1014047
-1014123
-1014041
-1014112
-1014162
-1014328
-1014388
-1014416
-1014451
-1014519
-1014508
-1014610
-1014631
-1014730
-1014864
-1014843
-1014997
-1014985
-1015110
-1015208
-1015256
-1015319
-1015228
-1015311
-1015230
-1015848
-1015588
-1015374
-1015424
-1015493
-1015460
-1015396
-1015998
-1015675
-1015521
-1015470
-1015566
-1015430
-1015528
-1015362
-1015462
-1015497
-1015479
-1015537
-1015464
-1015436
-1015398
-1015258
-1015233
-1015315
-1015244
-1015100
-1015076
-1015100
-1015159
-1015109
-1015057
-1015002
-1015121
-1014979
-1014898
-1014996
-1015005
-1014929
-1014711
-1014894
-1015025
-1014970
-1015110
-1015077
-1015144
-1015173
-1015227
-1015403
-1015326
-1015424
-1015375
-1015476
-1015486
-1015538
-1015510
-1015573
-1015588
-1015730
-1015743
-1015766
-1015812
-1015864
-1015972
-1016121
-1016138
-1016225
-1016320
-1016375
-1016405
-1016496
-1016507
-1016614
-1016747
-1016862
-1016879
-1017002
-1017052
-1017475
-1017512
-1017636
-1017747
-1017720
-1018619
-1018210
-1018195
-1017999
-1018037
-1018232
-1018274
-1018302
-1018264
-1018293
-1018344
-1018417
-1018582
-1018629
-1018607
-1018761
-1018671
-1018699
-1018897
-1018844
-1019031
-1019023
-1019080
-1019053
-1019208
-1019317
-1019347
-1019320
-1019417
-1019451
-1019571
-1019604
-1019588
-1019746
-1019555
-1019817
-1019772
-1019938
-1019935
-1020008
-1020023
-1020104
-1020157
-1020126
-1020178
-1020190
-1020342
-1020420
-1020508
-1020576
-1020515
-1020450
-1020687
-1020606
-1020658
-1020649
-1020657
-1020778
-1020968
-1020888
-1021089
-1021096
-1021102
-1021051
-1021066
-1021268
-1021306
-1021375
-1021441
-1021400
-1021563
-1021495
-1021447
-1021554
-1021632
-1021601
-1021674
-1021691
-1021836
-1021821
-1021853
-1021798
-1021841
-1021881
-1021894
-1022012
-1022030
-1022020
-1022150
-1022182
-1022232
-1022048
-1022318
-1022391
-1022337
-1022420
-1022552
-1022620
-1022642
-1022697
-1022701
-1022358
-1022700
-1022770
-1022675
-1022833
-1022932
-1023001
-1023039
-1023062
-1023146
-1023227
-1023159
-1023632
-1023336
-1023347
-1023461
-1023520
-1023643
-1023687
-1023667
-1023690
-1023823
-1023782
-1023836
-1023981
-1024126
-1024185
-1024281
-1024224
-1024297
-1024400
-1024382
-1024345
-1024406
-1024509
-1024526
-1024581
-1024655
-1024624
-1024786
-1024640
-1024570
-1024498
-1024235
-1024293
-1024095
-1023997
-1023894
-1023630
-1023315
-1023082
-1022832
-1022325
-1021999
-1021102
-1020801
-1020519
-1019974
-1019465
-1019030
-1018568
-1018222
-1017686
-1017308
-1017018
-1016575
-1016271
-1015660
-1015276
-1015040
-1014724
-1014356
-1014129
-1013861
-1013529
-1013404
-1013194
-1012958
-1012833
-1012653
-1012522
-1012309
-1012164
-1012149
-1012736
-1012224
-1011862
-1011868
-1012861
-1012245
-1011999
-1011979
-1011701
-1011843
-1011943
-1012063
-1012134
-1012161
-1012122
-1012154
-1012189
-1012307
-1012275
-1012348
-1012486
-1012529
-1012629
-1012740
-1012586
-1012864
-1012979
-1013068
-1013112
-1013164
-1013331
-1013408
-1013343
-1013394
-1013509
-1013537
-1013810
-1013552
-1013499
-1013603
-1013654
-1013670
-1013668
-1013728
-1013823
-1013771
-1013739
-1013567
-1013707
-1013765
-1013824
-1013683
-1013629
-1013620
-1013788
-1013585
-1013540
-1013616
-1013489
-1013589
-1013570
-1013642
-1013412
-1013445
-1013486
-1013458
-1013371
-1013444
-1013463
-1013407
-1013430
-1013537
-1013583
-1013686
-1013724
-1013757
-1013793
-1013931
-1013937
-1014045
-1014025
-1014258
-1014197
-1014270
-1014348
-1014412
-1014582
-1014479
-1013990
-1014403
-1014601
-1014450
-1014635
-1014798
-1014856
-1014959
-1014610
-1014873
-1014960
-1014764
-1015026
-1015112
-1014968
-1015023
-1015046
-1015128
-1014920
-1014917
-1014960
-1015010
-1014998
-1014855
-1014806
-1014847
-1014845
-1015270
-1014880
-1014767
-1014613
-1014656
-1014641
-1014612
-1014522
-1014500
-1014640
-1014514
-1014655
-1014753
-1014570
-1014422
-1014367
-1014463
-1014424
-1014447
-1014458
-1014542
-1014557
-1014456
-1014549
-1014585
-1014613
-1014537
-1014574
-1014674
-1014680
-1014645
-1014811
-1014849
-1014856
-1015438
-1015076
-1014945
-1015006
-1015018
-1015123
-1015164
-1015273
-1015295
-1015462
-1015616
-1015447
-1015513
-1015609
-1015699
-1015771
-1015888
-1015894
-1015957
-1016010
-1016022
-1016123
-1016136
-1016217
-1016350
-1016427
-1016592
-1016607
-1016601
-1016705
-1016831
-1016900
-1016750
-1016909
-1016878
-1017067
-1017151
-1017126
-1017290
-1017271
-1017294
-1017286
-1017280
-1017428
-1017485
-1017486
-1017593
-1017591
-1017659
-1017821
-1017738
-1017837
-1017737
-1017929
-1018041
-1018468
-1018327
-1018313
-1018251
-1018341
-1018410
-1018389
-1018479
-1018586
-1018556
-1018649
-1018747
-1018843
-1018762
-1018740
-1018809
-1018897
-1019007
-1019057
-1018769
-1019013
-1019049
-1018888
-1019165
-1019202
-1019332
-1020138
-1019660
-1019515
-1019544
-1019411
-1019570
-1019550
-1019533
-1019539
-1019563
-1019561
-1019746
-1019836
-1019869
-1019818
-1019819
-1019857
-1019901
-1019935
-1019987
-1020068
-1019921
-1020193
-1020187
-1020321
-1020083
-1020260
-1020676
-1020426
-1020437
-1020232
-1020395
-1020499
-1020583
-1020591
-1020710
-1020625
-1020757
-1020666
-1020737
-1020697
-1020735
-1020958
-1021061
-1020654
-1020913
-1021071
-1021187
-1021192
-1021144
-1021281
-1021285
-1021342
-1021498
-1021632
-1021556
-1021657
-1021727
-1021761
-1021706
-1021744
-1021924
-1022040
-1022027
-1021912
-1021986
-1022019
-1022905
-1022419
-1023020
-1022623
-1022416
-1022443
-1022549
-1022532
-1022685
-1022717
-1022675
-1022655
-1022696
-1022728
-1022817
-1022837
-1022880
-1022989
-1023028
-1022970
-1023044
-1022935
-1022809
-1022732
-1022446
-1022524
-1022415
-1022278
-1021986
-1021848
-1021546
-1021266
-1020834
-1020457
-1020195
-1019751
-1019269
-1018750
-1018361
-1018061
-1017498
-1017208
-1016638
-1015948
-1015777
-1015434
-1015118
-1014763
-1014370
-1014650
-1013968
-1013433
-1013049
-1012787
-1012657
-1012352
-1012141
-1011966
-1011780
-1011641
-1011452
-1011212
-1010957
-1010974
-1011079
-1011030
-1011042
-1010912
-1010819
-1010800
-1011289
-1011066
-1011004
-1011043
-1011010
-1011109
-1011015
-1011138
-1011180
-1011350
-1011462
-1011449
-1011607
-1011633
-1011624
-1011718
-1011843
-1011855
-1011897
-1011980
-1012115
-1012131
-1012272
-1012262
-1012336
-1012553
-1012515
-1012579
-1012678
-1012706
-1012843
-1013593
-1013186
-1013031
-1012901
-1012997
-1013113
-1013164
-1013058
-1013121
-1013234
-1013269
-1013205
-1013326
-1013297
-1013382
-1013231
-1013262
-1013234
-1013337
-1013282
-1013346
-1013225
-1013128
-1013235
-1013148
-1013121
-1013240
-1013172
-1013188
-1013169
-1013202
-1013262
-1013329
-1013411
-1013448
-1013391
-1013432
-1013589
-1013583
-1013649
-1013787
-1013830
-1013791
-1013856
-1013916
-1014098
-1014113
-1014130
-1014173
-1014264
-1014290
-1014492
-1014430
-1014562
-1014513
-1014483
-1014497
-1014500
-1014642
-1014604
-1014758
-1014623
-1014551
-1014679
-1014652
-1014723
-1014713
-1014576
-1014581
-1014562
-1014574
-1014566
-1014519
-1014526
-1014584
-1014476
-1014563
-1014367
-1014278
-1014376
-1014204
-1014053
-1014197
-1014124
-1014015
-1014047
-1014038
-1014085
-1013934
-1013935
-1013838
-1013832
-1013842
-1013950
-1013952
-1013940
-1013913
-1013829
-1013743
-1013745
-1013793
-1013757
-1013756
-1013791
-1013815
-1014032
-1014008
-1014075
-1014157
-1014070
-1014093
-1014099
-1014291
-1014220
-1014224
-1014248
-1014308
-1014377
-1014309
-1015061
-1014700
-1014595
-1014731
-1014902
-1014771
-1014822
-1014854
-1014621
-1014994
-1015062
-1015159
-1015262
-1015263
-1015343
-1015519
-1015532
-1015519
-1015764
-1015816
-1015726
-1015777
-1015804
-1015859
-1016011
-1016117
-1016206
-1016263
-1016348
-1016421
-1016373
-1016533
-1016487
-1016545
-1016593
-1016688
-1016867
-1016806
-1016978
-1017017
-1017161
-1017044
-1017218
-1017660
-1017257
-1017276
-1017517
-1017417
-1017411
-1017573
-1017677
-1017648
-1017631
-1017635
-1017761
-1017823
-1017797
-1017967
-1018017
-1017958
-1018076
-1018177
-1018148
-1018214
-1018258
-1018236
-1018394
-1018326
-1018453
-1018489
-1018504
-1018656
-1018635
-1018714
-1018787
-1018805
-1018795
-1018819
-1018964
-1019048
-1018938
-1018704
-1018867
-1019131
-1019202
-1019287
-1019421
-1019373
-1019419
-1019452
-1019546
-1019419
-1019413
-1019641
-1019674
-1019811
-1019851
-1019742
-1019911
-1019834
-1019802
-1019779
-1019741
-1019837
-1019737
-1019983
-1020144
-1020100
-1020235
-1020180
-1020204
-1020153
-1020214
-1020293
-1020356
-1020372
-1020426
-1020458
-1020430
-1020479
-1020461
-1020512
-1021254
-1020889
-1020695
-1020688
-1020730
-1020905
-1020867
-1020877
-1021017
-1021013
-1021021
-1021030
-1021057
-1021120
-1021248
-1021264
-1021366
-1021363
-1021317
-1021403
-1021458
-1021245
-1021463
-1021595
-1021591
-1021721
-1021846
-1021917
-1021904
-1022001
-1022023
-1022123
-1022101
-1022300
-1022240
-1022379
-1022370
-1022467
-1022542
-1022534
-1022518
-1022724
-1023652
-1023026
-1022928
-1022921
-1023010
-1022958
-1023118
-1023076
-1023054
-1023033
-1023103
-1023035
-1023108
-1023009
-1022881
-1022899
-1022679
-1022527
-1022402
-1022063
-1021813
-1021688
-1021347
-1020812
-1020559
-1020081
-1019732
-1019267
-1018760
-1018468
-1018131
-1017635
-1017224
-1016713
-1016230
-1016008
-1015534
-1015033
-1014648
-1014332
-1014090
-1013626
-1013370
-1013075
-1012702
-1012411
-1012160
-1011999
-1011643
-1011579
-1011487
-1011159
-1011106
-1010970
-1010856
-1010678
-1010754
-1010675
-1010680
-1010639
-1010797
-1011320
-1011397
-1011437
-1011563
-1011706
-1011682
-1011662
-1011889
-1011921
-1011984
-1011999
-1012018
-1012153
-1012234
-1012434
-1012415
-1012475
-1012533
-1012567
-1012575
-1012507
-1012531
-1012578
-1012697
-1012598
-1012781
-1012737
-1012702
-1012700
-1012645
-1012774
-1012770
-1012673
-1012672
-1012701
-1012725
-1012689
-1012778
-1012747
-1012693
-1012540
-1012526
-1012570
-1012551
-1012727
-1012613
-1012575
-1012529
-1012630
-1012670
-1012644
-1012748
-1012711
-1012901
-1012900
-1012979
-1012871
-1012962
-1013056
-1013090
-1013231
-1013149
-1013224
-1013330
-1013497
-1013493
-1013501
-1013524
-1013662
-1013614
-1013746
-1013779
-1013870
-1013857
-1013892
-1013950
-1013919
-1013949
-1014031
-1014028
-1013917
-1013897
-1013875
-1013971
-1013978
-1014001
-1013896
-1013974
-1013854
-1013879
-1013894
-1013796
-1013753
-1013756
-1013669
-1013770
-1013732
-1013600
-1013568
-1013441
-1013489
-1013520
-1013454
-1013468
-1013591
-1013371
-1013312
-1013282
-1013887
-1013385
-1013315
-1012882
-1013181
-1013358
-1013280
-1013254
-1013296
-1013297
-1013339
-1013326
-1013310
-1013431
-1013508
-1013421
-1013502
-1013472
-1013489
-1013551
-1013668
-1013629
-1013625
-1013786
-1013791
-1013908
-1013901
-1014010
-1014075
-1014041
-1014130
-1014230
-1014208
-1014337
-1014416
-1014452
-1014614
-1014506
-1014617
-1014651
-1014690
-1014773
-1014890
-1014963
-1015127
-1015097
-1015135
-1015255
-1015346
-1015429
-1015379
-1015101
-1015411
-1015603
-1015588
-1015613
-1015860
-1015812
-1015923
-1016035
-1016166
-1016117
-1016068
-1016231
-1016383
-1016342
-1016433
-1016339
-1016552
-1016502
-1016694
-1016569
-1016613
-1016785
-1016978
-1016931
-1016790
-1016822
-1017112
-1016887
-1017044
-1017262
-1017208
-1017324
-1017477
-1017537
-1017645
-1017511
-1017681
-1017679
-1017797
-1017889
-1017726
-1017779
-1017793
-1017849
-1017914
-1017936
-1018002
-1018076
-1018065
-1018251
-1018259
-1018351
-1018328
-1018449
-1018985
-1018770
-1018649
-1018728
-1018721
-1018652
-1018643
-1018734
-1018815
-1018863
-1018895
-1018909
-1018979
-1019084
-1018992
-1019121
-1019274
-1019250
-1019237
-1019394
-1019461
-1019345
-1019538
-1019598
-1019541
-1019491
-1019599
-1019644
-1019765
-1019796
-1019752
-1019902
-1019869
-1019968
-1019972
-1019962
-1020090
-1019999
-1020204
-1020274
-1020202
-1020320
-1020486
-1020535
-1020508
-1020446
-1020528
-1020530
-1020610
-1020649
-1020613
-1020697
-1020811
-1020847
-1021005
-1021085
-1021109
-1021059
-1021190
-1021234
-1021306
-1021246
-1021327
-1021328
-1021330
-1021470
-1021454
-1021447
-1021476
-1021528
-1021640
-1021566
-1021740
-1021763
-1021787
-1021754
-1021998
-1021979
-1022040
-1022159
-1022050
-1022081
-1022238
-1022400
-1022490
-1022417
-1022513
-1022491
-1022663
-1022680
-1022761
-1022762
-1022805
-1022926
-1023098
-1023120
-1023119
-1023230
-1023267
-1023276
-1023319
-1023181
-1023359
-1023443
-1023621
-1023687
-1023716
-1023651
-1023712
-1023668
-1023682
-1023641
-1023575
-1023547
-1023459
-1023419
-1023366
-1023076
-1022874
-1022702
-1022260
-1021955
-1021504
-1021259
-1020937
-1020531
-1019979
-1019552
-1019134
-1018861
-1018406
-1017915
-1017442
-1016978
-1016619
-1016261
-1015736
-1015271
-1015023
-1014633
-1014260
-1013876
-1013483
-1013247
-1012959
-1012736
-1012489
-1012309
-1012069
-1011997
-1011852
-1011643
-1011421
-1011391
-1011247
-1011216
-1011149
-1010972
-1010945
-1011028
-1010891
-1010987
-1010820
-1010878
-1010984
-1010922
-1011058
-1010972
-1011052
-1011049
-1011101
-1011055
-1011094
-1011404
-1011368
-1011568
-1011598
-1011531
-1011608
-1011712
-1011747
-1011869
-1011896
-1012073
-1012144
-1012172
-1012284
-1012224
-1012302
-1012376
-1012366
-1012469
-1012499
-1012467
-1012660
-1012567
-1012584
-1012614
-1012721
-1012711
-1012701
-1012759
-1012815
-1012739
-1012765
-1012901
-1012929
-1012845
-1012815
-1012750
-1012724
-1012789
-1012745
-1012851
-1012809
-1012665
-1012900
-1012489
-1012723
-1012780
-1012602
-1012597
-1012560
-1012687
-1012679
-1012648
-1012733
-1012665
-1012644
-1012631
-1012775
-1012730
-1012849
-1012887
-1012993
-1012970
-1012974
-1013080
-1013057
-1013171
-1013235
-1013273
-1013327
-1013520
-1013554
-1013645
-1013598
-1013779
-1013845
-1013524
-1013781
-1013768
-1013833
-1013889
-1013927
-1014005
-1013977
-1013864
-1014019
-1013952
-1013930
-1014072
-1013925
-1014030
-1014045
-1013939
-1013944
-1013814
-1014464
-1013973
-1013787
-1013674
-1013653
-1013713
-1013659
-1013554
-1013677
-1013666
-1013487
-1013459
-1013338
-1013420
-1013367
-1013293
-1013364
-1013316
-1013377
-1013332
-1013247
-1013188
-1013132
-1013137
-1013127
-1012894
-1013020
-1013533
-1013261
-1013278
-1013337
-1013273
-1013301
-1013380
-1013397
-1013266
-1013421
-1013444
-1013435
-1013635
-1013617
-1013637
-1013608
-1013742
-1013813
-1013883
-1013877
-1013856
-1014047
-1014092
-1014116
-1014342
-1014261
-1014250
-1014339
-1014443
-1014519
-1014517
-1014413
-1014564
-1014685
-1014853
-1014917
-1014833
-1015006
-1015016
-1015048
-1015130
-1015246
-1015181
-1015299
-1015496
-1015447
-1015556
-1015529
-1015570
-1015628
-1015656
-1015701
-1015904
-1015870
-1015964
-1015989
-1016109
-1016246
-1016283
-1016320
-1016247
-1016476
-1016518
-1016491
-1016652
-1016747
-1016781
-1016740
-1016845
-1016938
-1016912
-1016916
-1016999
-1017040
-1017085
-1017119
-1017332
-1017268
-1017286
-1017377
-1017345
-1017491
-1017530
-1017583
-1017655
-1017661
-1017658
-1017671
-1017728
-1017720
-1017978
-1018044
-1018089
-1018127
-1018079
-1018280
-1018255
-1018282
-1018300
-1018327
-1018390
-1018434
-1018465
-1018386
-1018503
-1018607
-1018648
-1018515
-1018648
-1018735
-1018724
-1018745
-1018735
-1018791
-1018506
-1018889
-1018964
-1018998
-1019114
-1019177
-1019095
-1019241
-1019264
-1019156
-1019277
-1019305
-1019370
-1019347
-1019424
-1019395
-1019720
-1019692
-1019672
-1019608
-1019661
-1019691
-1019677
-1019815
-1019814
-1019932
-1019894
-1019898
-1019885
-1020070
-1020043
-1020058
-1020139
-1020034
-1020591
-1020295
-1020303
-1020366
-1020384
-1020295
-1020350
-1020486
-1020504
-1020435
-1020483
-1020641
-1020656
-1020684
-1020693
-1020698
-1020732
-1020834
-1020857
-1020752
-1020941
-1020891
-1020864
-1020980
-1020974
-1021108
-1021179
-1021165
-1021222
-1021976
-1021587
-1021482
-1021550
-1021594
-1021545
-1021703
-1021656
-1021739
-1021827
-1021863
-1021773
-1021845
-1022024
-1022048
-1022061
-1022044
-1022221
-1022254
-1022360
-1022318
-1022521
-1022612
-1022666
-1022601
-1022623
-1022669
-1022865
-1022745
-1022870
-1022856
-1022841
-1022954
-1022872
-1022804
-1022808
-1022414
-1022429
-1022310
-1022174
-1021901
-1021758
-1021370
-1021233
-1020853
-1020465
-1020153
-1019737
-1019320
-1018914
-1018487
-1018079
-1017605
-1017336
-1016917
-1016385
-1015929
-1015461
-1015113
-1014695
-1014272
-1013918
-1013620
-1013383
-1013078
-1012683
-1012165
-1012053
-1011850
-1011654
-1011504
-1011382
-1011103
-1011112
-1010842
-1010766
-1010640
-1010586
-1010538
-1010455
-1010335
-1010321
-1010381
-1010403
-1010422
-1010441
-1010345
-1010391
-1010514
-1010475
-1010594
-1010557
-1010584
-1010676
-1010753
-1010827
-1011333
-1011128
-1011158
-1011118
-1011217
-1011256
-1011321
-1011388
-1011524
-1011593
-1011413
-1011571
-1011792
-1011959
-1011971
-1012228
-1012273
-1012319
-1012378
-1012352
-1012398
-1012566
-1012514
-1012524
-1012587
-1012735
-1012774
-1012813
-1012853
-1012901
-1012937
-1012943
-1012869
-1012934
-1012831
-1012786
-1012940
-1012950
-1012971
-1012817
-1012795
-1012819
-1012752
-1012766
-1012768
-1012875
-1012769
-1012908
-1012856
-1012626
-1012861
-1012757
-1012947
-1012932
-1012977
-1013056
-1013145
-1013251
-1013256
-1013226
-1013403
-1013419
-1013405
-1013425
-1013381
-1013219
-1013547
-1013668
-1013671
-1013684
-1013794
-1013848
-1014027
-1013909
-1013894
-1013931
-1014035
-1013947
-1014021
-1014081
-1013950
-1013926
-1013904
-1013860
-1013879
-1013856
-1013737
-1013799
-1013714
-1013694
-1013639
-1013365
-1013368
-1013373
-1013459
-1013422
-1013412
-1013329
-1013172
-1013126
-1013212
-1013162
-1013081
-1013181
-1013062
-1013037
-1012954
-1013019
-1012932
-1012986
-1012891
-1012844
-1012853
-1012866
-1012978
-1012886
-1012890
-1012978
-1012924
-1012919
-1012927
-1013012
-1012959
-1013152
-1013162
-1013043
-1012843
-1013196
-1013350
-1013328
-1013282
-1013349
-1013489
-1013633
-1013609
-1013583
-1013428
-1013715
-1013882
-1013894
-1013915
-1013980
-1014082
-1014214
-1014172
-1014203
-1014267
-1014564
-1014446
-1014445
-1014520
-1014533
-1014788
-1014856
-1014608
-1014533
-1014719
-1014629
-1014853
-1014960
-1015122
-1015214
-1015265
-1015331
-1015324
-1015094
-1015366
-1016135
-1015704
-1015300
-1015506
-1015619
-1015733
-1015933
-1015918
-1016006
-1016102
-1016171
-1015844
-1016837
-1016144
-1016270
-1016465
-1016358
-1016492
-1016580
-1016705
-1016604
-1017395
-1017021
-1016905
-1016831
-1016951
-1017012
-1017331
-1017202
-1017174
-1017123
-1017084
-1017263
-1017328
-1017334
-1017370
-1017386
-1017539
-1017582
-1017663
-1017622
-1017632
-1017718
-1017579
-1017749
-1017871
-1017961
-1017890
-1017977
-1018078
-1017959
-1017706
-1017797
-1018055
-1018141
-1018246
-1018321
-1018369
-1018355
-1018437
-1018473
-1018315
-1018540
-1018449
-1018625
-1018687
-1018644
-1018632
-1018731
-1018840
-1018831
-1018781
-1018895
-1018896
-1018849
-1018955
-1018593
-1018682
-1018922
-1018979
-1019068
-1019153
-1019087
-1019019
-1019246
-1019262
-1019332
-1019293
-1019332
-1019319
-1019362
-1019394
-1019471
-1019424
-1019609
-1019631
-1019621
-1019732
-1019744
-1019766
-1019833
-1019822
-1019873
-1019911
-1020009
-1019959
-1020060
-1020124
-1020136
-1020176
-1020388
-1020331
-1020225
-1020072
-1020327
-1020562
-1020537
-1020737
-1020715
-1021595
-1020938
-1020999
-1021005
-1021028
-1021035
-1021119
-1021114
-1021231
-1021221
-1021405
-1021197
-1021325
-1021373
-1021521
-1021511
-1021636
-1021717
-1021605
-1021280
-1021490
-1021560
-1021142
-1020853
-1020779
-1020580
-1020245
-1019924
-1019730
-1019289
-1018921
-1018660
-1018363
-1017939
-1017564
-1017081
-1016779
-1016236
-1015938
-1015474
-1015017
-1014667
-1014312
-1014038
-1013619
-1013183
-1012955
-1012619
-1012668
-1012109
-1011455
-1011270
-1011134
-1010936
-1010590
-1010522
-1010350
-1010177
-1010214
-1009978
-1009831
-1009751
-1009682
-1009688
-1009617
-1009710
-1009523
-1009679
-1009380
-1009499
-1009432
-1010078
-1009674
-1009567
-1009800
-1009734
-1009719
-1009773
-1009626
-1009781
-1009896
-1009967
-1010048
-1010144
-1010200
-1010409
-1010277
-1010447
-1010547
-1010620
-1010591
-1010691
-1010818
-1010788
-1010962
-1010957
-1011116
-1011200
-1011241
-1011174
-1011300
-1011291
-1011406
-1011340
-1011408
-1011546
-1011521
-1011558
-1011475
-1011499
-1011489
-1011593
-1011517
-1011627
-1011585
-1011545
-1011436
-1011512
-1011620
-1011517
-1011526
-1011536
-1011594
-1011514
-1011482
-1011492
-1011616
-1011568
-1011666
-1011555
-1011615
-1011649
-1011578
-1011671
-1011766
-1011762
-1011802
-1011939
-1011965
-1011946
-1012047
-1012100
-1012123
-1012139
-1012162
-1012278
-1012357
-1012252
-1012331
-1012311
-1012389
-1012492
-1012561
-1012677
-1012718
-1012772
-1012550
-1012696
-1012736
-1012817
-1012720
-1012669
-1012704
-1012677
-1012672
-1012618
-1012587
-1012592
-1012711
-1012535
-1012567
-1012526
-1012491
-1012584
-1012463
-1012353
-1012363
-1012322
-1012314
-1012135
-1012118
-1012011
-1011995
-1012021
-1012051
-1011951
-1011844
-1011793
-1011776
-1011700
-1011734
-1011726
-1011648
-1011721
-1011693
-1011669
-1011577
-1011637
-1011649
-1011701
-1011642
-1011513
-1011673
-1011596
-1011792
-1011881
-1011718
-1011872
-1011861
-1011807
-1011881
-1011820
-1011895
-1011982
-1012125
-1012188
-1012098
-1012229
-1012314
-1012251
-1012412
-1012439
-1012478
-1012495
-1012622
-1012633
-1012620
-1012842
-1012940
-1012985
-1013024
-1013040
-1013127
-1013213
-1013157
-1013251
-1013237
-1013410
-1013440
-1013471
-1013497
-1013644
-1013641
-1013657
-1013795
-1013883
-1013967
-1014148
-1014062
-1014056
-1014195
-1014254
-1014339
-1014295
-1014419
-1014445
-1014452
-1014510
-1014585
-1014634
-1014690
-1014779
-1014833
-1014890
-1014941
-1014973
-1014984
-1015170
-1015256
-1015212
-1015330
-1015301
-1015372
-1015460
-1015413
-1015583
-1015616
-1015704
-1015799
-1015850
-1015760
-1015843
-1015953
-1015989
-1015976
-1016013
-1015975
-1016129
-1016294
-1016254
-1016266
-1016135
-1016206
-1016356
-1016379
-1016510
-1016546
-1016575
-1016562
-1016617
-1016670
-1016706
-1016767
-1016780
-1016762
-1016881
-1016908
-1016890
-1017048
-1016949
-1017052
-1017063
-1017095
-1017170
-1017158
-1017315
-1017223
-1017408
-1017324
-1017294
-1017286
-1017309
-1017444
-1017584
-1017554
-1017665
-1017624
-1017609
-1017644
-1017664
-1017852
-1017834
-1017880
-1017990
-1017897
-1018051
-1017918
-1018020
-1018014
-1018057
-1018163
-1018231
-1018191
-1018350
-1018312
-1018405
-1018381
-1018446
-1018490
-1018539
-1018549
-1018673
-1018591
-1018687
-1018846
-1018825
-1018767
-1018785
-1018804
-1018868
-1018851
-1018879
-1018933
-1019058
-1019097
-1019243
-1019248
-1019170
-1019319
-1019356
-1019300
-1019387
-1019531
-1019528
-1019679
-1019678
-1019735
-1019628
-1019787
-1019843
-1019762
-1019771
-1019870
-1019954
-1020023
-1020049
-1020170
-1020351
-1020331
-1020293
-1020305
-1020519
-1020509
-1020551
-1020613
-1020756
-1020671
-1020843
-1020836
-1020887
-1020900
-1020954
-1020989
-1021101
-1021096
-1021077
-1021188
-1021182
-1021069
-1021064
-1021081
-1020998
-1020866
-1020731
-1020539
-1020454
-1020062
-1019897
-1019618
-1019281
-1018839
-1018451
-1018055
-1017627
-1017227
-1016917
-1016465
-1016081
-1015574
-1015104
-1014645
-1014077
-1013697
-1013343
-1012841
-1012518
-1012014
-1011766
-1011371
-1010962
-1010300
-1010144
-1009842
-1009595
-1009397
-1009027
-1008896
-1008793
-1008498
-1008381
-1008190
-1008094
-1008062
-1007868
-1007809
-1007764
-1007728
-1007715
-1007598
-1007666
-1007700
-1007748
-1007789
-1007706
-1007723
-1007636
-1007819
-1007810
-1007867
-1007950
-1008035
-1008092
-1008212
-1008281
-1008380
-1008389
-1008544
-1008595
-1008709
-1008750
-1008755
-1008795
-1008888
-1008896
-1008944
-1009019
-1009104
-1009135
-1009062
-1009258
-1009249
-1009371
-1009408
-1009443
-1009352
-1009440
-1009551
-1009477
-1009435
-1009494
-1009548
-1009457
-1009516
-1009463
-1009500
-1009463
-1009586
-1009556
-1009510
-1009398
-1009335
-1009461
-1009378
-1009324
-1009431
-1009401
-1009315
-1009361
-1009259
-1009218
-1009336
-1009443
-1009327
-1009405
-1009463
-1009326
-1009408
-1009524
-1009579
-1009643
-1009566
-1009683
-1009734
-1009713
-1009793
-1009856
-1009942
-1010050
-1010118
-1010067
-1010216
-1010270
-1010274
-1010272
-1010370
-1010347
-1010488
-1010592
-1010602
-1010485
-1010519
-1010683
-1010598
-1010648
-1010578
-1010598
-1010629
-1010573
-1010514
-1010420
-1010615
-1010486
-1010565
-1010571
-1010485
-1010438
-1010445
-1010382
-1010429
-1010464
-1010331
-1010219
-1010266
-1010175
-1010216
-1010145
-1010296
-1010260
-1010186
-1010113
-1010025
-1009923
-1009904
-1009887
-1009845
-1009820
-1009746
-1009722
-1009783
-1009646
-1009614
-1009645
-1009691
-1009796
-1009777
-1009746
-1009709
-1009698
-1009747
-1009715
-1009738
-1009864
-1009868
-1009992
-1009932
-1010021
-1010092
-1010095
-1010146
-1010168
-1010208
-1010264
-1010319
-1010433
-1010492
-1010547
-1010694
-1010712
-1010697
-1010854
-1011074
-1011162
-1011158
-1011143
-1011167
-1011363
-1011390
-1011444
-1011509
-1011693
-1011806
-1011807
-1011963
-1012052
-1012045
-1012093
-1012217
-1012244
-1012272
-1012465
-1012420
-1012581
-1012569
-1012583
-1012673
-1012746
-1012849
-1013052
-1013006
-1012977
-1013002
-1013240
-1013140
-1013239
-1013277
-1013459
-1013413
-1013451
-1013501
-1013722
-1013686
-1013821
-1013775
-1013756
-1013901
-1014002
-1014004
-1014173
-1014217
-1014188
-1014298
-1014417
-1014446
-1014473
-1014528
-1014509
-1014553
-1014562
-1014568
-1014635
-1014804
-1014751
-1014884
-1014951
-1014919
-1015015
-1015156
-1015151
-1015083
-1015193
-1015244
-1015338
-1015273
-1015226
-1015327
-1015457
-1015368
-1015345
-1015462
-1015569
-1015588
-1015692
-1015699
-1015817
-1015837
-1015791
-1015906
-1015885
-1015878
-1016013
-1015992
-1016081
-1016184
-1016268
-1016338
-1016306
-1016380
-1016466
-1016511
-1016350
-1016470
-1016585
-1016604
-1016628
-1016743
-1016655
-1016780
-1016662
-1016784
-1016850
-1016851
-1016903
-1016940
-1017064
-1017154
-1017011
-1017170
-1017104
-1017193
-1017313
-1017371
-1017246
-1017417
-1017405
-1017468
-1017476
-1017531
-1017677
-1017650
-1017627
-1017700
-1017733
-1017763
-1017863
-1017962
-1017910
-1018077
-1018182
-1018172
-1018122
-1018334
-1018281
-1018243
-1018378
-1018462
-1018537
-1018589
-1018541
-1018588
-1018687
-1018741
-1018745
-1018793
-1018969
-1018897
-1018928
-1018983
-1019021
-1019041
-1019172
-1019239
-1019359
-1019318
-1019403
-1019386
-1019549
-1019569
-1019655
-1019691
-1019935
-1019898
-1019895
-1020019
-1020192
-1020170
-1020134
-1020174
-1020238
-1020320
-1020401
-1020479
-1020520
-1020601
-1020759
-1020788
-1020758
-1020792
-1020869
-1020898
-1020833
-1020845
-1020840
-1020702
-1020624
-1020481
-1020390
-1020354
-1020011
-1019787
-1019620
-1019410
-1019019
-1018753
-1018434
-1017944
-1017659
-1017295
-1016803
-1016397
-1014815
-1013802
-1013467
-1013173
-1012722
-1012386
-1011981
-1011691
-1011216
-1010862
-1010685
-1010366
-1010138
-1009932
-1009606
-1009270
-1009288
-1009173
-1008937
-1008761
-1008553
-1008418
-1008436
-1008199
-1008116
-1008048
-1008014
-1008032
-1008024
-1007907
-1007878
-1007930
-1007947
-1008090
-1008105
-1008114
-1008063
-1008209
-1008177
-1008277
-1008294
-1008296
-1008473
-1008518
-1008480
-1008692
-1008725
-1008822
-1008926
-1008815
-1008874
-1008951
-1009052
-1009134
-1009235
-1009269
-1009283
-1009420
-1009494
-1009497
-1009598
-1009647
-1009580
-1009685
-1009874
-1009897
-1010007
-1010077
-1010104
-1010014
-1010128
-1010118
-1010131
-1010221
-1010063
-1010137
-1010209
-1010083
-1010097
-1010171
-1010109
-1010196
-1010143
-1010101
-1010052
-1010228
-1010254
-1010054
-1010176
-1010137
-1010199
-1010206
-1010216
-1010313
-1010366
-1010381
-1010583
-1010468
-1010651
-1010619
-1010686
-1010648
-1010665
-1010663
-1010793
-1010987
-1011136
-1011021
-1011123
-1011233
-1011256
-1011288
-1011280
-1011218
-1011424
-1011455
-1011341
-1011411
-1011512
-1011518
-1011542
-1011598
-1011534
-1011607
-1011621
-1011592
-1011660
-1011527
-1011587
-1011576
-1011541
-1011508
-1011301
-1011381
-1011354
-1011346
-1011312
-1011294
-1011324
-1011229
-1011101
-1011231
-1011189
-1011110
-1010985
-1011077
-1011091
-1010927
-1010958
-1010920
-1010932
-1010924
-1010787
-1010816
-1010727
-1010780
-1010831
-1010871
-1010705
-1010749
-1010827
-1010791
-1010741
-1010672
-1010717
-1010784
-1010868
-1010907
-1010881
-1010988
-1010932
-1010929
-1010981
-1010978
-1011127
-1011311
-1011226
-1011209
-1011217
-1011300
-1011404
-1011530
-1011516
-1011547
-1011524
-1011597
-1011638
-1011817
-1011922
-1011920
-1012064
-1012059
-1011993
-1012166
-1012321
-1012398
-1012435
-1012386
-1012516
-1012597
-1012719
-1012701
-1012682
-1012802
-1012938
-1012870
-1012922
-1012984
-1013081
-1013269
-1013226
-1013240
-1013316
-1013377
-1013563
-1013662
-1013634
-1013786
-1013870
-1013809
-1013887
-1013932
-1013916
-1014024
-1014189
-1014282
-1014378
-1014301
-1014408
-1014543
-1014647
-1014594
-1014585
-1014832
-1014783
-1014746
-1014921
-1014999
-1015069
-1015180
-1015128
-1015226
-1015272
-1015180
-1015256
-1015421
-1015423
-1015516
-1015466
-1015455
-1015557
-1015565
-1015760
-1015625
-1015672
-1015778
-1015749
-1015841
-1015903
-1016532
-1016151
-1016001
-1016081
-1016100
-1016152
-1016115
-1016152
-1016193
-1016386
-1016438
-1016400
-1016426
-1016361
-1016471
-1016624
-1016697
-1016760
-1016708
-1016842
-1016883
-1016833
-1016869
-1016933
-1016793
-1017038
-1017034
-1017151
-1017275
-1017240
-1017319
-1017308
-1017351
-1017434
-1017410
-1017429
-1017539
-1017647
-1017738
-1017866
-1017793
-1017938
-1017880
-1017905
-1018012
-1018040
-1018056
-1018096
-1018222
-1018324
-1018205
-1018257
-1018327
-1018379
-1018366
-1018584
-1018629
-1018555
-1018537
-1018704
-1018797
-1018729
-1018750
-1018875
-1018911
-1018964
-1019083
-1019117
-1019136
-1019217
-1019147
-1019217
-1019397
-1019353
-1019161
-1019419
-1019613
-1019754
-1019747
-1019850
-1019805
-1019771
-1020002
-1019994
-1020069
-1020086
-1020294
-1020222
-1020253
-1020354
-1020333
-1020398
-1020502
-1020489
-1020418
-1020484
-1020506
-1020352
-1020463
-1020261
-1020210
-1020084
-1019960
-1019609
-1019372
-1019174
-1018897
-1018667
-1018177
-1017878
-1017518
-1017083
-1016717
-1016381
-1015909
-1015508
-1015140
-1014737
-1014321
-1014017
-1014223
-1013465
-1012923
-1012431
-1012024
-1011625
-1011414
-1011115
-1010841
-1010448
-1010172
-1009931
-1009683
-1009593
-1009396
-1009232
-1009045
-1009004
-1008859
-1008695
-1008542
-1008558
-1008516
-1008507
-1008421
-1008344
-1008098
-1008317
-1008396
-1008497
-1008544
-1008457
-1008537
-1008640
-1008615
-1008722
-1008754
-1009640
-1009190
-1008968
-1008992
-1009543
-1009615
-1009633
-1009692
-1009729
-1009933
-1009848
-1009870
-1009926
-1010010
-1010193
-1010344
-1010361
-1010385
-1010363
-1010358
-1010421
-1010419
-1010445
-1010561
-1010573
-1010592
-1010693
-1010659
-1010753
-1010813
-1010678
-1010733
-1010750
-1010695
-1010707
-1010659
-1010677
-1010783
-1010720
-1010626
-1010801
-1010807
-1010806
-1010896
-1010962
-1010966
-1010988
-1011028
-1011114
-1011080
-1011119
-1011241
-1011324
-1011314
-1011365
-1011368
-1011485
-1011450
-1011556
-1011645
-1011594
-1011698
-1011866
-1011858
-1011953
-1011879
-1011961
-1011827
-1011794
-1011747
-1011842
-1011982
-1011971
-1012124
-1012067
-1011967
-1011922
-1011681
-1011539
-1011562
-1011559
-1011513
-1011475
-1011243
-1011147
-1011248
-1011070
-1011079
-1011044
-1010784
-1010968
-1011026
-1010981
-1010896
-1010800
-1010946
-1010923
-1010889
-1010896
-1010957
-1011027
-1011058
-1010964
-1010996
-1011035
-1011116
-1011070
-1011182
-1011196
-1011323
-1011342
-1011322
-1011438
-1011399
-1011432
-1011710
-1011703
-1011695
-1011783
-1011882
-1011985
-1011910
-1012001
-1011979
-1012173
-1012168
-1012175
-1012247
-1012361
-1012480
-1012528
-1012464
-1012554
-1012544
-1012650
-1012848
-1012946
-1012886
-1013047
-1013155
-1013163
-1013200
-1013211
-1013128
-1013277
-1013360
-1013565
-1013589
-1013658
-1013752
-1013817
-1013524
-1013781
-1013797
-1013909
-1014099
-1014161
-1014165
-1014230
-1014284
-1014382
-1014418
-1014500
-1014443
-1014464
-1014493
-1014562
-1014716
-1014805
-1014750
-1014776
-1014756
-1014890
-1014917
-1014963
-1015140
-1015121
-1015177
-1015189
-1015260
-1015305
-1015365
-1015364
-1015485
-1015542
-1015596
-1015715
-1015737
-1015813
-1015820
-1015912
-1016000
-1015965
-1015911
-1016051
-1015952
-1016170
-1016094
-1016049
-1016124
-1016183
-1016177
-1016181
-1016291
-1016485
-1016459
-1016473
-1016648
-1016596
-1016697
-1016805
-1016701
-1016870
-1016864
-1016974
-1017481
-1017185
-1017100
-1017058
-1017257
-1017286
-1017274
-1017321
-1017210
-1017297
-1017424
-1017458
-1017442
-1017503
-1017553
-1017662
-1017579
-1017595
-1017550
-1017706
-1018039
-1017802
-1017602
-1017904
-1017974
-1017885
-1017951
-1018047
-1018107
-1018093
-1018179
-1018207
-1018309
-1018384
-1018415
-1018450
-1018439
-1018520
-1018464
-1018497
-1018619
-1018674
-1018780
-1018656
-1018865
-1018825
-1018879
-1018872
-1019026
-1018999
-1019037
-1019112
-1019246
-1019293
-1019406
-1019421
-1019508
-1019529
-1019441
-1019535
-1019493
-1019468
-1019509
-1019467
-1019492
-1019144
-1019300
-1019243
-1019135
-1018915
-1018796
-1018573
-1018208
-1017912
-1017664
-1017375
-1016963
-1016670
-1016225
-1015776
-1015372
-1014896
-1014598
-1014147
-1013609
-1013037
-1012617
-1012128
-1011793
-1011250
-1010949
-1010631
-1010261
-1009766
-1009431
-1009088
-1008798
-1008487
-1008215
-1007755
-1007388
-1007281
-1007118
-1006931
-1006970
-1006869
-1006798
-1006582
-1006346
-1006391
-1006204
-1006207
-1006173
-1006151
-1006129
-1006127
-1006093
-1006046
-1006067
-1006110
-1006092
-1006213
-1006390
-1006349
-1006504
-1006648
-1006538
-1006671
-1006718
-1006773
-1006746
-1006784
-1007079
-1007013
-1007107
-1007270
-1007319
-1007412
-1007381
-1007350
-1007467
-1007341
-1007555
-1007685
-1007734
-1007777
-1007831
-1007857
-1007912
-1007943
-1008145
-1008059
-1008157
-1008138
-1008259
-1008347
-1008318
-1008321
-1008374
-1008331
-1008465
-1008398
-1008437
-1008368
-1008553
-1008406
-1008432
-1008323
-1008286
-1008193
-1008241
-1008317
-1008380
-1008275
-1008281
-1008284
-1008161
-1008741
-1008372
-1008216
-1008245
-1007956
-1008249
-1008223
-1008410
-1008354
-1009315
-1008618
-1009105
-1009217
-1009122
-1009103
-1009188
-1009276
-1009285
-1009360
-1009210
-1009224
-1009347
-1009343
-1009338
-1009353
-1009298
-1009231
-1009200
-1009203
-1008655
-1008839
-1008513
-1009244
-1008670
-1008589
-1008473
-1008395
-1008261
-1008156
-1008172
-1008281
-1008219
-1008262
-1008335
-1008183
-1008214
-1008140
-1008005
-1008082
-1008163
-1008293
-1008292
-1008302
-1008276
-1008303
-1008333
-1008264
-1008231
-1008250
-1008214
-1008257
-1008350
-1008410
-1008452
-1008578
-1009256
-1008837
-1008661
-1008729
-1008816
-1008805
-1008883
-1008884
-1008976
-1009077
-1009180
-1009155
-1010104
-1009488
-1009474
-1009548
-1009580
-1009701
-1009771
-1009708
-1009712
-1009797
-1009913
-1009828
-1009882
-1010007
-1010022
-1010193
-1010240
-1010263
-1010260
-1010364
-1010348
-1010450
-1010543
-1010600
-1010708
-1010749
-1010839
-1011134
-1011051
-1010981
-1010997
-1011108
-1011119
-1011118
-1010911
-1011168
-1012017
-1011533
-1011606
-1011578
-1011542
-1011528
-1011545
-1011669
-1011865
-1011878
-1011812
-1011845
-1011902
-1011971
-1012030
-1011993
-1012111
-1012161
-1012305
-1012256
-1012325
-1012221
-1012442
-1012524
-1012237
-1012460
-1012563
-1012595
-1012748
-1012807
-1012849
-1012871
-1012968
-1013061
-1012968
-1012964
-1012947
-1013131
-1013165
-1013223
-1013261
-1013248
-1013390
-1013401
-1013505
-1013620
-1013748
-1013795
-1013614
-1013740
-1013851
-1013877
-1013885
-1013988
-1014080
-1014118
-1014135
-1014177
-1014138
-1014154
-1014140
-1014173
-1014253
-1014266
-1014429
-1014444
-1014481
-1014477
-1015031
-1014738
-1014622
-1014581
-1014642
-1014675
-1014779
-1014855
-1014578
-1014885
-1014962
-1014879
-1014977
-1014941
-1014911
-1015085
-1015055
-1015206
-1015313
-1015382
-1015408
-1015370
-1015334
-1015380
-1015437
-1015567
-1015717
-1015733
-1015694
-1015882
-1015907
-1015828
-1015880
-1015947
-1016004
-1016125
-1016172
-1016178
-1016353
-1016401
-1016408
-1016185
-1016390
-1016489
-1016671
-1016748
-1016698
-1016675
-1016758
-1016844
-1016888
-1016880
-1016841
-1016927
-1016970
-1016945
-1016832
-1016795
-1016579
-1016449
-1016310
-1016012
-1015837
-1015569
-1015357
-1015018
-1014759
-1014337
-1014001
-1013515
-1013077
-1012596
-1012271
-1011913
-1011334
-1011004
-1010554
-1010114
-1009713
-1009227
-1008890
-1008371
-1008139
-1007653
-1007243
-1006939
-1006742
-1006394
-1006031
-1005878
-1005535
-1005234
-1005125
-1004852
-1004642
-1004566
-1004357
-1004253
-1004079
-1003995
-1003927
-1003856
-1003677
-1003465
-1003499
-1003538
-1003423
-1003586
-1003621
-1003777
-1003839
-1003948
-1004019
-1004114
-1004257
-1004216
-1004168
-1004287
-1004266
-1004377
-1004452
-1004560
-1004576
-1004481
-1004568
-1004632
-1004713
-1004773
-1004778
-1004854
-1004735
-1004719
-1004904
-1005585
-1005003
-1004939
-1004837
-1004816
-1004937
-1004881
-1004794
-1004689
-1004762
-1004790
-1004782
-1004712
-1004525
-1004617
-1004714
-1004603
-1004605
-1004463
-1004615
-1004645
-1004542
-1004449
-1005017
-1004691
-1004507
-1004450
-1004526
-1004494
-1004381
-1004455
-1004617
-1004499
-1004437
-1004540
-1004681
-1004642
-1004696
-1004678
-1004742
-1004863
-1004887
-1004945
-1004974
-1005106
-1005134
-1005214
-1005194
-1005263
-1005218
-1005323
-1005344
-1005404
-1005394
-1005485
-1005340
-1005262
-1005382
-1005416
-1005351
-1005312
-1005436
-1005384
-1005361
-1005292
-1005290
-1005285
-1004950
-1005063
-1005101
-1005049
-1005148
-1005179
-1005011
-1004979
-1004902
-1004984
-1004807
-1004766
-1004704
-1004757
-1004752
-1004624
-1004258
-1004503
-1004459
-1004159
-1004381
-1004408
-1004323
-1004353
-1004241
-1004256
-1004124
-1004278
-1004146
-1004256
-1003944
-1004063
-1004140
-1004228
-1004151
-1004100
-1004083
-1004114
-1004209
-1004241
-1004289
-1004187
-1004198
-1004255
-1004354
-1004414
-1004520
-1004501
-1004397
-1004524
-1004607
-1004597
-1004647
-1004714
-1004793
-1004897
-1004861
-1005015
-1005001
-1004968
-1004680
-1004895
-1005141
-1005299
-1005243
-1005407
-1005435
-1005470
-1005563
-1005672
-1004869
-1005373
-1006347
-1005929
-1005949
-1006060
-1005931
-1006115
-1006051
-1006160
-1006164
-1006128
-1006306
-1006399
-1006440
-1006443
-1006433
-1006560
-1006682
-1006768
-1006779
-1006738
-1006865
-1006948
-1007016
-1007018
-1006965
-1007129
-1007222
-1007265
-1007248
-1007262
-1007346
-1007344
-1007450
-1007546
-1007524
-1007614
-1007652
-1007690
-1007825
-1007782
-1007764
-1007919
-1007971
-1008041
-1008070
-1008066
-1008056
-1008134
-1008208
-1008269
-1008276
-1008370
-1008329
-1008347
-1008287
-1008440
-1008515
-1008491
-1008494
-1008621
-1008558
-1008604
-1008752
-1008739
-1008673
-1008888
-1008846
-1008813
-1008895
-1008983
-1008907
-1008963
-1009095
-1009125
-1009167
-1009127
-1009205
-1009295
-1009343
-1009307
-1009459
-1009471
-1009477
-1009516
-1009383
-1009520
-1009600
-1009516
-1009525
-1009543
-1009669
-1009783
-1009806
-1009742
-1009710
-1009862
-1009801
-1009965
-1010031
-1009950
-1010016
-1009654
-1009888
-1010018
-1010215
-1010287
-1010254
-1010158
-1010262
-1010369
-1010250
-1010276
-1010499
-1010386
-1010397
-1010376
-1010441
-1010300
-1010498
-1010495
-1010590
-1010618
-1010754
-1010818
-1010550
-1010682
-1010830
-1010682
-1010956
-1011004
-1011082
-1011066
-1011126
-1011232
-1011267
-1011394
-1011365
-1011531
-1011422
-1011505
-1011555
-1011574
-1011655
-1011840
-1011798
-1011838
-1011837
-1011889
-1011927
-1012016
-1012102
-1012193
-1012195
-1012242
-1012268
-1012452
-1012480
-1012397
-1012497
-1012471
-1012502
-1012598
-1012546
-1012703
-1012565
-1012659
-1012606
-1012694
-1012545
-1012449
-1012535
-1012415
-1012305
-1011978
-1011865
-1011571
-1011476
-1011047
-1010723
-1010437
-1010171
-1009795
-1009520
-1008959
-1008673
-1008809
-1007976
-1007472
-1006962
-1006480
-1006129
-1005653
-1005366
-1005051
-1004713
-1004338
-1003933
-1003509
-1003202
-1002969
-1002795
-1002353
-1002122
-1001764
-1001592
-1001268
-1000982
-1000790
-1000662
-1000415
-1000389
-1000290
-1000037
-999906
-999877
-999849
-999762
-999766
-999595
-999398
-999408
-999464
-999444
-999489
-999418
-999338
-999324
-999479
-999453
-999510
-999471
-999479
-999594
-999533
-999539
-999606
-999650
-999641
-999604
-999672
-999763
-999950
-999726
-1000007
-999982
-1000008
-1000060
-1000064
-1000085
-1000124
-1000222
-1000198
-1000196
-1000278
-1000262
-1000326
-1000303
-1000396
-1000295
-1000432
-1000488
-1000514
-1000483
-1000379
-1000445
-1000413
-1000337
-1000353
-1000175
-1000359
-1000446
-1000515
-1000404
-1000358
-1000256
-1000240
-1000395
-1000368
-1000332
-1000337
-1000328
-1000510
-1000511
-1000462
-1000409
-1000554
-1000575
-1000499
-1000562
-1000606
-1000725
-1000777
-1000654
-1000872
-1001033
-1000720
-1000915
-1001147
-1001238
-1001144
-1001228
-1001334
-1001425
-1001512
-1001473
-1001377
-1001552
-1001569
-1001485
-1001523
-1001444
-1001520
-1001530
-1001430
-1001485
-1001265
-1001306
-1001261
-1001264
-1001081
-1001050
-1001086
-1001133
-1000903
-1000848
-1000721
-1000732
-1000679
-1000666
-1000621
-1000542
-1000510
-1000436
-1000430
-1000284
-1000259
-1000187
-1000164
-1000109
-1000068
-1000111
-1000073
-1000108
-1000115
-1000707
-1000369
-1000095
-1000098
-1000158
-1000181
-1000127
-1000125
-999833
-999962
-999934
-1000063
-1000145
-1000194
-1000193
-1000144
-1000254
-1000255
-1000408
-1000003
-1000169
-1000389
-1000381
-1000517
-1000607
-1000583
-1000653
-1000709
-1000749
-1000835
-1000793
-1000784
-1000962
-1001044
-1001016
-1001007
-1001182
-1001167
-1001297
-1001295
-1001283
-1001544
-1001471
-1001640
-1001606
-1001647
-1001720
-1001834
-1002120
-1002024
-1001975
-1001944
-1002078
-1002137
-1002235
-1002183
-1002247
-1002317
-1002332
-1002457
-1002487
-1002497
-1002597
-1002736
-1002651
-1002695
-1002712
-1002804
-1002901
-1002878
-1002806
-1002946
-1003021
-1003162
-1003289
-1003266
-1003389
-1003421
-1003479
-1003662
-1003625
-1003782
-1003918
-1003903
-1003937
-1003985
-1004130
-1004204
-1004132
-1004147
-1004186
-1004291
-1004472
-1004363
-1004491
-1004487
-1004515
-1004567
-1004582
-1004463
-1004609
-1004658
-1004772
-1004774
-1004821
-1004891
-1004959
-1004931
-1004979
-1004904
-1005047
-1004990
-1004924
-1004958
-1005114
-1005060
-1005210
-1005179
-1005191
-1005180
-1005324
-1005269
-1005250
-1005335
-1005382
-1005546
-1005415
-1005496
-1005514
-1006325
-1005742
-1005670
-1005673
-1005688
-1005707
-1005677
-1005708
-1005893
-1005852
-1005856
-1005944
-1005887
-1006097
-1006092
-1006133
-1006142
-1006292
-1006331
-1006253
-1006329
-1006374
-1006408
-1006502
-1006645
-1006600
-1006749
-1007552
-1007089
-1006896
-1006971
-1007013
-1006999
-1006983
-1006971
-1007188
-1007186
-1007170
-1007320
-1007235
-1007271
-1007332
-1007339
-1007466
-1007495
-1007478
-1007346
-1007289
-1007149
-1007206
-1007054
-1006954
-1006831
-1006709
-1006487
-1006147
-1005934
-1005610
-1005279
-1005035
-1004663
-1004298
-1003763
-1003488
-1003102
-1002647
-1002224
-1001822
-1001436
-1001092
-1000597
-1000155
-999765
-999343
-999162
-998723
-998432
-998080
-997596
-997408
-997218
-996869
-996614
-996874
-996436
-996762
-996036
-995369
-995426
-995336
-995120
-995122
-994950
-994938
-994953
-994820
-994628
-994330
-994584
-994514
-994656
-994593
-994650
-994782
-994850
-994805
-994851
-994943
-994931
-994878
-994965
-995072
-995082
-995215
-995349
-995267
-995437
-995484
-995461
-995594
-995604
-995782
-995899
-995881
-995987
-996016
-996070
-996149
-996243
-996157
-996206
-996272
-996339
-996464
-996458
-996470
-996455
-996486
-996601
-996612
-996518
-996703
-996603
-996667
-996673
-996616
-996709
-996707
-996727
-996630
-996657
-996583
-996622
-996624
-996700
-996660
-996743
-996618
-996600
-996640
-996637
-996391
-996724
-996741
-996781
-996608
-996793
-996903
-997023
-997068
-997066
-997186
-997666
-997321
-997410
-997457
-997424
-997425
-997536
-997446
-997441
-997502
-997560
-997690
-997737
-997771
-997726
-997653
-997730
-997680
-997522
-997649
-997548
-997579
-997569
-997562
-997517
-997579
-997443
-997478
-997279
-997341
-997276
-997246
-997251
-997036
-997091
-997137
-997091
-996925
-996864
-996752
-996822
-996780
-996855
-996628
-996669
-996583
-996434
-996493
-996400
-996435
-996522
-996496
-996475
-996417
-996308
-996429
-996383
-996390
-996530
-996480
-996535
-996622
-996683
-996562
-996593
-996567
-996696
-996698
-996710
-996868
-996882
-997041
-997079
-997157
-997098
-997066
-997280
-997273
-997270
-997471
-997389
-997550
-997526
-997516
-997591
-997597
-997688
-997802
-998012
-998008
-998028
-998100
-998177
-998352
-998471
-998554
-998478
-998686
-998669
-998757
-998760
-998908
-998864
-998845
-999011
-999140
-999090
-999210
-999256
-999257
-999337
-999384
-999779
-999865
-1000056
-1000042
-1000120
-1000212
-1000304
-1000280
-1000368
-1000231
-1000314
-1000399
-1000408
-1000474
-1000616
-1000732
-1000622
-1000761
-1000728
-1000796
-1000843
-1000844
-1000793
-1000827
-1000874
-1001016
-1001018
-1001221
-1001246
-1001140
-1001326
-1001265
-1001281
-1001237
-1001350
-1001454
-1001529
-1001430
-1001293
-1001413
-1001563
-1001680
-1001662
-1001659
-1001678
-1001783
-1001841
-1001855
-1001878
-1001778
-1001792
-1001703
-1001939
-1002068
-1002123
-1002109
-1002184
-1002145
-1002168
-1002266
-1002328
-1002481
-1002605
-1002485
-1002416
-1002616
-1002682
-1002620
-1002755
-1002536
-1002824
-1002877
-1002558
-1002893
-1003013
-1002984
-1003234
-1003318
-1003169
-1003220
-1003369
-1003332
-1003440
-1003418
-1003574
-1003668
-1003570
-1003684
-1003855
-1003738
-1003845
-1003917
-1003936
-1003874
-1003817
-1003951
-1003883
-1003879
-1003955
-1003841
-1003760
-1003494
-1003604
-1003545
-1003242
-1003062
-1002861
-1002587
-1002170
-1001955
-1001595
-1001267
-1000985
-1000594
-1000250
-999802
-999413
-999041
-998730
-998285
-997625
-997202
-996683
-996320
-995921
-995687
-995353
-994948
-994711
-995007
-994370
-993854
-993462
-993366
-992871
-992895
-992800
-992540
-992346
-992390
-992254
-992013
-991868
-991764
-991888
-991765
-991744
-991644
-991642
-991748
-991743
-991698
-991627
-991730
-991716
-991797
-991738
-992011
-991922
-992137
-992227
-992282
-992361
-992375
-992396
-992467
-992636
-992641
-992616
-992656
-992824
-992775
-992910
-993054
-993069
-993169
-993218
-993223
-993322
-993294
-993476
-993593
-993683
-993621
-993605
-993642
-993698
-993644
-993611
-993693
-993735
-993661
-993763
-993724
-993805
-993677
-993359
-993495
-993596
-993651
-993765
-993744
-993705
-993740
-993739
-993722
-993763
-993878
-993785
-993963
-993909
-994025
-994092
-994100
-994177
-994259
-994313
-994295
-994285
-994464
-994366
-994594
-994722
-994673
-994697
-994754
-994854
-994844
-994871
-995011
-994906
-994972
-995009
-994907
-995028
-995051
-994924
-994846
-994910
-995294
-994948
-994823
-994782
-994921
-994855
-994818
-994710
-994682
-994549
-994591
-994571
-994552
-994428
-994395
-994476
-994405
-994248
-994159
-994098
-994201
-994170
-994188
-994175
-994161
-994115
-994005
-993910
-993943
-993922
-994023
-993900
-994027
-993866
-993989
-993969
-993961
-993966
-994056
-993891
-994019
-994059
-993969
-994129
-994227
-994169
-994186
-994320
-994233
-994283
-994352
-994421
-994343
-995326
-994739
-994720
-994797
-994816
-994747
-994734
-994921
-995052
-995140
-995272
-995255
-995248
-995431
-995371
-995450
-995536
-995534
-995643
-995781
-995729
-995751
-995777
-995739
-995934
-996021
-996194
-996185
-996332
-996499
-996495
-996562
-996598
-996616
-996678
-996715
-996741
-996731
-996885
-996924
-997031
-996980
-997162
-997348
-997376
-997292
-997441
-997482
-997499
-997604
-997593
-997662
-997743
-997729
-997858
-997974
-998013
-998055
-998125
-998607
-998392
-998352
-998405
-998390
-998330
-998302
-998429
-998430
-998548
-999170
-998720
-998723
-998653
-998812
-998761
-998725
-998938
-998977
-999067
-999014
-998922
-999137
-999108
-999235
-999257
-999053
-999276
-999101
-999393
-999494
-999373
-999459
-999462
-999633
-999539
-999591
-999668
-999791
-999854
-999823
-999868
-999976
-1000025
-1000011
-999981
-1000007
-1000026
-1000155
-1000173
-1000261
-1000265
-1000385
-1000429
-1000488
-1000511
-1000434
-1000564
-1000577
-1000594
-1000664
-1000706
-1000825
-1000960
-1000824
-1000822
-1000855
-1000920
-1001102
-1001170
-1001263
-1001275
-1001086
-1001233
-1001398
-1001429
-1001576
-1001585
-1001750
-1001694
-1001664
-1001736
-1001830
-1001972
-1001844
-1001826
-1001931
-1002041
-1002107
-1002050
-1002042
-1002064
-1002049
-1001971
-1002010
-1001812
-1001881
-1001811
-1001671
-1002043
-1001319
-1001118
-1000752
-1000535
-1000285
-999779
-999611
-999222
-998804
-998501
-998168
-997703
-997164
-996718
-996168
-995839
-995564
-995252
-994787
-994283
-994013
-993510
-993235
-992844
-992641
-992219
-991923
-991624
-991397
-991183
-990931
-990576
-990629
-990455
-990201
-990116
-990014
-990002
-989947
-989869
-989769
-989713
-989666
-989688
-989579
-989497
-989604
-989607
-990452
-989892
-990280
-989853
-989809
-989725
-989803
-989866
-989861
-989870
-990023
-989978
-990185
-990281
-990341
-990398
-990842
-990499
-990609
-990682
-990624
-990594
-990677
-990808
-990890
-990951
-990957
-990935
-991056
-990981
-991071
-991201
-991186
-991132
-991275
-991179
-991126
-991059
-990849
-991060
-991087
-991086
-991089
-991236
-991156
-991123
-991175
-991030
-991122
-991098
-991107
-991128
-991174
-991104
-991007
-990921
-990871
-990888
-990928
-991104
-991019
-990997
-991100
-991028
-991171
-991249
-991306
-991198
-991391
-991366
-991386
-991525
-991601
-991711
-991734
-991733
-991789
-991915
-992027
-992067
-992159
-992089
-992207
-992171
-992176
-992307
-992173
-992284
-992368
-992352
-992387
-992450
-992435
-992369
-992264
-992386
-992203
-992196
-992190
-992249
-992225
-992195
-992142
-991997
-991984
-991877
-991885
-991918
-991880
-991850
-991767
-991635
-991587
-991696
-991608
-991561
-991627
-991504
-991412
-991473
-991452
-991401
-991357
-991370
-991361
-991335
-991351
-991215
-991325
-991327
-991336
-991353
-991470
-991496
-991473
-991428
-991555
-991594
-991619
-991679
-991651
-991696
-991829
-991902
-991858
-991917
-991925
-991998
-992130
-992199
-992289
-992308
-992147
-992450
-992492
-992496
-992718
-992753
-992912
-992841
-992912
-993012
-993089
-993126
-993083
-993143
-993218
-993297
-993332
-993512
-993529
-993613
-993720
-993755
-993845
-993721
-993766
-993996
-993981
-994190
-994126
-994313
-994231
-994380
-994410
-994467
-994472
-994523
-994527
-994641
-994730
-994864
-994794
-994831
-994962
-994934
-995204
-995011
-995189
-995342
-995192
-995297
-995402
-995373
-995342
-995585
-995613
-995690
-995762
-995670
-995763
-995836
-995875
-995935
-995886
-996061
-996135
-996232
-996258
-996190
-996221
-996368
-996367
-996405
-996427
-996533
-996505
-996498
-996631
-996526
-996605
-996762
-996886
-996882
-996809
-996800
-996789
-996731
-996979
-997078
-996993
-996916
-997065
-997228
-997213
-997300
-997289
-997407
-997482
-997418
-997509
-997407
-997529
-997632
-997492
-997718
-997664
-997799
-997830
-997918
-997839
-997739
-997989
-998053
-998078
-998134
-998249
-998192
-998283
-998311
-998258
-998252
-998443
-998368
-998395
-998405
-998397
-998641
-998716
-998736
-998784
-998689
-998685
-998730
-998834
-998981
-998980
-999090
-999122
-999017
-999224
-999271
-999245
-999310
-999448
-999370
-999515
-999511
-999675
-999739
-999744
-999760
-999907
-999905
-999990
-999970
-1000187
-1000261
-1000847
-1000438
-1000381
-1000426
-1000524
-1000398
-1000558
-1000540
-1000564
-1000642
-1000736
-1000657
-1000654
-1000377
-1000252
-1000099
-1000030
-999840
-999593
-999299
-999041
-998782
-998461
-998068
