PPG
-1235229
-1235268
-1235249
-1235430
-1235468
-1235565
-1235512
-1235550
-1235677
-1235676
-1235806
-1235845
-1235711
-1235756
-1235773
-1235829
-1235760
-1235814
-1235900
-1236007
-1236003
-1236111
-1236104
-1236095
-1236105
-1236308
-1236224
-1237061
-1236653
-1236463
-1236479
-1236540
-1236514
-1236547
-1236611
-1237117
-1236948
-1236746
-1236737
-1236885
-1236988
-1237063
-1236965
-1237156
-1237128
-1237185
-1237128
-1237203
-1237338
-1237194
-1237351
-1237284
-1237299
-1237408
-1237457
-1237510
-1237552
-1237646
-1237540
-1237705
-1237639
-1237728
-1237915
-1237870
-1237958
-1237998
-1238163
-1238129
-1238185
-1238228
-1238311
-1238451
-1238506
-1238492
-1238608
-1238674
-1238580
-1238639
-1238829
-1238785
-1238802
-1238916
-1238900
-1238891
-1239641
-1239173
-1239018
-1239075
-1239087
-1239083
-1239132
-1239151
-1239361
-1239475
-1239547
-1239474
-1239543
-1239565
-1239587
-1239610
-1239636
-1239655
-1239849
-1239843
-1239859
-1239855
-1240049
-1239981
-1240125
-1240122
-1240326
-1240137
-1240185
-1240508
-1240390
-1240344
-1240556
-1240564
-1240675
-1240609
-1240850
-1240841
-1241040
-1240997
-1241133
-1241140
-1241065
-1241146
-1241124
-1241004
-1240921
-1240721
-1240526
-1240522
-1239909
-1239891
-1239603
-1239509
-1239130
-1238856
-1238505
-1238120
-1237687
-1237208
-1236789
-1236531
-1236116
-1235886
-1235386
-1235713
-1234810
-1234452
-1233912
-1233741
-1233232
-1233548
-1232996
-1232633
-1232450
-1232162
-1231935
-1231681
-1231459
-1231325
-1231093
-1231175
-1230998
-1230926
-1230661
-1230462
-1230484
-1230345
-1230402
-1230293
-1230090
-1229904
-1229908
-1230080
-1230212
-1230304
-1230332
-1230474
-1230511
-1230798
-1230672
-1230810
-1230910
-1231019
-1231078
-1231200
-1231277
-1231596
-1231733
-1231707
-1231881
-1231974
-1232067
-1232105
-1232249
-1232490
-1232417
-1232558
-1232797
-1232861
-1232933
-1233034
-1233723
-1233424
-1233273
-1233355
-1233370
-1233387
-1233627
-1233501
-1233556
-1233732
-1233825
-1233802
-1233830
-1233851
-1233859
-1233862
-1233885
-1233990
-1233940
-1233955
-1233903
-1234099
-1234198
-1234034
-1234005
-1234142
-1234025
-1234048
-1234255
-1234227
-1234162
-1234243
-1234373
-1234295
-1234304
-1234295
-1234331
-1234438
-1234449
-1234543
-1234572
-1234719
-1234843
-1234862
-1234809
-1234773
-1234840
-1234869
-1234858
-1235090
-1234950
-1235034
-1235174
-1235336
-1235391
-1235325
-1235419
-1235421
-1235294
-1235531
-1235457
-1235376
-1235482
-1235400
-1235458
-1235488
-1235332
-1235457
-1235967
-1235422
-1235219
-1235150
-1235202
-1235087
-1235141
-1235043
-1234958
-1234916
-1234951
-1234936
-1234881
-1235001
-1235018
-1234990
-1235059
-1234940
-1234959
-1235019
-1234839
-1235022
-1234968
-1234969
-1234747
-1235023
-1234938
-1234967
-1234968
-1234951
-1235076
-1235056
-1234903
-1235055
-1235088
-1235008
-1235166
-1235094
-1235111
-1235163
-1235205
-1235217
-1235330
-1235461
-1235618
-1235515
-1235559
-1235570
-1235656
-1235710
-1235866
-1235854
-1236029
-1236137
-1236076
-1236244
-1236222
-1236444
-1236362
-1236443
-1236442
-1236485
-1236520
-1236606
-1236818
-1236811
-1237404
-1237410
-1237414
-1237426
-1237648
-1237670
-1237667
-1238694
-1238037
-1238104
-1238068
-1238137
-1238229
-1238185
-1238380
-1238523
-1238388
-1238558
-1238592
-1238536
-1238494
-1238564
-1238625
-1238631
-1238785
-1238963
-1238861
-1239056
-1239001
-1239064
-1239256
-1239219
-1239318
-1239424
-1239588
-1239558
-1239643
-1239806
-1239717
-1239767
-1239894
-1240059
-1239283
-1239955
-1240265
-1240301
-1240230
-1240461
-1240536
-1240582
-1240672
-1240617
-1240626
-1240618
-1240877
-1240780
-1240805
-1240894
-1240889
-1240949
-1241201
-1241318
-1241201
-1241441
-1241400
-1241610
-1241537
-1241465
-1241579
-1241613
-1241622
-1241692
-1241617
-1241880
-1242048
-1242111
-1242073
-1242126
-1242193
-1242241
-1242150
-1242333
-1242216
-1242313
-1242320
-1242326
-1242369
-1242367
-1242325
-1242583
-1242555
-1242644
-1242615
-1242678
-1242880
-1242943
-1243015
-1242963
-1243037
-1243044
-1243093
-1243112
-1243215
-1243250
-1243527
-1243495
-1243598
-1243625
-1243642
-1243664
-1243688
-1243686
-1243795
-1243912
-1243915
-1244039
-1243977
-1243958
-1244110
-1244044
-1244189
-1245005
-1244407
-1244458
-1244474
-1244386
-1244414
-1243584
-1244309
-1244546
-1244544
-1244527
-1244536
-1244618
-1244702
-1244548
-1244454
-1244307
-1244272
-1244314
-1244112
-1243984
-1243794
-1243451
-1243324
-1243000
-1242725
-1242413
-1242068
-1241605
-1241255
-1240861
-1240516
-1240197
-1239957
-1239430
-1239136
-1238631
-1238260
-1237938
-1237774
-1237470
-1236981
-1236751
-1236430
-1236238
-1236003
-1235747
-1235498
-1235254
-1235159
-1234893
-1234748
-1234687
-1234720
-1234488
-1234471
-1234299
-1234399
-1234406
-1234335
-1234365
-1234337
-1234496
-1234399
-1234407
-1234388
-1234469
-1234567
-1234669
-1234833
-1235069
-1235013
-1235095
-1235192
-1235429
-1235438
-1235587
-1235787
-1235800
-1235889
-1236148
-1236264
-1236274
-1236392
-1236524
-1236580
-1236743
-1236818
-1237043
-1237191
-1237201
-1237352
-1237455
-1237539
-1237647
-1237642
-1237655
-1237740
-1237936
-1237935
-1238152
-1238034
-1238284
-1238267
-1238316
-1238384
-1238459
-1238477
-1238641
-1238618
-1238737
-1238755
-1238589
-1238708
-1238798
-1238926
-1238818
-1238789
-1238762
-1238857
-1238815
-1238814
-1238998
-1239203
-1239144
-1239167
-1239106
-1239016
-1239236
-1239234
-1239242
-1239149
-1239254
-1239408
-1239388
-1239505
-1239382
-1239587
-1239810
-1239704
-1239789
-1239891
-1239846
-1240013
-1240167
-1240145
-1240170
-1240344
-1240433
-1240578
-1240645
-1240561
-1240703
-1240632
-1240850
-1240805
-1240872
-1240959
-1240994
-1240970
-1241001
-1240943
-1241012
-1241078
-1241114
-1241034
-1241079
-1241087
-1241167
-1241121
-1241183
-1241301
-1241137
-1241226
-1241165
-1241164
-1241221
-1241240
-1241126
-1241171
-1241114
-1241063
-1241011
-1241030
-1241082
-1241158
-1241110
-1241129
-1241002
-1240999
-1240948
-1241070
-1240966
-1241060
-1241048
-1241063
-1240916
-1240880
-1241011
-1241050
-1240941
-1240826
-1240912
-1241082
-1241007
-1241167
-1241028
-1241081
-1241059
-1241206
-1241317
-1241248
-1241214
-1241352
-1241355
-1241410
-1241416
-1241447
-1241326
-1241485
-1241541
-1241631
-1241775
-1241747
-1241942
-1241846
-1241801
-1241818
-1242016
-1242048
-1242174
-1242228
-1242248
-1242315
-1242448
-1242477
-1242470
-1242428
-1242667
-1242759
-1242832
-1242785
-1242743
-1242940
-1243069
-1243117
-1243157
-1243194
-1243168
-1243297
-1243267
-1243362
-1243345
-1243414
-1243508
-1243690
-1243722
-1243673
-1243736
-1243911
-1243842
-1243861
-1243553
-1244016
-1244182
-1243981
-1244142
-1244292
-1244396
-1244416
-1244187
-1244344
-1244415
-1244524
-1244628
-1244721
-1244732
-1244681
-1244835
-1245021
-1244950
-1245055
-1245119
-1245222
-1245164
-1245200
-1245349
-1245269
-1245342
-1245559
-1245399
-1245445
-1245462
-1245640
-1245657
-1245597
-1245730
-1245894
-1245831
-1245872
-1245916
-1245937
-1246016
-1246126
-1246118
-1246115
-1246188
-1246276
-1246076
-1246263
-1246333
-1246404
-1246484
-1246650
-1246725
-1246882
-1246819
-1246864
-1246848
-1246989
-1246934
-1247147
-1247077
-1247091
-1247134
-1247098
-1247296
-1247281
-1247457
-1247446
-1247488
-1247586
-1247565
-1247563
-1247743
-1247852
-1247731
-1247859
-1247805
-1247851
-1247951
-1247908
-1248044
-1248156
-1248105
-1248095
-1248182
-1248252
-1248248
-1248384
-1248365
-1248446
-1248434
-1248350
-1248579
-1248627
-1248521
-1248548
-1248527
-1248467
-1248440
-1248360
-1248117
-1247959
-1247739
-1247379
-1247804
-1247093
-1246651
-1246502
-1246214
-1245862
-1245351
-1244989
-1244771
-1244441
-1244159
-1243811
-1243256
-1242934
-1242727
-1242227
-1241987
-1241719
-1241356
-1241054
-1240874
-1240526
-1240183
-1239895
-1239832
-1239693
-1239492
-1239229
-1239142
-1239092
-1239668
-1239010
-1238757
-1238690
-1238535
-1238555
-1238503
-1238452
-1238400
-1238521
-1238631
-1238608
-1238562
-1238640
-1239867
-1239124
-1239236
-1239132
-1239337
-1239536
-1239540
-1239541
-1239711
-1239902
-1239872
-1240205
-1240328
-1240487
-1240584
-1240612
-1240558
-1240646
-1240901
-1241153
-1241071
-1241157
-1241450
-1241519
-1241584
-1241703
-1241776
-1241770
-1241912
-1241742
-1242182
-1242296
-1242228
-1242390
-1242526
-1242583
-1242595
-1242611
-1242776
-1242784
-1242839
-1242827
-1242952
-1242895
-1243016
-1243033
-1243047
-1243086
-1243186
-1243228
-1243073
-1243248
-1243265
-1243117
-1243167
-1243220
-1243290
-1243399
-1243188
-1243366
-1243443
-1243508
-1243583
-1243518
-1243558
-1243740
-1243783
-1243810
-1243863
-1244104
-1245333
-1244414
-1245122
-1244664
-1244480
-1244549
-1244775
-1244743
-1244808
-1244771
-1245011
-1244961
-1244929
-1245023
-1245076
-1245065
-1245038
-1245133
-1245165
-1245164
-1245128
-1245272
-1245244
-1245261
-1245249
-1245195
-1245213
-1245245
-1245300
-1245344
-1245289
-1245438
-1245330
-1245198
-1245304
-1245290
-1245118
-1245246
-1245258
-1245136
-1245055
-1245126
-1245056
-1245085
-1244919
-1244990
-1244869
-1244891
-1244874
-1244784
-1244905
-1244789
-1244821
-1244772
-1244775
-1244795
-1244855
-1244859
-1244734
-1244823
-1244869
-1244829
-1244866
-1245018
-1245014
-1244960
-1245070
-1245102
-1245099
-1245227
-1245190
-1245246
-1245337
-1245365
-1245426
-1245140
-1245224
-1245298
-1245358
-1245446
-1245463
-1245514
-1245721
-1245618
-1245883
-1245713
-1245831
-1245840
-1246000
-1246009
-1245946
-1246078
-1246214
-1246229
-1246375
-1246403
-1246501
-1246716
-1246700
-1246777
-1246837
-1246962
-1246916
-1246896
-1246979
-1247130
-1247221
-1247278
-1247254
-1247204
-1247251
-1247272
-1247262
-1247226
-1247463
-1247477
-1247524
-1247531
-1247676
-1247658
-1247588
-1247669
-1248364
-1247947
-1248015
-1247965
-1248000
-1248111
-1248171
-1248098
-1248289
-1248365
-1248438
-1248475
-1248493
-1248605
-1248686
-1248781
-1248590
-1248847
-1248768
-1248858
-1248900
-1248957
-1249132
-1249210
-1249138
-1249207
-1249238
-1249233
-1249371
-1249361
-1249446
-1249479
-1249536
-1249616
-1249670
-1249716
-1249843
-1249928
-1250019
-1249989
-1250176
-1250244
-1250178
-1250385
-1250311
-1250668
-1250718
-1250497
-1250553
-1250665
-1250707
-1250578
-1250790
-1250797
-1250848
-1250789
-1250886
-1250986
-1251105
-1251091
-1251126
-1251122
-1251141
-1251105
-1251195
-1251121
-1251283
-1251314
-1251355
-1251681
-1251646
-1251565
-1251523
-1251559
-1251399
-1251406
-1251479
-1251416
-1251376
-1251194
-1251086
-1251008
-1250905
-1250599
-1250331
-1250054
-1250340
-1249745
-1249254
-1248987
-1248601
-1248422
-1247900
-1247602
-1247402
-1247119
-1246674
-1246223
-1245821
-1245520
-1245004
-1244750
-1244194
-1244043
-1243890
-1243214
-1242973
-1242878
-1242462
-1242395
-1242355
-1242553
-1242009
-1241730
-1241661
-1241461
-1241492
-1241311
-1241280
-1241353
-1241183
-1241086
-1241230
-1241173
-1241088
-1241307
-1241385
-1241537
-1241689
-1241694
-1241704
-1241917
-1242014
-1241976
-1242075
-1242198
-1242240
-1242495
-1242486
-1242687
-1242861
-1242856
-1242975
-1242941
-1243186
-1243173
-1243300
-1243529
-1243512
-1244733
-1244157
-1244026
-1243952
-1243983
-1243928
-1244091
-1244321
-1244335
-1244363
-1244424
-1244614
-1245597
-1245017
-1244850
-1244833
-1244748
-1244780
-1244835
-1244952
-1245063
-1245052
-1245001
-1245069
-1244932
-1245113
-1245163
-1245081
-1245240
-1245242
-1245291
-1245310
-1245143
-1244877
-1245225
-1245363
-1245386
-1245383
-1245565
-1245580
-1245512
-1245691
-1245607
-1245620
-1245720
-1245717
-1245923
-1245864
-1246093
-1246108
-1246252
-1246242
-1246236
-1246478
-1246403
-1246581
-1246650
-1246812
-1246877
-1246728
-1246533
-1246782
-1247000
-1247108
-1247193
-1246924
-1247179
-1247319
-1247261
-1247388
-1247369
-1247498
-1247450
-1247424
-1247431
-1247379
-1247501
-1247619
-1247551
-1247459
-1247464
-1247650
-1247654
-1247575
-1247466
-1247376
-1247551
-1247466
-1247497
-1247458
-1247552
-1247474
-1247363
-1247299
-1247411
-1247362
-1247409
-1247355
-1247323
-1247152
-1247201
-1247360
-1247202
-1247289
-1247330
-1247362
-1247443
-1247390
-1247260
-1247298
-1247451
-1247376
-1247399
-1247519
-1247348
-1247439
-1247617
-1247546
-1247567
-1247545
-1247577
-1247698
-1247704
-1247669
-1247697
-1247729
-1247890
-1247871
-1247988
-1248098
-1248084
-1248115
-1248072
-1248267
-1248353
-1248244
-1248357
-1248451
-1248434
-1248618
-1248624
-1248633
-1248599
-1248815
-1248844
-1248981
-1249020
-1249035
-1249014
-1249199
-1249279
-1249163
-1249222
-1249268
-1249320
-1249474
-1249549
-1249677
-1249589
-1249632
-1249696
-1249898
-1249818
-1249833
-1249977
-1250132
-1250051
-1250155
-1250254
-1250232
-1250318
-1250303
-1250324
-1250432
-1250448
-1250693
-1250561
-1250660
-1250728
-1250796
-1250944
-1250963
-1250927
-1251025
-1251084
-1251178
-1251282
-1251374
-1251283
-1251290
-1251352
-1251418
-1251357
-1251456
-1251524
-1251582
-1251602
-1251570
-1251659
-1251599
-1251779
-1251746
-1251800
-1251782
-1251830
-1252006
-1252016
-1252014
-1252144
-1252133
-1252074
-1252237
-1252083
-1252143
-1252211
-1252321
-1252432
-1252490
-1252536
-1252589
-1252565
-1252585
-1252559
-1252649
-1252614
-1252764
-1252854
-1252821
-1252772
-1252905
-1252848
-1252876
-1252977
-1252945
-1253109
-1253225
-1253245
-1253415
-1253363
-1253442
-1253339
-1253492
-1253545
-1253420
-1253578
-1253489
-1253635
-1253601
-1253723
-1253840
-1253745
-1253927
-1253996
-1253974
-1254038
-1254069
-1254182
-1254304
-1254225
-1254222
-1254379
-1254267
-1254381
-1254418
-1254461
-1254383
-1254551
-1254478
-1254567
-1254593
-1254625
-1254654
-1254645
-1254686
-1254743
-1254837
-1254635
-1254547
-1254601
-1254569
-1254537
-1255109
-1254442
-1254185
-1253908
-1253482
-1253318
-1253096
-1252697
-1252195
-1251798
-1251509
-1251025
-1250722
-1250222
-1249965
-1249512
-1249237
-1248703
-1248470
-1247915
-1247644
-1247271
-1246887
-1246641
-1246335
-1246105
-1245724
-1245352
-1245297
-1244929
-1244318
-1244349
-1244246
-1244148
-1244030
-1243909
-1243805
-1243839
-1243823
-1243780
-1243731
-1243631
-1243620
-1243745
-1243817
-1243828
-1243699
-1244012
-1244118
-1244076
-1244071
-1244032
-1244215
-1244198
-1244369
-1244460
-1244610
-1244699
-1244808
-1244989
-1245024
-1245027
-1245240
-1245331
-1245329
-1245519
-1245558
-1245668
-1245713
-1245827
-1245793
-1245977
-1246106
-1246236
-1246251
-1246388
-1246370
-1246541
-1246489
-1246604
-1246611
-1246519
-1246549
-1246664
-1246635
-1246618
-1246632
-1246838
-1246802
-1246821
-1246918
-1246962
-1246844
-1246965
-1247030
-1247087
-1246944
-1247081
-1246948
-1247017
-1247162
-1247019
-1247035
-1247093
-1247247
-1247139
-1247153
-1247214
-1247303
-1246953
-1247163
-1247144
-1247252
-1247405
-1247292
-1247412
-1247410
-1247343
-1247571
-1247519
-1247614
-1247631
-1247742
-1247834
-1247855
-1248044
-1248014
-1248117
-1248260
-1248368
-1248292
-1248426
-1248558
-1248573
-1248695
-1248659
-1248628
-1248717
-1248901
-1248933
-1248927
-1248957
-1248960
-1248893
-1249009
-1249106
-1249113
-1248969
-1248930
-1249114
-1249069
-1248954
-1249047
-1249070
-1249047
-1249135
-1249198
-1249098
-1249083
-1249026
-1249111
-1249120
-1249052
-1249035
-1248999
-1249111
-1248998
-1249014
-1249083
-1249020
-1248989
-1249010
-1249078
-1249023
-1249021
-1248933
-1248929
-1248860
-1248858
-1248904
-1249007
-1248873
-1248903
-1249026
-1249010
-1248951
-1248978
-1249100
-1249089
-1249060
-1249198
-1249033
-1249202
-1249217
-1249225
-1249433
-1249365
-1249439
-1249344
-1249352
-1249399
-1249574
-1249504
-1249495
-1249608
-1249803
-1249657
-1249770
-1249858
-1249955
-1249954
-1250000
-1249937
-1249902
-1250085
-1250068
-1250248
-1250327
-1250328
-1250334
-1250357
-1250447
-1250598
-1250744
-1250722
-1250622
-1250793
-1250775
-1250892
-1250946
-1251045
-1250839
-1251059
-1250997
-1251109
-1251046
-1251179
-1251196
-1251354
-1251316
-1251373
-1251230
-1251287
-1251390
-1251649
-1251585
-1251685
-1251718
-1251682
-1251931
-1251963
-1251818
-1252029
-1251887
-1252035
-1251969
-1252044
-1252118
-1252254
-1252212
-1252294
-1252425
-1252259
-1252323
-1252350
-1252317
-1252366
-1252564
-1252425
-1252532
-1252545
-1252653
-1252698
-1252700
-1252409
-1252592
-1252911
-1253052
-1253009
-1253091
-1253210
-1253263
-1253315
-1253288
-1253424
-1253321
-1253406
-1253467
-1253477
-1253447
-1253525
-1253454
-1253377
-1253627
-1253642
-1253524
-1253660
-1253611
-1253694
-1253877
-1253902
-1253841
-1253682
-1253892
-1254036
-1254187
-1254188
-1254273
-1254017
-1254211
-1254210
-1254282
-1254408
-1254520
-1254571
-1254586
-1254579
-1254569
-1254576
-1254630
-1254737
-1254669
-1254692
-1254868
-1254831
-1254704
-1254952
-1255018
-1254886
-1254908
-1254916
-1254915
-1255045
-1255203
-1255092
-1255064
-1255200
-1255045
-1255120
-1254958
-1254891
-1254846
-1254698
-1254658
-1254556
-1254298
-1253914
-1253822
-1253628
-1253115
-1252800
-1252398
-1252233
-1251834
-1251507
-1251233
-1250828
-1250469
-1250175
-1249723
-1249513
-1249060
-1248712
-1248455
-1248015
-1247729
-1247282
-1247051
-1246649
-1246436
-1246233
-1245944
-1245802
-1245592
-1245323
-1245055
-1244923
-1244880
-1244733
-1244713
-1244586
-1244552
-1244602
-1244535
-1244542
-1245180
-1244675
-1244560
-1244513
-1244579
-1244757
-1244746
-1244898
-1244847
-1244906
-1245105
-1245037
-1245255
-1245353
-1245417
-1245408
-1245404
-1245597
-1245660
-1245710
-1245784
-1245975
-1246145
-1246229
-1246148
-1246341
-1246390
-1246399
-1246145
-1246506
-1246707
-1246364
-1246719
-1246796
-1246683
-1246848
-1246908
-1247032
-1247073
-1247095
-1246937
-1246822
-1247042
-1246971
-1246962
-1246872
-1246963
-1247085
-1247145
-1247078
-1247000
-1246976
-1247050
-1247145
-1247144
-1247194
-1247089
-1247200
-1247073
-1247098
-1247215
-1247276
-1247152
-1247177
-1247159
-1247127
-1247242
-1247401
-1247308
-1247320
-1247308
-1247366
-1247514
-1247612
-1247593
-1247700
-1247653
-1247792
-1247865
-1247879
-1247971
-1248087
-1248180
-1248284
-1248319
-1248442
-1248389
-1248476
-1248608
-1248697
-1248741
-1248660
-1248534
-1248874
-1248845
-1248949
-1248859
-1249043
-1248958
-1248988
-1249095
-1248946
-1249014
-1249068
-1249170
-1249134
-1249038
-1249117
-1249301
-1249151
-1249085
-1249074
-1249221
-1249278
-1249135
-1249184
-1248926
-1249043
-1248949
-1249049
-1248959
-1248872
-1248967
-1248886
-1248810
-1248828
-1248750
-1248774
-1248797
-1248802
-1248858
-1248761
-1248841
-1248782
-1248747
-1248684
-1248647
-1248875
-1248941
-1248777
-1248800
-1248766
-1248852
-1248984
-1248879
-1248919
-1248912
-1248940
-1249796
-1249132
-1249072
-1249140
-1249157
-1249002
-1249026
-1249191
-1249080
-1249256
-1249369
-1249331
-1249258
-1249340
-1249482
-1249549
-1249500
-1249722
-1249726
-1249731
-1249701
-1249795
-1249922
-1249818
-1249803
-1249824
-1249858
-1249958
-1249876
-1250046
-1250239
-1250265
-1250225
-1250161
-1250187
-1250256
-1250352
-1250379
-1250513
-1250511
-1250595
-1250507
-1250723
-1250796
-1250829
-1250826
-1251037
-1250969
-1251060
-1251077
-1251156
-1251165
-1251258
-1251213
-1251366
-1251458
-1251532
-1251358
-1251492
-1251481
-1251609
-1251693
-1251562
-1251453
-1251698
-1251837
-1251699
-1251807
-1251943
-1251974
-1252027
-1252115
-1252149
-1252234
-1252254
-1252356
-1252252
-1252219
-1252438
-1252421
-1252535
-1252609
-1252463
-1252499
-1252546
-1252479
-1252622
-1252487
-1252521
-1252639
-1252714
-1252758
-1252700
-1252692
-1252828
-1252740
-1252672
-1252734
-1252878
-1253008
-1253066
-1252961
-1252939
-1253022
-1253048
-1253133
-1253146
-1253326
-1253228
-1253436
-1253429
-1253531
-1253400
-1254127
-1253684
-1253550
-1253288
-1253456
-1253670
-1253706
-1253776
-1253758
-1253745
-1253724
-1253914
-1253978
-1253872
-1253969
-1253984
-1253895
-1253965
-1254022
-1253977
-1254123
-1254104
-1254124
-1254108
-1254368
-1254260
-1254282
-1254450
-1255442
-1254850
-1254751
-1254803
-1254719
-1254688
-1254835
-1254909
-1254899
-1254821
-1254830
-1254944
-1254990
-1255032
-1254994
-1255000
-1255011
-1254998
-1255030
-1255154
-1255239
-1254888
-1255112
-1255248
-1255214
-1255219
-1255188
-1255268
-1255441
-1255442
-1255458
-1255605
-1254994
-1255341
-1255330
-1255332
-1255323
-1255063
-1254936
-1254808
-1254452
-1254183
-1253895
-1253677
-1253277
-1252998
-1252641
-1252322
-1252779
-1251821
-1251228
-1250820
-1250350
-1250005
-1249391
-1249130
-1248978
-1248624
-1248139
-1247952
-1247621
-1247228
-1247019
-1246668
-1246426
-1246264
-1245908
-1245746
-1245733
-1245413
-1244953
-1245068
-1245160
-1244990
-1244974
-1244939
-1244933
-1244800
-1244760
-1244873
-1244846
-1244920
-1244744
-1244738
-1244868
-1244943
-1244954
-1245869
-1245059
-1245067
-1245138
-1245384
-1245523
-1245515
-1245494
-1245538
-1245681
-1245780
-1245898
-1245911
-1246026
-1246172
-1246210
-1246333
-1246360
-1246385
-1246656
-1246676
-1246769
-1246847
-1246729
-1246870
-1246873
-1247019
-1246961
-1246966
-1247174
-1247140
-1246684
-1246674
-1247009
-1247177
-1247228
-1247394
-1247411
-1247465
-1247363
-1247400
-1247477
-1247430
-1247543
-1247405
-1247480
-1247332
-1247278
-1247304
-1247386
-1247459
-1247367
-1247321
-1247265
-1247231
-1247203
-1247275
-1247345
-1247297
-1247425
-1247497
-1247473
-1247460
-1247392
-1247465
-1247504
-1247697
-1247828
-1247826
-1247878
-1248056
-1248087
-1248059
-1248195
-1248416
-1248347
-1248520
-1248423
-1248433
-1248455
-1248518
-1248619
-1248652
-1248757
-1248777
-1248659
-1248686
-1248739
-1248756
-1248713
-1248774
-1248867
-1248833
-1248844
-1248912
-1248800
-1248707
-1248869
-1248865
-1248849
-1248681
-1248823
-1248810
-1248767
-1249568
-1248993
-1248818
-1248551
-1248520
-1248583
-1248395
-1248405
-1248305
-1248306
-1248161
-1248292
-1248281
-1248138
-1248182
-1248106
-1248174
-1248116
-1248253
-1248249
-1248309
-1248140
-1248130
-1248280
-1248144
-1248216
-1248330
-1248178
-1248112
-1248159
-1248283
-1248273
-1248301
-1248370
-1248297
-1248246
-1248263
-1248265
-1248345
-1248498
-1248545
-1248486
-1248510
-1248539
-1248538
-1248563
-1248674
-1248767
-1248855
-1248753
-1248838
-1248812
-1248793
-1248826
-1248933
-1249140
-1249088
-1249094
-1249295
-1249208
-1249306
-1249289
-1249256
-1249296
-1249433
-1249405
-1249526
-1249471
-1249530
-1249623
-1249573
-1249578
-1249854
-1250009
-1249919
-1249986
-1250069
-1250103
-1250075
-1250265
-1250320
-1250353
-1250295
-1250358
-1250440
-1250541
-1250549
-1250510
-1250653
-1250685
-1250744
-1250633
-1250746
-1250700
-1250742
-1250887
-1250871
-1250962
-1250938
-1251040
-1251100
-1251044
-1251218
-1250896
-1251145
-1251115
-1251354
-1251333
-1251274
-1251376
-1251258
-1251464
-1251557
-1251571
-1251634
-1251488
-1251562
-1251541
-1251463
-1251553
-1251644
-1251684
-1251597
-1251606
-1251575
-1251626
-1251660
-1251775
-1251376
-1251674
-1251781
-1251995
-1251954
-1252775
-1252144
-1252050
-1252077
-1252084
-1252586
-1252118
-1252058
-1252213
-1252227
-1252070
-1252046
-1252065
-1252073
-1252190
-1252287
-1252180
-1252317
-1252196
-1252236
-1252321
-1252327
-1252377
-1252470
-1252474
-1252531
-1252504
-1252466
-1252753
-1252821
-1252839
-1252770
-1252820
-1252839
-1252797
-1252933
-1252929
-1252895
-1252794
-1252942
-1253129
-1253136
-1253041
-1253036
-1253350
-1253191
-1253139
-1253325
-1253338
-1253310
-1253477
-1253388
-1253526
-1253577
-1253727
-1253762
-1253578
-1253624
-1253815
-1253721
-1253844
-1253816
-1253799
-1253845
-1253789
-1253857
-1254017
-1254053
-1253985
-1254013
-1254098
-1254132
-1254230
-1254176
-1254206
-1254185
-1254085
-1254077
-1254223
-1254157
-1254051
-1254049
-1253847
-1253762
-1253525
-1253279
-1253199
-1252899
-1252666
-1252364
-1251996
-1251670
-1251463
-1250994
-1250648
-1250297
-1249882
-1249607
-1249143
-1248668
-1247957
-1247948
-1247576
-1247279
-1246795
-1246625
-1246211
-1246017
-1245537
-1245206
-1245181
-1244673
-1244686
-1244422
-1244197
-1244070
-1243897
-1243668
-1243550
-1243525
-1243416
-1243268
-1243287
-1243097
-1243149
-1242995
-1242815
-1242969
-1243050
-1243854
-1243225
-1243020
-1243112
-1243005
-1243184
-1243285
-1243150
-1243203
-1243363
-1243328
-1243365
-1243429
-1243501
-1243693
-1243710
-1243764
-1243744
-1243895
-1244003
-1244151
-1243829
-1244148
-1244252
-1244214
-1244296
-1244134
-1244282
-1244116
-1244280
-1244386
-1244423
-1244511
-1244583
-1244519
-1244649
-1244496
-1244551
-1244538
-1244608
-1244597
-1244492
-1244643
-1244586
-1244751
-1244738
-1244721
-1244698
-1244771
-1244603
-1244541
-1244586
-1244527
-1244426
-1244538
-1244515
-1244579
-1244478
-1244553
-1244345
-1244351
-1244223
-1244175
-1244244
-1244292
-1244288
-1244227
-1244341
-1244483
-1244496
-1244467
-1244560
-1244744
-1244723
-1244751
-1244840
-1244918
-1244884
-1244916
-1245140
-1245160
-1245340
-1245250
-1245316
-1245463
-1245500
-1245514
-1245489
-1245528
-1245695
-1245642
-1245808
-1245878
-1245816
-1245774
-1245835
-1245816
-1245840
-1245870
-1245921
-1245842
-1245913
-1246007
-1246012
-1245853
-1246016
-1245861
-1245785
-1245780
-1245756
-1245761
-1245883
-1245774
-1245580
-1245397
-1245545
-1245484
-1245494
-1245437
-1245458
-1245446
-1245350
-1245348
-1245391
-1245287
-1245295
-1245294
-1245209
-1245196
-1245147
-1245226
-1245132
-1245176
-1245129
-1245057
-1245036
-1245200
-1245188
-1245247
-1245265
-1245202
-1245246
-1245196
-1245365
-1244962
-1245225
-1245265
-1245234
-1245277
-1245414
-1245447
-1245433
-1245456
-1245520
-1245526
-1245628
-1245542
-1245350
-1245495
-1245713
-1245683
-1245681
-1245622
-1245909
-1245803
-1245917
-1245963
-1246038
-1245822
-1246051
-1246055
-1246113
-1246179
-1246216
-1246321
-1246298
-1246422
-1246401
-1246451
-1246474
-1246515
-1246436
-1246491
-1246590
-1246480
-1246530
-1246651
-1246720
-1246867
-1246749
-1246804
-1246990
-1247021
-1247177
-1247039
-1247074
-1247208
-1247187
-1247279
-1247252
-1247299
-1247297
-1247450
-1247568
-1247527
-1247567
-1247482
-1247556
-1247718
-1247742
-1247805
-1247818
-1247749
-1247760
-1247841
-1247902
-1247604
-1247839
-1248047
-1248134
-1248146
-1248060
-1248219
-1248229
-1248159
-1248244
-1248271
-1248322
-1248506
-1248365
-1248399
-1248424
-1248621
-1248576
-1248630
-1248567
-1248374
-1248665
-1248585
-1248704
-1249538
-1248915
-1248869
-1248756
-1248906
-1248840
-1248916
-1248849
-1248896
-1248968
-1249853
-1249130
-1249041
-1249043
-1249030
-1249061
-1249145
-1249344
-1249474
-1249346
-1250163
-1249494
-1249541
-1249369
-1249361
-1249309
-1249394
-1249412
-1249439
-1249381
-1249503
-1249472
-1249464
-1249457
-1249483
-1249563
-1249620
-1249640
-1249657
-1249760
-1249706
-1249830
-1249814
-1249783
-1249937
-1249894
-1249930
-1249921
-1249949
-1249976
-1250017
-1249998
-1250136
-1250038
-1250042
-1250086
-1250084
-1250205
-1250299
-1250384
-1250388
-1250379
-1250537
-1250388
-1250447
-1250537
-1250534
-1250642
-1250585
-1250651
-1250593
-1250549
-1250652
-1250383
-1250544
-1250589
-1250698
-1250683
-1250746
-1250763
-1250768
-1250907
-1250887
-1250890
-1251000
-1251103
-1250998
-1250994
-1251129
-1251090
-1251275
-1251301
-1251392
-1251477
-1251559
-1251610
-1251505
-1251289
-1251568
-1251569
-1251548
-1251327
-1251484
-1251644
-1251593
-1251693
-1251656
-1251265
-1251543
-1251627
-1251817
-1251887
-1251964
-1251926
-1251883
-1251991
-1251973
-1252174
-1252040
-1252205
-1252176
-1252207
-1252430
-1252391
-1252450
-1252567
-1252501
-1252549
-1252646
-1252647
-1252653
-1252675
-1252919
-1252877
-1252902
-1252834
-1252814
-1252884
-1252992
-1253058
-1253140
-1253190
-1253202
-1253237
-1253276
-1253442
-1253288
-1253367
-1253382
-1253570
-1253688
-1253636
-1253644
-1253693
-1253671
-1253764
-1253711
-1253623
-1254157
-1253656
-1253549
-1253356
-1253248
-1253177
-1252902
-1252812
-1252424
-1252189
-1251873
-1251326
-1251104
-1250676
-1250248
-1249767
-1249457
-1248846
-1248471
-1248149
-1247769
-1247326
-1246784
-1246420
-1246103
-1245469
-1245095
-1244667
-1244467
-1244389
-1243829
-1243318
-1243126
-1242637
-1242534
-1242325
-1242074
-1241767
-1241564
-1241389
-1241309
-1241143
-1241067
-1240847
-1240759
-1240735
-1240678
-1240527
-1240629
-1241426
-1240710
-1240520
-1240557
-1240675
-1240649
-1240667
-1240756
-1240803
-1240804
-1240874
-1241112
-1240967
-1241137
-1241095
-1241268
-1241406
-1241463
-1241361
-1241416
-1241608
-1241625
-1241776
-1241874
-1241794
-1241986
-1241907
-1242023
-1242136
-1242022
-1241952
-1242061
-1242049
-1242215
-1242280
-1242269
-1242348
-1242335
-1242406
-1242445
-1242395
-1242316
-1242267
-1242378
-1242362
-1242299
-1242351
-1242402
-1242340
-1242282
-1242386
-1242241
-1242255
-1242304
-1242195
-1242137
-1242154
-1242158
-1242058
-1242064
-1242098
-1242133
-1242037
-1241614
-1241907
-1241651
-1241804
-1241950
-1241918
-1241909
-1241969
-1241826
-1241932
-1241985
-1241930
-1242753
-1242310
-1242139
-1242060
-1242041
-1242225
-1242301
-1242225
-1242376
-1242464
-1242427
-1242556
-1242467
-1242595
-1242902
-1242843
-1242784
-1242409
-1242798
-1242898
-1242909
-1242521
-1242921
-1242915
-1242902
-1243114
-1242992
-1243069
-1243101
-1243145
-1243040
-1242965
-1243168
-1243207
-1243141
-1243041
-1243069
-1243081
-1243127
-1243038
-1242923
-1242924
-1243020
-1242622
-1242767
-1242911
-1242903
-1242925
-1242833
-1242700
-1242778
-1242799
-1242606
-1242688
-1242603
-1242435
-1242552
-1242539
-1242406
-1242438
-1242408
-1242383
-1242411
-1242398
-1242403
-1242394
-1242307
-1242311
-1242411
-1242388
-1242341
-1242486
-1242378
-1242303
-1242376
-1242449
-1242377
-1242433
-1242483
-1242521
-1242474
-1242666
-1242512
-1242658
-1242631
-1242808
-1242761
-1242672
-1242641
-1242756
-1242657
-1242709
-1243542
-1243133
-1242979
-1243062
-1242993
-1243098
-1243215
-1243194
-1243245
-1243160
-1243103
-1243233
-1243335
-1243308
-1243330
-1243409
-1243404
-1243526
-1243460
-1243543
-1243517
-1243691
-1243570
-1243770
-1243693
-1243853
-1243917
-1243830
-1243856
-1243871
-1244034
-1244093
-1243997
-1244172
-1244130
-1244071
-1244246
-1244218
-1244215
-1244461
-1244400
-1244279
-1244386
-1244479
-1244608
-1244653
-1244667
-1244782
-1244794
-1244780
-1244828
-1244784
-1244870
-1244897
-1244938
-1245000
-1245089
-1245145
-1245095
-1245111
-1245130
-1245025
-1245158
-1245219
-1245316
-1245342
-1245383
-1245448
-1245580
-1245533
-1245539
-1245555
-1245466
-1245495
-1245555
-1245701
-1245691
-1245735
-1245773
-1245828
-1245784
-1245751
-1245813
-1245724
-1245900
-1245543
-1245669
-1245984
-1245899
-1245977
-1246001
-1245912
-1246007
-1246018
-1246062
-1246035
-1246048
-1246159
-1246354
-1246327
-1246386
-1246292
-1246273
-1246405
-1246478
-1246543
-1246564
-1246616
-1246672
-1246546
-1247016
-1246763
-1246723
-1246696
-1246706
-1246701
-1246861
-1246845
-1246907
-1246866
-1246864
-1246916
-1246984
-1247089
-1247136
-1247081
-1247093
-1247249
-1247138
-1247283
-1247374
-1247333
-1247317
-1247144
-1247236
-1247465
-1247413
-1247386
-1247393
-1247560
-1247547
-1247661
-1247676
-1247749
-1247269
-1247560
-1247686
-1247834
-1247839
-1247827
-1248039
-1247959
-1248043
-1247867
-1248057
-1248025
-1248067
-1248028
-1248012
-1248171
-1248298
-1248228
-1248139
-1248097
-1248245
-1248546
-1248494
-1248485
-1248350
-1248399
-1248563
-1248611
-1248574
-1248698
-1248757
-1248813
-1248727
-1248929
-1248920
-1248946
-1249036
-1249124
-1249082
-1249130
-1249104
-1249043
-1249140
-1249080
-1249101
-1248963
-1249112
-1249260
-1249248
-1249194
-1249201
-1249393
-1249421
-1249419
-1249562
-1249474
-1249662
-1249729
-1249789
-1249813
-1249709
-1249892
-1250006
-1249931
-1249902
-1249930
-1250197
-1250102
-1250034
-1250235
-1250190
-1250140
-1250420
-1250443
-1250437
-1250319
-1250539
-1250527
-1250502
-1250532
-1250623
-1250687
-1250826
-1250743
-1250883
-1250955
-1251088
-1250934
-1251035
-1251000
-1251102
-1251095
-1251320
-1251313
-1251286
-1251398
-1251358
-1251540
-1251543
-1251464
-1251461
-1251526
-1251712
-1251657
-1251621
-1251586
-1251768
-1251671
-1251581
-1251590
-1251443
-1251462
-1251296
-1251238
-1251071
-1250785
-1250605
-1250275
-1250062
-1249679
-1249350
-1249066
-1248550
-1248221
-1247668
-1247210
-1246811
-1246519
-1245964
-1245645
-1245120
-1244685
-1244244
-1243820
-1243547
-1242977
-1242652
-1242256
-1241957
-1241667
-1241274
-1241131
-1240915
-1240534
-1240213
-1240138
-1239977
-1239764
-1239450
-1239386
-1239206
-1239149
-1238993
-1238852
-1238805
-1238678
-1238713
-1238655
-1238659
-1238615
-1238551
-1238662
-1238751
-1238789
-1238909
-1238835
-1238870
-1238898
-1238950
-1239151
-1239204
-1238988
-1239325
-1239351
-1239472
-1239433
-1239494
-1239318
-1239564
-1239737
-1239938
-1239963
-1240011
-1240157
-1240260
-1240325
-1240318
-1240485
-1240558
-1240624
-1240527
-1240573
-1240658
-1240671
-1240848
-1240738
-1240776
-1240837
-1240890
-1240885
-1240808
-1240885
-1241024
-1240967
-1240866
-1240927
-1241050
-1241077
-1241017
-1240910
-1240960
-1240859
-1240883
-1240817
-1240874
-1240786
-1240846
-1240752
-1240657
-1240394
-1240746
-1240787
-1240754
-1240576
-1240695
-1240606
-1240604
-1240692
-1240638
-1240635
-1240684
-1240680
-1240704
-1240669
-1240824
-1240705
-1240737
-1240809
-1240857
-1240875
-1240912
-1241008
-1241137
-1241072
-1241163
-1241169
-1241322
-1241439
-1241322
-1241555
-1241589
-1241581
-1241540
-1241590
-1241606
-1241765
-1241865
-1241725
-1241720
-1241765
-1241687
-1241695
-1241823
-1241725
-1241803
-1241579
-1241747
-1241573
-1241506
-1241523
-1241537
-1241554
-1241613
-1241482
-1241336
-1241309
-1241346
-1241433
-1241371
-1241406
-1241450
-1241297
-1241242
-1241237
-1242083
-1241362
-1241275
-1241237
-1241087
-1241063
-1240863
-1240945
-1241063
-1240911
-1240897
-1240828
-1240894
-1240900
-1240977
-1241027
-1240997
-1240884
-1240804
-1240740
-1240848
-1240831
-1240912
-1240970
-1240960
-1240961
-1240924
-1241120
-1241750
-1241323
-1241155
-1241106
-1241250
-1241265
-1241218
-1241309
-1241187
-1241251
-1241335
-1241367
-1241463
-1241413
-1241469
-1241638
-1241592
-1241548
-1241643
-1241662
-1241728
-1241713
-1241914
-1241870
-1241980
-1242088
-1241999
-1242136
-1241971
-1242109
-1242176
-1242235
-1242330
-1242230
-1242290
-1242494
-1242407
-1242363
-1242508
-1242578
-1242724
-1242654
-1242608
-1242632
-1242826
-1242863
-1243005
-1242872
-1242948
-1242936
-1243451
-1243251
-1243202
-1243095
-1243168
-1243265
-1243323
-1243311
-1243285
-1243417
-1243392
-1243550
-1243659
-1243520
-1243740
-1243641
-1243670
-1243706
-1243862
-1243825
-1243831
-1244034
-1243936
-1244139
-1244028
-1244124
-1244139
-1244138
-1244330
-1244266
-1244270
-1244353
-1244308
-1244375
-1244427
-1244370
-1244585
-1244513
-1244614
-1244645
-1244621
-1244622
-1244596
-1244771
-1244758
-1244680
-1244756
-1244802
-1244870
-1244874
-1244976
-1244850
-1244910
-1245010
-1245069
-1245022
-1245135
-1245224
-1245192
-1245246
-1245281
-1245205
-1245256
-1245331
-1245376
-1245395
-1245287
-1245292
-1245450
-1245404
-1245431
-1245358
-1245532
-1245547
-1245645
-1245485
-1245492
-1245605
-1245619
-1245730
-1245637
-1245762
-1245723
-1245710
-1245692
-1245738
-1245777
-1245844
-1245820
-1246012
-1246029
-1246113
-1246004
-1246016
-1246115
-1246174
-1246057
-1246148
-1246122
-1246165
-1246240
-1246188
-1246164
-1246276
-1246402
-1246358
-1246293
-1246263
-1246298
-1246455
-1246402
-1246438
-1246442
-1246520
-1246795
-1246749
-1246600
-1246710
-1246814
-1246745
-1246835
-1246852
-1246827
-1246990
-1246913
-1246971
-1247040
-1247021
-1247040
-1247013
-1247048
-1247204
-1247151
-1247323
-1247304
-1247441
-1247381
-1247345
-1247530
-1247528
-1247606
-1247478
-1247657
-1247651
-1247829
-1247872
-1247884
-1247785
-1247959
-1247930
-1247975
-1248100
-1248015
-1248180
-1248249
-1248112
-1248301
-1248334
-1248383
-1248386
-1248353
-1248487
-1248544
-1248542
-1248658
-1248721
-1248727
-1248800
-1248812
-1248960
-1249005
-1248968
-1248949
-1249037
-1249061
-1249131
-1248971
-1248961
-1248951
-1248992
-1248934
-1248755
-1248567
-1248508
-1248349
-1248136
-1247887
-1247601
-1247185
-1246941
-1246547
-1246145
-1245932
-1245547
-1245146
-1245498
-1244536
-1243929
-1243559
-1243147
-1242713
-1242262
-1241779
-1241397
-1241102
-1240665
-1240518
-1240100
-1239836
-1239503
-1239272
-1239148
-1238830
-1238568
-1238404
-1238338
-1238007
-1237903
-1237708
-1237710
-1237715
-1237290
-1237404
-1237487
-1237293
-1237437
-1237436
-1237496
-1237313
-1237349
-1237403
-1237373
-1237403
-1237465
-1237513
-1237731
-1237875
-1237943
-1238026
-1237965
-1238146
-1238159
-1238257
-1238428
-1238427
-1238597
-1238576
-1238694
-1238946
-1239129
-1239131
-1239154
-1239317
-1239208
-1239393
-1239509
-1239358
-1239659
-1239556
-1239688
-1239557
-1239666
-1239770
-1239662
-1239847
-1239824
-1239979
-1239955
-1239844
-1239874
-1240026
-1240004
-1239973
-1240072
-1240003
-1240082
-1240160
-1240098
-1240190
-1240183
-1240100
-1240142
-1240141
-1240125
-1240201
-1240155
-1239989
-1239915
-1240038
-1240492
-1240305
-1240150
-1239619
-1239886
-1240038
-1240081
-1240076
-1239978
-1240137
-1240232
-1240288
-1240153
-1240304
-1240320
-1240072
-1240427
-1240412
-1240592
-1240587
-1240812
-1240814
-1240705
-1240918
-1240931
-1240961
-1241055
-1241018
-1241036
-1241019
-1241036
-1241130
-1241026
-1240662
-1240831
-1240946
-1241014
-1240994
-1240883
-1240792
-1240891
-1240924
-1240649
-1240690
-1240803
-1240864
-1240776
-1240646
-1240626
-1240673
-1240445
-1240434
-1240321
-1240311
-1240365
-1240333
-1240416
-1240234
-1240213
-1240256
-1240156
-1240163
-1239990
-1240001
-1239875
-1239980
-1240039
-1239833
-1239825
-1239772
-1239832
-1239865
-1239756
-1239847
-1239903
-1239852
-1239747
-1239801
-1239895
-1239883
-1239968
-1240003
-1240212
-1240035
-1239843
-1239912
-1239954
-1239975
-1240086
-1240069
-1240126
-1240063
-1240072
-1240141
-1240305
-1240213
-1240184
-1240352
-1240293
-1240422
-1240503
-1240400
-1240524
-1240530
-1240662
-1240608
-1240688
-1240701
-1240830
-1240793
-1240858
-1240932
-1240950
-1241066
-1241145
-1241087
-1241188
-1241126
-1241150
-1241260
-1241395
-1241446
-1241535
-1241385
-1241548
-1241667
-1241718
-1241730
-1241676
-1241747
-1241846
-1241788
-1241811
-1241855
-1241900
-1241845
-1241952
-1242115
-1242171
-1242195
-1242146
-1242118
-1242130
-1242272
-1242330
-1242395
-1242529
-1242527
-1242479
-1242527
-1242588
-1242785
-1242847
-1242738
-1242884
-1242845
-1242804
-1242812
-1242816
-1242749
-1242894
-1242993
-1243096
-1242981
-1243175
-1243131
-1243340
-1243418
-1243204
-1243249
-1243250
-1243372
-1243485
-1243429
-1243567
-1243467
-1243416
-1243534
-1243498
-1243651
-1243734
-1243772
-1243638
-1243750
-1243734
-1243776
-1243931
-1243955
-1243886
-1244010
-1244187
-1244074
-1244214
-1244151
-1244724
-1244295
-1244170
-1244319
-1244331
-1244287
-1244512
-1244409
-1244518
-1244386
-1244478
-1244529
-1244582
-1244753
-1244666
-1244668
-1244616
-1244648
-1244903
-1244881
-1244915
-1244945
-1245039
-1245009
-1245055
-1245093
-1245175
-1245107
-1245228
-1245131
-1245324
-1245245
-1245226
-1245244
-1245441
-1245486
-1245532
-1245560
-1245576
-1245572
-1245540
-1245564
-1245522
-1245688
-1245777
-1245812
-1245895
-1245709
-1245792
-1245728
-1245744
-1245831
-1245852
-1245995
-1246003
-1245934
-1245870
-1245960
-1246049
-1245768
-1245869
-1245648
-1245568
-1245456
-1245376
-1245055
-1244797
-1244617
-1244272
-1243911
-1243655
-1243391
-1243016
-1242703
-1242242
-1242005
-1241509
-1241137
-1240742
-1240283
-1239991
-1239478
-1239332
-1238993
-1238623
-1238201
-1237824
-1237445
-1237294
-1236949
-1236755
-1236653
-1236304
-1236111
-1235822
-1235574
-1235590
-1235470
-1235403
-1235071
-1234745
-1234818
-1235693
-1235099
-1234741
-1234603
-1234674
-1234693
-1234580
-1234578
-1234668
-1234763
-1234776
-1234899
-1234774
-1234906
-1235036
-1234973
-1235035
-1235037
-1235279
-1235435
-1235461
-1235408
-1235515
-1235780
-1235895
-1235821
-1235808
-1236045
-1236173
-1236310
-1236268
-1236413
-1236306
-1236446
-1236549
-1236446
-1236614
-1236615
-1236563
-1236556
-1236608
-1236662
-1236818
-1236731
-1236800
-1236932
-1236882
-1236922
-1236985
-1237086
-1237023
-1237002
-1237029
-1237142
-1237191
-1237105
-1237113
-1237147
-1237076
-1237187
-1237137
-1237182
-1237009
-1237033
-1236947
-1236897
-1236924
-1236934
-1236877
-1236841
-1236818
-1236854
-1236851
-1236909
-1237099
-1237083
-1237138
-1237263
-1237231
-1237223
-1237445
-1237329
-1237394
-1237431
-1237455
-1237560
-1237643
-1237671
-1237707
-1237879
-1237981
-1237979
-1237965
-1237958
-1237936
-1237960
-1237938
-1237987
-1238073
-1238023
-1238089
-1238131
-1238850
-1238220
-1238215
-1238290
-1238144
-1238157
-1238066
-1238140
-1238135
-1238072
-1238085
-1238132
-1238033
-1237675
-1237929
-1237907
-1237806
-1237814
-1237775
-1237621
-1237730
-1237736
-1237728
-1237714
-1237594
-1237530
-1237541
-1237616
-1237486
-1237394
-1237317
-1237240
-1237382
-1237225
-1237318
-1237168
-1237297
-1237257
-1237153
-1237230
-1237325
-1237304
-1237318
-1237319
-1237326
-1237359
-1237214
-1237253
-1237175
-1237290
-1237332
-1237378
-1237401
-1237344
-1237369
-1237441
-1237550
-1237495
-1237498
-1237514
-1237528
-1237458
-1237601
-1237700
-1237639
-1237709
-1237848
-1237912
-1238727
-1238026
-1238018
-1238021
-1238050
-1237894
-1238145
-1238243
-1238411
-1238335
-1238478
-1238646
-1238577
-1238538
-1238593
-1238661
-1238399
-1238585
-1238611
-1238722
-1238761
-1238835
-1238803
-1238976
-1238937
-1238971
-1239059
-1239223
-1239296
-1239455
-1239434
-1239372
-1239412
-1239446
-1239450
-1239478
-1239595
-1239629
-1239569
-1239558
-1239697
-1239789
-1239684
-1239712
-1239708
-1239849
-1239850
-1239889
-1239957
-1239973
-1240051
-1239966
-1240080
-1240216
-1240225
-1240441
-1240343
-1240338
-1240432
-1240529
-1240591
-1240554
-1240642
-1240775
-1240782
-1240890
-1240938
-1240928
-1241028
-1240972
-1241003
-1241082
-1241114
-1241195
-1241135
-1241136
-1241155
-1241272
-1241366
-1241334
-1241349
-1241451
-1241344
-1241403
-1241615
-1241577
-1241553
-1241646
-1241575
-1241682
-1241834
-1241885
-1241867
-1241758
-1241846
-1241825
-1241888
-1242003
-1242044
-1242049
-1242098
-1242040
-1242059
-1242068
-1242116
-1242138
-1242278
-1242304
-1242372
-1242384
-1242464
-1242631
-1242561
-1242594
-1242563
-1242681
-1242672
-1242760
-1242682
-1242708
-1242834
-1242851
-1242767
-1242844
-1242788
-1242856
-1242867
-1242958
-1242960
-1242892
-1242905
-1242889
-1242909
-1242755
-1242682
-1242608
-1242403
-1242256
-1242209
-1241945
-1241711
-1241430
-1241163
-1240875
-1240435
-1240224
-1239900
-1239525
-1238738
-1238478
-1238179
-1237802
-1237306
-1237033
-1236807
-1236458
-1235908
-1235580
-1235227
-1235037
-1234754
-1234204
-1233831
-1233452
-1233252
-1233176
-1232854
-1232511
-1232292
-1232255
-1232000
-1231899
-1231777
-1231265
-1231345
-1231281
-1231248
-1231197
-1231102
-1231086
-1231185
-1231059
-1231198
-1231208
-1231260
-1231129
-1231244
-1231289
-1231223
-1231272
-1231275
-1231385
-1231434
-1231465
-1231622
-1231759
-1231736
-1231864
-1231960
-1232068
-1232003
-1232187
-1232123
-1232251
-1232226
-1232038
-1232366
-1232183
-1232514
-1232589
-1232677
-1232631
-1232802
-1232797
-1232880
-1232897
-1233012
-1232956
-1233002
-1233017
-1232938
-1233098
-1233078
-1234001
-1233300
-1233034
-1234048
-1233696
-1233220
-1233131
-1233185
-1233048
-1232931
-1232933
-1232929
-1233004
-1232934
-1233004
-1232909
-1232872
-1232865
-1232794
-1232761
-1232660
-1232782
-1232842
-1232726
-1232744
-1232624
-1232720
-1232757
-1232775
-1232722
-1232688
-1232704
-1232906
-1232864
-1232769
-1232947
-1232991
-1233005
-1233233
-1233289
-1233150
-1233319
-1233298
-1233329
-1233402
-1233501
-1233727
-1233766
-1233730
-1233655
-1233673
-1233768
-1233930
-1233939
-1233772
-1233708
-1233898
-1233786
-1233759
-1233855
-1233707
-1233714
-1233631
-1233597
-1233534
-1233648
-1233608
-1233543
-1233599
-1233209
-1233353
-1233428
-1233340
-1233347
-1233231
-1233233
-1233021
-1233125
-1233097
-1232938
-1232903
-1233323
-1232943
-1232710
-1232694
-1232620
-1232617
-1232693
-1232619
-1232531
-1232462
-1232558
-1232449
-1232414
-1232331
-1232173
-1232388
-1232488
-1232456
-1232379
-1232447
-1232437
-1232354
-1233246
-1232647
-1232467
-1232574
-1232475
-1232437
-1232494
-1232449
-1232619
-1232499
-1232455
-1232480
-1232615
-1232601
-1232599
-1232669
-1232612
-1232558
-1232705
-1233722
-1233038
-1232805
-1232898
-1232925
-1233042
-1232953
-1232920
-1233004
-1233042
-1232978
-1233143
-1233090
-1232859
-1233147
-1233324
-1233387
-1233332
-1233415
-1233476
-1233386
-1233486
-1233579
-1233621
-1233701
-1233674
-1233592
-1233734
-1233713
-1233840
-1233784
-1233794
-1233816
-1233864
-1233913
-1233888
-1233948
-1233891
-1234005
-1234079
-1234227
-1234208
-1234130
-1234104
-1234242
-1234257
-1234298
-1234260
-1234365
-1234535
-1234651
-1234570
-1234493
-1234663
-1234840
-1234729
-1234708
-1234857
-1234748
-1234979
-1234991
-1234989
-1235025
-1235057
-1235098
-1235104
-1235178
-1235225
-1235280
-1235379
-1235433
-1235444
-1235505
-1235489
-1235656
-1235645
-1235578
-1235626
-1235673
-1235722
-1235804
-1235742
-1235707
-1235799
-1235824
-1235859
-1235993
-1235836
-1235978
-1236167
-1236216
-1236223
-1236171
-1236259
-1236389
-1236413
-1236456
-1236391
-1236261
-1236283
-1236355
-1236527
-1236512
-1236561
-1236525
-1236644
-1236597
-1236643
-1236526
-1236656
-1236716
-1236602
-1236639
-1236546
-1236606
-1236677
-1236634
-1236590
-1236729
-1236611
-1236643
-1236540
-1236475
-1236385
-1236169
-1236020
-1235791
-1235575
-1235343
-1235172
-1234869
-1234518
-1234203
-1233782
-1233166
-1232908
-1232633
-1232317
-1231931
-1231542
-1231205
-1230713
-1230243
-1229821
-1229637
-1229343
-1228921
-1228544
-1228228
-1228056
-1227340
-1227159
-1226920
-1226832
-1226248
-1226250
-1226220
-1226025
-1225705
-1225544
-1225428
-1225250
-1225309
-1225178
-1225033
-1225092
-1225012
-1224888
-1224890
-1224795
-1224887
-1224824
-1224825
-1224805
-1224992
-1224840
-1224836
-1224867
-1224907
-1225075
-1225059
-1225023
-1225115
-1225123
-1225356
-1225350
-1225368
-1225489
-1225551
-1225389
-1225501
-1225639
-1225628
-1225731
-1225867
-1225912
-1225890
-1225977
-1225945
-1226013
-1225920
-1226016
-1226078
-1226090
-1226084
-1225690
-1225691
-1225848
-1225580
-1225875
-1225886
-1225913
-1226040
-1226066
-1226067
-1226005
-1225992
-1225906
-1225910
-1225849
-1225815
-1225943
-1225940
-1225738
-1225790
-1225508
-1225641
-1225303
-1225537
-1225502
-1225661
-1225575
-1225545
-1225558
-1225643
-1225787
-1225695
-1225668
-1225678
-1225833
-1225909
-1225814
-1225870
-1225921
-1225886
-1226052
-1226145
-1226232
-1226323
-1226221
-1226368
-1226480
-1226407
-1226488
-1226604
-1226558
-1226642
-1226715
-1226839
-1226841
-1226712
-1226695
-1226812
-1226709
-1226785
-1226653
-1226711
-1226623
-1226584
-1226539
-1226480
-1226516
-1226573
-1226445
-1226386
-1227631
-1226738
-1226455
-1226364
-1226344
-1227440
-1226544
-1226208
-1226255
-1226177
-1226159
-1226115
-1226109
-1226126
-1225873
-1225890
-1225811
-1225735
-1225787
-1225799
-1225719
-1225753
-1225616
-1225707
-1225708
-1225474
-1225428
-1225537
-1225575
-1225385
-1225514
-1225404
-1225510
-1225532
-1225525
-1225567
-1225511
-1225437
-1225429
-1225423
-1225460
-1225514
-1225569
-1225518
-1225701
-1225668
-1225680
-1225696
-1225679
-1225770
-1225841
-1225763
-1225826
-1226003
-1225808
-1225935
-1225991
-1226090
-1225986
-1226022
-1226057
-1226207
-1226182
-1226247
-1226181
-1226173
-1226231
-1226277
-1226345
-1226381
-1226524
-1226322
-1226520
-1226637
-1226574
-1226618
-1226692
-1226714
-1226950
-1226867
-1227028
-1227042
-1226998
-1227021
-1227149
-1227208
-1227163
-1227283
-1226962
-1227081
-1227196
-1227281
-1227449
-1227334
-1227365
-1227450
-1227463
-1227486
-1227530
-1227518
-1227682
-1227727
-1227638
-1227676
-1227705
-1227854
-1227961
-1227942
-1227920
-1227984
-1227990
-1228063
-1228109
-1228048
-1228061
-1228085
-1228073
-1228286
-1228236
-1228371
-1228324
-1228296
-1227946
-1228255
-1228248
-1228428
-1228551
-1228531
-1228271
-1228421
-1228700
-1228774
-1228815
-1228794
-1228899
-1228797
-1228897
-1228729
-1228988
-1228910
-1228889
-1228865
-1228866
-1228940
-1229035
-1229118
-1229268
-1229101
-1229083
-1229189
-1229201
-1228872
-1229193
-1229305
-1229320
-1229331
-1229498
-1229614
-1229458
-1229442
-1229645
-1229733
-1230125
-1229776
-1229698
-1229781
-1229921
-1230066
-1229946
-1229887
-1230053
-1230086
-1230058
-1230088
-1230080
-1230057
-1230176
-1230296
-1230365
-1230360
-1230282
-1230424
-1230350
-1230368
-1230380
-1230424
-1230504
-1230465
-1230383
-1230468
-1230483
-1230544
-1230692
-1230622
-1230501
-1230626
-1230686
-1230492
-1230448
-1230082
-1230116
-1229842
-1229526
-1229429
-1229049
-1228790
-1228422
-1228058
-1227675
-1227310
-1226903
-1226555
-1226084
-1225670
-1225284
-1224976
-1224450
-1224166
-1223762
-1223398
-1223003
-1222529
-1222174
-1221698
-1221379
-1221001
-1220678
-1220325
-1220142
-1219737
-1219497
-1219291
-1219001
-1218930
-1218591
-1218439
-1218274
-1217879
-1217532
-1217758
-1217507
-1217612
-1218189
-1217905
-1217682
-1217546
-1217545
-1217571
-1217487
-1217509
-1217518
-1217562
-1217581
-1217662
-1217665
-1217668
-1217747
-1217703
-1217651
-1217677
-1217513
-1217810
-1217974
-1217832
-1217941
-1217855
-1218001
-1218076
-1217924
-1217864
-1217876
-1217918
-1217941
-1217924
-1217891
-1218096
-1218092
-1218084
-1218139
-1218135
-1218013
-1217963
-1218161
-1217947
-1217900
-1218733
-1218071
-1218018
-1217848
-1217801
-1217689
-1217632
-1217598
-1217514
-1217342
-1217375
-1217505
-1217302
-1218158
-1217362
-1216870
-1217003
-1216939
-1216903
-1216812
-1216834
-1216753
-1216776
-1216679
-1216559
-1216658
-1216554
-1216516
-1216461
-1216533
-1216493
-1216412
-1216404
-1216443
-1217236
-1216767
-1216584
-1216327
-1216438
-1216522
-1216666
-1217300
-1216846
-1216835
-1216652
-1216696
-1216750
-1216766
-1216937
-1216876
-1216987
-1216920
-1216997
-1217027
-1217061
-1217051
-1217075
-1217178
-1217121
-1216937
-1216925
-1216916
-1216954
-1216887
-1216821
-1216785
-1216757
-1216822
-1216748
-1216826
-1216805
-1216598
-1216705
-1216667
-1216505
-1216548
-1216512
-1216561
-1216493
-1216375
-1216341
-1216279
-1216285
-1216161
-1216106
-1216192
-1216251
-1216032
-1215954
-1215915
-1215848
-1215578
-1215526
-1216364
-1215684
-1216443
-1215949
-1215812
-1215749
-1215729
-1215798
-1215697
-1215610
-1215589
-1215588
-1215578
-1215431
-1215569
-1215662
-1215675
-1215673
-1215739
-1215703
-1215875
-1215768
-1215827
-1215833
-1215801
-1215931
-1215946
-1215998
-1215918
-1216058
-1216033
-1216125
-1216186
-1216194
-1216170
-1216056
-1216119
-1216243
-1216254
-1216190
-1216208
-1216244
-1216190
-1216388
-1216479
-1216417
-1216511
-1216559
-1216548
-1216684
-1216749
-1216577
-1216665
-1216783
-1216773
-1216778
-1216773
-1216865
-1216809
-1216873
-1216904
-1216887
-1216909
-1216924
-1217055
-1217066
-1217136
-1216774
-1216803
-1217125
-1217275
-1217386
-1217378
-1217460
-1217529
-1217467
-1217603
-1217602
-1217696
-1217650
-1217723
-1217657
-1217854
-1217931
-1217942
-1218041
-1217945
-1218896
-1218310
-1218165
-1218160
-1218116
-1218316
-1219037
-1218549
-1218515
-1218527
-1218542
-1218648
-1218635
-1218533
-1218569
-1218473
-1218540
-1218617
-1218582
-1218647
-1218608
-1218834
-1218771
-1218848
-1218949
-1218948
-1218882
-1220007
-1219324
-1219111
-1219150
-1219143
-1219107
-1219261
-1219327
-1219128
-1219167
-1219206
-1219201
-1219242
-1219211
-1219246
-1219348
-1219430
-1219345
-1219328
-1219451
-1219528
-1219549
-1219656
-1219606
-1219737
-1219726
-1220948
-1220061
-1219624
-1219739
-1219856
-1219955
-1219825
-1219886
-1219863
-1219978
-1220009
-1220095
-1220010
-1220049
-1220095
-1220088
-1220241
-1220169
-1220142
-1220208
-1220237
-1220246
-1220329
-1220414
-1220475
-1220527
-1220512
-1220575
-1220604
-1220341
-1220590
-1220781
-1220875
-1220498
-1220789
-1220976
-1221084
-1221080
-1221158
-1221176
-1221169
-1221271
-1221471
-1221463
-1221470
-1221505
-1221467
-1221560
-1221735
-1221543
-1221683
-1221807
-1221762
-1221787
-1221804
-1221866
-1221925
-1221991
-1221966
-1222021
-1221894
-1221775
-1221738
-1221788
-1221580
-1221408
-1221122
-1221061
-1220996
-1221040
-1220406
-1220055
-1219413
-1219409
-1218984
-1218662
-1218319
-1217810
-1217466
-1217111
-1216614
-1216269
-1215714
-1215348
-1214990
-1214459
-1214207
-1213753
-1213374
-1212941
-1212762
-1212476
-1212076
-1211782
-1211438
-1211306
-1210964
-1210663
-1210594
-1210301
-1210050
-1209909
-1209727
-1209633
-1209566
-1209403
-1209292
-1209274
-1209323
-1209263
-1209138
-1209126
-1209136
-1209076
-1209077
-1209095
-1209181
-1209193
-1209318
-1209347
-1209342
-1209284
-1209237
-1209330
-1209140
-1209063
-1209482
-1209485
-1209613
-1209302
-1209692
-1209641
-1209667
-1209774
-1209783
-1209734
-1209863
-1209933
-1209898
-1209864
-1209850
-1210001
-1209928
-1210060
-1210075
-1210048
-1209928
-1209930
-1209524
-1209727
-1209813
-1209836
-1209838
-1209872
-1209909
-1209891
-1209657
-1209664
-1209807
-1210606
-1210032
-1209795
-1209615
-1209484
-1209391
-1209379
-1209227
-1209159
-1209071
-1209088
-1209242
-1209100
-1208977
-1209074
-1208953
-1208966
-1208890
-1209035
-1209075
-1209010
-1209110
-1209113
-1209090
-1209188
-1209165
-1209199
-1209207
-1209283
-1209231
-1209421
-1209255
-1209316
-1209410
-1209570
-1209516
-1209598
-1209762
-1209723
-1209831
-1209687
-1209929
-1209805
-1209863
-1209891
-1209990
-1209965
-1209991
-1210131
-1210050
-1210143
-1210217
-1210218
-1210277
-1210300
-1210186
-1210137
-1210119
-1210017
-1209970
-1209912
-1209899
-1209807
-1209784
-1209754
-1209729
-1209690
-1209599
-1209609
-1209535
-1209556
-1209569
-1209505
-1209066
-1209445
-1209361
-1209422
-1209509
-1209492
-1209307
-1209305
-1209361
-1209321
-1209426
-1209210
-1209149
-1209147
-1209242
-1209135
-1209069
-1209022
-1209138
-1209073
-1209106
-1209135
-1209105
-1209120
-1209210
-1209259
-1209291
-1209351
-1209178
-1209158
-1210008
-1209459
-1209425
-1209385
-1209270
-1209292
-1209280
-1209364
-1209289
-1209397
-1209515
-1209444
-1209636
-1209459
-1210471
-1209791
-1209669
-1209605
-1209721
-1209833
-1209888
-1209756
-1209789
-1209804
-1210038
-1209995
-1210038
-1210215
-1210152
-1210326
-1210431
-1210365
-1210347
-1210466
-1210472
-1210397
-1210513
-1210476
-1210669
-1210807
-1210825
-1210830
-1210688
-1210635
-1210687
-1210796
-1210921
-1210813
-1210493
-1210904
-1210977
-1210980
-1211196
-1211101
-1211116
-1211159
-1211306
-1211275
-1211325
-1211322
-1211341
-1211489
-1211601
-1211532
-1211571
-1211213
-1211626
-1211622
-1211736
-1211762
-1211808
-1211876
-1211849
-1211941
-1211886
-1211983
-1212015
-1212127
-1212206
-1212105
-1212235
-1212225
-1212251
-1212369
-1212465
-1212399
-1212439
-1212407
-1212454
-1212465
-1212534
-1212598
-1212578
-1212587
-1212841
-1212748
-1212796
-1212899
-1212813
-1212826
-1212961
-1212861
-1212865
-1212961
-1213011
-1212967
-1213115
-1213032
-1213161
-1213170
-1213134
-1213055
-1213094
-1213198
-1213144
-1213201
-1213114
-1213214
-1213238
-1213281
-1213423
-1213413
-1213373
-1213405
-1213555
-1213485
-1213464
-1214181
-1213724
-1213712
-1213759
-1213836
-1213729
-1213799
-1213932
-1213841
-1213796
-1213835
-1213958
-1214079
-1214019
-1213975
-1214011
-1214188
-1214156
-1214124
-1214258
-1214169
-1214215
-1214349
-1214317
-1214335
-1214532
-1214454
-1214539
-1214491
-1214478
-1214543
-1214623
-1214776
-1214743
-1214771
-1214918
-1214852
-1215058
-1215150
-1215078
-1215029
-1215213
-1215193
-1215232
-1215369
-1215376
-1215402
-1215560
-1215662
-1215558
-1215556
-1215729
-1215801
-1215902
-1215792
-1215741
-1215794
-1215899
-1216028
-1215962
-1215985
-1216140
-1216055
-1216209
-1216210
-1216161
-1216149
-1216101
-1216134
-1216180
-1216193
-1216216
-1216148
-1216015
-1215928
-1215825
-1215657
-1215470
-1215175
-1214996
-1214612
-1214454
-1213880
-1213591
-1213351
-1212959
-1212612
-1212128
-1211825
-1211285
-1210879
-1210615
-1210160
-1209791
-1209333
-1209084
-1208765
-1208340
-1207885
-1207633
-1207201
-1206895
-1206742
-1206487
-1206145
-1205856
-1205619
-1205517
-1205347
-1205201
-1204805
-1204869
-1204715
-1204554
-1204540
-1204443
-1204371
-1204400
-1204231
-1204259
-1204234
-1204113
-1204140
-1204204
-1204185
-1204140
-1204362
-1204306
-1204311
-1204380
-1204429
-1204482
-1204616
-1204835
-1204804
-1204835
-1204879
-1204911
-1204877
-1205518
-1205181
-1204827
-1205121
-1205370
-1205255
-1205290
-1205468
-1205489
-1205423
-1205394
-1205483
-1205466
-1205620
-1205651
-1205530
-1205573
-1205763
-1205748
-1205747
-1205867
-1205851
-1205676
-1205786
-1205733
-1205793
-1205713
-1205602
-1205604
-1205673
-1205587
-1205551
-1205475
-1205506
-1205628
-1205604
-1205508
-1205411
-1205456
-1205528
-1205392
-1205424
-1205354
-1205302
-1205410
-1205400
-1205410
-1205529
-1205648
-1205607
-1205621
-1205588
-1205647
-1205846
-1205798
-1205808
-1205809
-1206006
-1206111
-1205999
-1206033
-1205994
-1206082
-1206212
-1206151
-1206281
-1206276
-1206110
-1206216
-1206278
-1206246
-1206366
-1206405
-1206314
-1206343
-1206192
-1206257
-1206236
-1206250
-1206235
-1206176
-1206072
-1206182
-1206060
-1205890
-1205873
-1205837
-1205772
-1205829
-1205742
-1205614
-1205672
-1205554
-1205487
-1205517
-1205416
-1205445
-1205470
-1205335
-1205250
-1205404
-1205357
-1205062
-1205334
-1205395
-1205227
-1205350
-1205280
-1205300
-1205194
-1205166
-1205187
-1205173
-1205253
-1205168
-1205370
-1205281
-1205264
-1205409
-1205385
-1205326
-1205411
-1205457
-1205437
-1205445
-1205580
-1205541
-1205642
-1205752
-1205780
-1205768
-1205820
-1205844
-1205901
-1205933
-1205879
-1205914
-1206049
-1206033
-1206081
-1206157
-1206107
-1206236
-1206227
-1206391
-1206273
-1206287
-1206408
-1206500
-1206463
-1206462
-1206588
-1206638
-1206677
-1206737
-1206703
-1206843
-1206872
-1206979
-1207118
-1207154
-1207075
-1207086
-1207221
-1207317
-1207195
-1207225
-1207406
-1207490
-1207533
-1207448
-1207538
-1207516
-1207752
-1207721
-1207718
-1207776
-1207835
-1209136
-1208214
-1208050
-1208071
-1208205
-1208137
-1208237
-1208210
-1207974
-1208179
-1207899
-1208243
-1208277
-1208428
-1208386
-1208526
-1208628
-1208677
-1209789
-1209079
-1208875
-1208811
-1208797
-1208900
-1208897
-1208859
-1208865
-1208918
-1208942
-1209048
-1209100
-1209172
-1209273
-1209191
-1209301
-1209304
-1209263
-1209302
-1209470
-1209512
-1209442
-1209485
-1209448
-1209532
-1209630
-1209557
-1209642
-1209621
-1209733
-1209880
-1209809
-1209853
-1209966
-1210033
-1210038
-1210029
-1210033
-1210162
-1210323
-1210335
-1210340
-1210442
-1210409
-1210458
-1210470
-1210421
-1210539
-1210592
-1210589
-1210731
-1210710
-1210823
-1210768
-1210821
-1210841
-1210879
-1211127
-1210997
-1211015
-1211230
-1211255
-1211209
-1211238
-1211285
-1211437
-1211357
-1211285
-1211392
-1212371
-1211842
-1211795
-1211755
-1211881
-1211937
-1211933
-1211969
-1211988
-1211933
-1211956
-1211996
-1212083
-1212256
-1212193
-1212301
-1212324
-1212373
-1212445
-1212388
-1212509
-1212476
-1212501
-1212513
-1212568
-1212575
-1212719
-1212410
-1212709
-1212303
-1212470
-1212360
-1212237
-1212129
-1211975
-1211816
-1211779
-1211395
-1211307
-1210931
-1210744
-1210450
-1209999
-1209723
-1209267
-1208966
-1208551
-1208140
-1207766
-1207351
-1207057
-1206615
-1206363
-1205893
-1205433
-1205017
-1204712
-1204310
-1204070
-1203717
-1203449
-1203194
-1202987
-1202618
-1202464
-1202259
-1201942
-1201712
-1201556
-1201355
-1201292
-1201155
-1201006
-1200946
-1200897
-1200945
-1200807
-1200810
-1200918
-1200759
-1200697
-1200807
-1200707
-1200722
-1200824
-1200768
-1200816
-1200810
-1200860
-1200858
-1200950
-1200971
-1201158
-1201220
-1201088
-1201316
-1201272
-1201398
-1201479
-1201550
-1201547
-1201570
-1201548
-1201663
-1201590
-1201764
-1201855
-1201865
-1201940
-1201892
-1201981
-1201936
-1201977
-1201974
-1201852
-1201980
-1201997
-1201868
-1201941
-1201921
-1202085
-1201972
-1201947
-1201963
-1201931
-1201868
-1201980
-1201889
-1201900
-1201874
-1201885
-1201971
-1201936
-1201760
-1201786
-1201674
-1201654
-1201572
-1201766
-1201501
-1201613
-1201570
-1201567
-1201555
-1201649
-1201520
-1201539
-1201447
-1201592
-1201538
-1201563
-1201607
-1201778
-1201734
-1201708
-1201853
-1201832
-1201890
-1201916
-1201858
-1201986
-1202136
-1202242
-1202329
-1202215
-1202364
-1202584
-1202423
-1202528
-1202543
-1202643
-1202721
-1202736
-1202658
-1202688
-1202897
-1202909
-1202824
-1202828
-1202814
-1202803
-1202715
-1202829
-1202992
-1202825
-1202930
-1203051
-1202978
-1202874
-1202879
-1202963
-1202870
-1202938
-1202766
-1202814
-1202868
-1202775
-1202656
-1202624
-1202601
-1202697
-1202676
-1202459
-1202372
-1202419
-1202331
-1202412
-1202347
-1202270
-1202253
-1202247
-1202167
-1202215
-1202212
-1202203
-1202280
-1202244
-1202240
-1202363
-1202328
-1202267
-1202216
-1202343
-1202327
-1202425
-1202361
-1202275
-1202318
-1202389
-1202423
-1202407
-1202595
-1202656
-1202549
-1202526
-1202569
-1202708
-1202827
-1202775
-1202859
-1202858
-1202847
-1202940
-1202955
-1202910
-1202954
-1202987
-1202960
-1203018
-1203167
-1203211
-1203282
-1203415
-1203353
-1203374
-1203458
-1203482
-1203565
-1203584
-1203785
-1203884
-1203897
-1203967
-1203890
-1203970
-1203995
-1204143
-1204209
-1204281
-1204301
-1204257
-1204407
-1204331
-1204295
-1204397
-1204443
-1204542
-1204471
-1204609
-1204829
-1204876
-1204933
-1204898
-1204971
-1205135
-1205236
-1205143
-1205220
-1205253
-1205292
-1205412
-1205439
-1205526
-1205670
-1205658
-1205701
-1205751
-1205810
-1205829
-1205841
-1205836
-1205978
-1205940
-1205917
-1205964
-1206058
-1206218
-1206179
-1206140
-1206204
-1206312
-1206424
-1206381
-1206451
-1206660
-1206626
-1206685
-1206783
-1206722
-1206919
-1206888
-1206844
-1206902
-1207049
-1207067
-1207135
-1207124
-1207059
-1207188
-1207197
-1207302
-1207423
-1207424
-1207352
-1207445
-1207453
-1207494
-1207567
-1207720
-1207708
-1207503
-1207720
-1207701
-1207775
-1207901
-1207873
-1207894
-1208031
-1208001
-1208056
-1207850
-1207967
-1208198
-1209365
-1208649
-1208363
-1208264
-1208339
-1208326
-1208474
-1208423
-1208368
-1208577
-1208515
-1208678
-1208687
-1208803
-1208764
-1208834
-1208936
-1209044
-1209136
-1209244
-1209221
-1209342
-1209351
-1209437
-1209466
-1209531
-1209530
-1209541
-1209715
-1209602
-1209670
-1209813
-1209848
-1209876
-1209853
-1210081
-1210022
-1210056
-1210121
-1210165
-1210151
-1210320
-1210333
-1210405
-1210520
-1210597
-1210681
-1210785
-1210791
-1210866
-1210850
-1210950
-1210918
-1210914
-1210971
-1211077
-1211102
-1211245
-1211267
-1211077
-1211335
-1211515
-1211696
-1211662
-1211643
-1211627
-1211792
-1211764
-1211461
-1211669
-1211786
-1211756
-1211830
-1211877
-1211720
-1211789
-1211775
-1211650
-1211443
-1211295
-1211041
-1210984
-1210827
-1210410
-1210270
-1209943
-1209642
-1209353
-1208973
-1208524
-1208113
-1207437
-1207255
-1206979
-1206495
-1205989
-1205731
-1205068
-1204883
-1204448
-1204019
-1203819
-1203416
-1203082
-1202790
-1202483
-1202262
-1202003
-1201582
-1201347
-1201168
-1200973
-1200759
-1200709
-1200405
-1200302
-1200236
-1200272
-1200093
-1200111
-1199961
-1199933
-1199924
-1199860
-1199812
-1199786
-1199872
-1199941
-1200049
-1199956
-1199938
-1199909
-1200134
-1200138
-1200166
-1200231
-1200297
-1200419
-1200447
-1200426
-1200528
-1200659
-1200768
-1200845
-1200832
-1200872
-1201067
-1201151
-1201111
-1201151
-1201200
-1201323
-1201280
-1201342
-1201283
-1201413
-1201382
-1201391
-1201446
-1201509
-1201562
-1201549
-1201515
-1201497
-1201598
-1201511
-1201528
-1201672
-1201559
-1201587
-1201464
-1201678
-1201610
-1201698
-1201694
-1201631
-1201613
-1201663
-1201552
-1201479
-1201601
-1201586
-1201560
-1201461
-1201447
-1201324
-1201262
-1201357
-1201355
-1201226
-1201314
-1201196
-1201217
-1201272
-1201206
-1201312
-1201502
-1201552
-1201442
-1201577
-1201618
-1201717
-1201757
-1201791
-1201884
-1202076
-1202034
-1202031
-1202191
-1202284
-1202394
-1202422
-1202450
-1202426
-1202399
-1202573
-1202531
-1202667
-1202619
-1202551
-1202743
-1202668
-1202729
-1202780
-1202761
-1202756
-1202654
-1202801
-1202728
-1202891
-1202848
-1202899
-1202721
-1202736
-1202759
-1202681
-1202672
-1202701
-1202696
-1202621
-1202690
-1202674
-1202707
-1202555
-1202610
-1202466
-1202570
-1202422
-1202328
-1202231
-1202262
-1202336
-1202346
-1202463
-1202398
-1202375
-1202422
-1202282
-1202219
-1202267
-1202221
-1202365
-1202398
-1202328
-1202407
-1202380
-1202411
-1202357
-1202440
-1202462
-1202650
-1202584
-1202562
-1202609
-1202521
-1202730
-1202624
-1202597
-1202560
-1202764
-1202662
-1202674
-1202792
-1202811
-1202883
-1202803
-1202861
-1202699
-1202808
-1202975
-1203048
-1203159
-1203066
-1203181
-1203342
-1203459
-1203456
-1203477
-1203494
-1203520
-1203636
-1203729
-1203713
-1203798
-1203705
-1203879
-1203949
-1203974
-1204057
-1204125
-1204136
-1204110
-1204269
-1204223
-1204254
-1204369
-1204349
-1204605
-1204305
-1204533
-1204736
-1204820
-1204788
-1204766
-1205040
-1204958
-1205012
-1205041
-1205258
-1205121
-1205271
-1205433
-1205535
-1205561
-1205530
-1205586
-1205581
-1205570
-1205747
-1205798
-1205556
-1205871
-1205843
-1205856
-1206019
-1206053
-1206123
-1206196
-1206227
-1206291
-1206218
-1206354
-1206352
-1206499
-1206456
-1206642
-1206724
-1206830
-1206689
-1206935
-1206964
-1206982
-1207025
-1207043
-1208112
-1207559
-1207401
-1207232
-1207281
-1207260
-1207413
-1207466
-1207415
-1207432
-1207472
-1207543
-1207461
-1207611
-1207644
-1207734
-1207708
-1207779
-1207903
-1207942
-1207961
-1207877
-1207971
-1208003
-1207999
-1208053
-1208170
-1208229
-1208345
-1208289
-1208274
-1208368
-1208384
-1208435
-1208520
-1208628
-1208665
-1208656
-1208644
-1208641
-1208663
-1208850
-1208869
-1208921
-1208889
-1209083
-1209127
-1209075
-1209147
-1209161
-1209240
-1209379
-1209408
-1209352
-1209506
-1209515
-1209553
-1209603
-1209635
-1209647
-1209660
-1209817
-1209954
-1209991
-1209929
-1209963
-1210097
-1210250
-1210206
-1210316
-1210309
-1210828
-1210667
-1210625
-1210624
-1210575
-1210703
-1210728
-1210763
-1210845
-1210970
-1210900
-1210528
-1210857
-1211131
-1211107
-1211154
-1211171
-1211332
-1211447
-1211338
-1211448
-1211552
-1211531
-1211570
-1211646
-1211598
-1211834
-1211812
-1211919
-1211937
-1211949
-1211988
-1212094
-1211986
-1212179
-1212040
-1211980
-1211966
-1211906
-1211889
-1211763
-1211660
-1211382
-1211176
-1210931
-1210559
-1210264
-1210067
-1209709
-1209343
-1209066
-1208640
-1208462
-1208098
-1207632
-1207140
-1206910
-1206484
-1206011
-1205620
-1205253
-1204595
-1204570
-1204238
-1204023
-1203554
-1203317
-1203025
-1202710
-1202544
-1202457
-1202207
-1201979
-1201713
-1201588
-1201443
-1201252
-1201140
-1201115
-1201006
-1201034
-1200965
-1200824
-1200798
-1200759
-1200693
-1200742
-1200710
-1200773
-1200935
-1200903
-1200892
-1201103
-1201115
-1201104
-1201184
-1201291
-1201315
-1201524
-1201508
-1201536
-1201605
-1201707
-1201771
-1201765
-1201900
-1202176
-1202158
-1202060
-1202204
-1202190
-1202311
-1202409
-1202391
-1202470
-1202517
-1202520
-1202631
-1202630
-1202735
-1202987
-1203100
-1203082
-1203070
-1203095
-1203020
-1203046
-1203158
-1203241
-1203291
-1203259
-1203262
-1203210
-1203174
-1203070
-1203156
-1203036
-1202997
-1203084
-1204006
-1203423
-1203069
-1203053
-1203081
-1203095
-1203151
-1203205
-1203191
-1203203
-1203249
-1203326
-1203167
-1203361
-1203366
-1203359
-1203429
-1203412
-1203583
-1203514
-1203539
-1203751
-1203734
-1203709
-1203652
-1203851
-1203940
-1204043
-1204089
-1203987
-1204109
-1204182
-1204250
-1204407
-1204290
-1204342
-1204266
-1204341
-1204367
-1204344
-1204453
-1204592
-1204606
-1204650
-1204515
-1204605
-1204432
-1204512
-1204468
-1204580
-1204409
-1204426
-1204479
-1204366
-1204452
-1204417
-1204176
-1204291
-1204296
-1204308
-1204245
-1203940
-1204061
-1204170
-1204059
-1204188
-1204112
-1204114
-1204142
-1203915
-1203905
-1203814
-1204089
-1203942
-1204018
-1203987
-1203942
-1203978
-1204046
-1203956
-1204026
-1203907
-1203972
-1203994
-1204100
-1204090
-1204069
-1204119
-1204176
-1204147
-1204263
-1204300
-1204308
-1204504
-1204420
-1204458
-1204506
-1204571
-1204591
-1204597
-1204658
-1204650
-1204729
-1204906
-1204886
-1204877
-1204984
-1204953
-1205095
-1205073
-1205247
-1205233
-1205321
-1206124
-1205653
-1205559
-1205619
-1205627
-1205690
-1205550
-1205639
-1205366
-1205712
-1205827
-1205818
-1205878
-1206005
-1206018
-1206086
-1206268
-1206178
-1206388
-1206275
-1206504
-1206478
-1206538
-1206655
-1206737
-1206741
-1206774
-1206848
-1206996
-1207103
-1207080
-1207244
-1207287
-1207266
-1207393
-1207402
-1207304
-1207398
-1207432
-1207519
-1207663
-1207657
-1207729
-1207718
-1207858
-1207894
-1207950
-1208103
-1208054
-1208216
-1208180
-1208324
-1208260
-1208300
-1208468
-1208551
-1208515
-1208607
-1208724
-1208908
-1208897
-1208922
-1208832
-1208895
-1208904
-1208947
-1208961
-1209055
-1208705
-1208980
-1209118
-1209106
-1209219
-1209273
-1209277
-1209380
-1209519
-1209510
-1210150
-1209739
-1209628
-1209603
-1209665
-1209893
-1209927
-1209881
-1209964
-1209931
-1209896
-1210136
-1210137
-1210118
-1210253
-1210322
-1210433
-1210477
-1210382
-1210485
-1210470
-1210641
-1210615
-1210632
-1210796
-1210811
-1210854
-1210956
-1210858
-1210973
-1211050
-1211124
-1211063
-1211198
-1211175
-1211249
-1211353
-1211298
-1211343
-1211519
-1211625
-1211525
-1211523
-1211594
-1211659
-1211770
-1211865
-1211893
-1211821
-1211855
-1212030
-1212070
-1212065
-1212230
-1212180
-1212263
-1212440
-1212418
-1212389
-1212475
-1212622
-1212683
-1212594
-1212627
-1212685
-1212870
-1212922
-1212878
-1212866
-1213019
-1213060
-1213252
-1213311
-1213315
-1213041
-1213333
-1213366
-1213489
-1213471
-1213380
-1213308
-1213456
-1213384
-1213331
-1213068
-1212841
-1212825
-1212758
-1212445
-1212284
-1212038
-1211789
-1211552
-1211251
-1211147
-1209005
-1208602
-1208233
-1207761
-1207464
-1207121
-1206647
-1206360
-1205897
-1205711
-1205331
-1205056
-1204801
-1204625
-1204244
-1203989
-1203669
-1203461
-1203217
-1202978
-1202787
-1202661
-1202612
-1202505
-1202351
-1202216
-1202100
-1201890
-1201873
-1201904
-1201786
-1201746
-1202986
-1202300
-1201996
-1201947
-1201965
-1201972
-1202065
-1202128
-1202087
-1202063
-1202258
-1202370
-1202334
-1202521
-1202575
-1202569
-1202709
-1202757
-1202730
-1202742
-1203040
-1203132
-1203096
-1203136
-1203173
-1203408
-1203326
-1203427
-1203456
-1203392
-1203492
-1203511
-1203626
-1203701
-1203699
-1203716
-1203725
-1203884
-1203891
-1203804
-1203914
-1204022
-1203977
-1204318
-1204078
-1204028
-1204114
-1204004
-1204168
-1204176
-1204017
-1204025
-1204223
-1204114
-1204169
-1204190
-1204172
-1203992
-1203995
-1203955
-1203979
-1204018
-1203993
-1203910
-1203853
-1203842
-1204008
-1204016
-1203985
-1204056
-1204105
-1204096
-1204050
-1204165
-1204241
-1204173
-1204380
-1204366
-1204302
-1204303
-1204489
-1204615
-1204710
-1204517
-1204729
-1204709
-1204766
-1204803
-1204912
-1204891
-1204942
-1205114
-1205181
-1205199
-1205235
-1205530
-1205231
-1205230
-1205252
-1205256
-1205298
-1205337
-1205444
-1205343
-1205198
-1204894
-1205226
-1205218
-1205141
-1205088
-1205209
-1205212
-1205266
-1205213
-1205253
-1205243
-1205165
-1205039
-1204916
-1204980
-1204917
-1205023
-1205076
-1204941
-1204874
-1204826
-1204737
-1204926
-1204821
-1204922
-1204822
-1204939
-1204856
-1204993
-1205011
-1205001
-1204845
-1204903
-1204840
-1204847
-1204974
-1204965
-1204879
-1204970
-1204977
-1204903
-1204939
-1205002
-1204801
-1204789
-1204828
-1204890
-1205752
-1205146
-1204999
-1205067
-1205031
-1205299
-1205280
-1205393
-1205337
-1205535
-1205629
-1205622
-1205614
-1205613
-1205397
-1205725
-1205810
-1205875
-1205789
-1205817
-1205855
-1205832
-1205873
-1205934
-1206154
-1206134
-1206159
-1206325
-1206257
-1206509
-1206523
-1206408
-1206428
-1206521
-1206691
-1206775
-1206783
-1206763
-1206954
-1207090
-1207125
-1207137
-1207294
-1207252
-1207243
-1207250
-1207364
-1207377
-1207367
-1207531
-1207595
-1207574
-1207617
-1207691
-1207757
-1207801
-1207740
-1207865
-1207967
-1208026
-1207982
-1208168
-1208130
-1208249
-1208136
-1208366
-1208376
-1208438
-1208037
-1208362
-1208477
-1208676
-1208753
-1208776
-1208764
-1208845
-1208925
-1208958
-1208995
-1208988
-1209016
-1209037
-1209028
-1209108
-1209268
-1209349
-1209401
-1209319
-1209398
-1209353
-1209541
-1209617
-1209530
-1209653
-1209780
-1210316
-1209898
-1209721
-1209878
-1209884
-1209967
-1210001
-1210064
-1210124
-1210303
-1210518
-1210472
-1210234
-1210256
-1211290
-1210774
-1210661
-1210531
-1210686
-1210639
-1210649
-1210807
-1210895
-1210789
-1210858
-1210838
-1210945
-1210961
-1211071
-1211020
-1211187
-1211236
-1211288
-1211331
-1211394
-1211332
-1211426
-1211529
-1211596
-1211688
-1211499
-1211710
-1211696
-1211683
-1211810
-1211825
-1211951
-1212020
-1211976
-1212024
-1212060
-1212177
-1212146
-1212162
-1212280
-1212369
-1212411
-1212364
-1212478
-1212495
-1212634
-1212610
-1212608
-1212702
-1212627
-1212635
-1212742
-1212387
-1212422
-1212396
-1212514
-1212346
-1212184
-1212056
-1211885
-1211770
-1211564
-1211421
-1210996
-1210792
-1210615
-1209831
-1209795
-1209416
-1209082
-1208845
-1208538
-1207943
-1207607
-1207215
-1206877
-1206526
-1206186
-1205765
-1205467
-1205118
-1204768
-1204416
-1204119
-1203835
-1203779
-1203461
-1203169
-1202868
-1202786
-1202633
-1202375
-1202284
-1202087
-1201978
-1202007
-1201845
-1201890
-1201888
-1201767
-1201750
-1201614
-1201622
-1201521
-1201738
-1201491
-1202733
-1201999
-1201944
-1201731
-1201861
-1202009
-1201908
-1201999
-1202031
-1202079
-1202276
-1202293
-1202414
-1202640
-1202748
-1202828
-1202774
-1202872
-1202923
-1202976
-1203040
-1203211
-1203250
-1203289
-1203436
-1203525
-1203567
-1203503
-1203581
-1203636
-1203607
-1203728
-1203681
-1203754
-1203800
-1203734
-1203694
-1203718
-1203801
-1203828
-1203859
-1203871
-1203992
-1204049
-1203923
-1203875
-1203934
-1204002
-1203952
-1203868
-1203974
-1204000
-1204056
-1204043
-1204001
-1204008
-1204117
-1204793
-1204205
-1203993
-1204036
-1204056
-1204059
-1204158
-1204229
-1204080
-1204274
-1204033
-1204122
-1204240
-1204357
-1204527
-1204565
-1204494
-1204743
-1204688
-1204896
-1204961
-1204967
-1205017
-1205059
-1205049
-1205222
-1205126
-1205181
-1205218
-1205095
-1205331
-1205188
-1205177
-1205187
-1205327
-1205236
-1205221
-1205163
-1205125
-1205109
-1205337
-1205182
-1205235
-1205213
-1205247
-1205220
-1205093
-1205126
-1205024
-1204979
-1205119
-1204911
-1204909
-1204924
-1204873
-1204892
-1204847
-1204755
-1204744
-1204648
-1204376
-1204544
-1204220
-1204502
-1204473
-1204691
-1204534
-1204743
-1204538
-1204627
-1204637
-1204612
-1204706
-1204720
-1204655
-1204647
-1204788
-1204612
-1204578
-1204808
-1204732
-1204697
-1204858
-1204590
-1204830
-1204882
-1204834
-1205032
-1204904
-1204914
-1204992
-1205181
-1205195
-1205234
-1205301
-1205400
-1205301
-1205336
-1205412
-1205577
-1205553
-1205540
-1205577
-1205650
-1205911
-1205866
-1205814
-1205847
-1205957
-1206008
-1206126
-1206092
-1206175
-1206146
-1206291
-1206447
-1206517
-1206443
-1206600
-1206736
-1206816
-1206712
-1206688
-1206694
-1206921
-1207056
-1206913
-1207006
-1206973
-1207115
-1207142
-1207363
-1207319
-1207282
-1207371
-1207472
-1207508
-1207300
-1207458
-1207623
-1207641
-1207686
-1207643
-1207697
-1207893
-1208027
-1208751
-1208203
-1208018
-1208067
-1208096
-1208224
-1208283
-1208337
-1208458
-1208463
-1208602
-1208558
-1208555
-1208579
-1208754
-1208845
-1208890
-1208852
-1209069
-1209124
-1209084
-1209085
-1209165
-1209124
-1209120
-1209152
-1209328
-1209394
-1209401
-1209534
-1209605
-1209626
-1209597
-1209609
-1209691
-1209687
-1209825
-1209960
-1210095
-1210082
-1210112
-1210046
-1210199
-1210301
-1210379
-1210517
-1210453
-1210512
-1210562
-1210770
-1210781
-1210766
-1210892
-1210848
-1210959
-1211015
-1211051
-1211126
-1211064
-1211201
-1211239
-1211223
-1211348
-1211468
-1211491
-1211458
-1211530
-1211490
-1211610
-1211685
-1211636
-1211671
-1211744
-1211749
-1211762
-1211910
-1211939
-1211936
-1211956
-1211944
-1212082
-1212848
-1213060
-1212398
-1212075
-1212135
-1212013
-1211976
-1212036
-1211973
-1211946
-1211808
-1211518
-1211527
-1211266
-1210965
-1210649
-1210383
-1209994
-1209750
-1209557
-1209086
-1208735
-1208427
-1208051
-1207711
-1207223
-1206973
-1206604
-1206148
-1205796
-1205266
-1204964
-1204606
-1204342
-1204052
-1203526
-1203301
-1203164
-1202851
-1202574
-1202241
-1201957
-1201908
-1201665
-1201521
-1201292
-1201082
-1200863
-1200737
-1200665
-1200614
-1200669
-1200565
-1200574
-1200441
-1200347
-1200457
-1200323
-1200309
-1200508
-1200477
-1200432
-1200545
-1200611
-1200486
-1200479
-1200585
-1200675
-1200805
-1200921
-1200472
-1200648
-1201592
-1201077
-1201024
-1201135
-1201182
-1201400
-1201360
-1201502
-1201428
-1201500
-1201615
-1201704
-1201613
-1201630
-1201752
-1201845
-1201838
-1201919
-1201789
-1201888
-1201994
-1202021
-1201784
-1201984
-1202079
-1202096
-1202021
-1202133
-1202004
-1202074
-1202143
-1202160
-1202132
-1202010
-1202147
-1202123
-1201984
-1202059
-1202048
-1202050
-1201951
-1201312
-1201905
-1201807
-1201902
-1201935
-1201820
-1201900
-1201930
-1201938
-1201826
-1201946
-1202073
-1201910
-1201869
-1202065
-1201980
-1202176
-1202091
-1202311
-1202219
-1202211
-1202426
-1202534
-1202525
-1202725
-1202774
-1202689
-1202635
-1202760
-1202866
-1202965
-1203082
-1203059
-1203017
-1203131
-1203056
-1203222
-1203126
-1203191
-1203140
-1203159
-1203209
-1203136
-1203214
-1203401
-1203394
-1203308
-1203396
-1203313
-1204334
-1203552
-1203248
-1203218
-1203142
-1203260
-1203100
-1203150
-1203062
-1203174
-1202977
-1202960
-1202955
-1202796
-1202770
-1202724
-1202718
-1202684
-1202693
-1202740
-1202688
-1202625
-1202705
-1202600
-1202535
-1202670
-1202679
-1202642
-1202754
-1202648
-1202692
-1202310
-1202644
-1202592
-1202724
-1202773
-1202687
-1202703
-1202755
-1202719
-1202858
-1202839
-1202769
-1202942
-1202915
-1203005
-1203146
-1202999
-1203051
-1202953
-1203210
-1203203
-1203198
-1203173
-1202900
-1203284
-1203409
-1203113
-1203430
-1203440
-1203632
-1203579
-1203611
-1203714
-1203798
-1203908
-1203969
-1204045
-1204006
-1203976
-1204057
-1204182
-1203937
-1204042
-1204218
-1204331
-1204465
-1204200
-1204408
-1204530
-1204709
-1204639
-1204795
-1204820
-1204717
-1204868
-1204955
-1205046
-1205022
-1205209
-1205197
-1205267
-1205364
-1205394
-1205437
-1205519
-1205582
-1205496
-1205614
-1205728
-1205790
-1205903
-1205883
-1205847
-1206014
-1206024
-1206029
-1206099
-1206207
-1206315
-1206330
-1206221
-1206379
-1206373
-1206572
-1206439
-1206564
-1206642
-1206643
-1206834
-1206753
-1206763
-1206873
-1206672
-1206989
-1206954
-1206973
-1206999
-1207155
-1207171
-1207322
-1207018
-1207340
-1207277
-1207482
-1207551
-1207396
-1207514
-1207535
-1207626
-1207808
-1207795
-1207889
-1207930
-1208061
-1208074
-1208140
-1208122
-1208158
-1208306
-1208303
-1208429
-1208494
-1208446
-1208643
-1208709
-1208589
-1208562
-1208674
-1208789
-1208820
-1208810
-1208789
-1208967
-1208977
-1209078
-1209125
-1209215
-1209204
-1209341
-1209436
-1209298
-1209402
-1209298
-1209478
-1209499
-1209641
-1209601
-1209582
-1209729
-1209770
-1209805
-1209788
-1209946
-1209854
-1209958
-1209875
-1209880
-1209836
-1209833
-1209660
-1209716
-1209597
-1209448
-1209153
-1208995
-1208711
-1208411
-1208178
-1207828
-1207502
-1207238
-1206698
-1206394
-1205999
-1205627
-1205233
-1204825
-1204412
-1204044
-1203709
-1203351
-1202961
-1202665
-1202220
-1201952
-1201468
-1201105
-1200889
-1200673
-1200388
-1199981
-1199723
-1199469
-1199255
-1199125
-1199034
-1198888
-1198712
-1198429
-1198242
-1198220
-1198182
-1197996
-1197861
-1197972
-1197939
-1197998
-1197855
-1197911
-1197906
-1197894
-1198010
-1197903
-1197933
-1198001
-1198107
-1198187
-1198083
-1198160
-1198201
-1198253
-1198234
-1198112
-1198273
-1198385
-1198390
-1198396
-1198423
-1198545
-1198585
-1198737
-1198788
-1198775
-1198804
-1198817
-1198863
-1198902
-1199055
-1199022
-1199090
-1199080
-1199094
-1199218
-1199084
-1199198
-1199309
-1199354
-1199372
-1199272
-1199302
-1199295
-1199286
-1199281
-1199393
-1199423
-1199354
-1199316
-1199304
-1199179
-1199351
-1199414
-1199252
-1199362
-1199228
-1199201
-1199196
-1199248
-1199204
-1199084
-1199146
-1199165
-1199222
-1199245
-1199204
-1199227
-1199197
-1199171
-1199304
-1199244
-1199385
-1199453
-1199525
-1199422
-1199570
-1199540
-1199628
-1199684
-1199693
-1199605
-1199699
-1199681
-1199850
-1199889
-1199763
-1199962
-1199807
-1200097
-1200150
-1200126
-1200075
-1200105
-1200203
-1200164
-1200137
-1200235
-1200310
-1200450
-1200407
-1200377
-1200246
-1200317
-1200432
-1200369
-1200393
-1200230
-1200272
-1200361
-1200395
-1200352
-1200220
-1200215
-1200035
-1200013
-1200081
-1200041
-1200130
-1200178
-1200144
-1200053
-1199688
-1199813
-1199882
-1199918
-1199904
-1199811
-1199720
-1199791
-1199738
-1199754
-1199683
-1199750
-1199883
-1199926
-1199913
-1199965
-1199977
-1199878
-1199871
-1199949
-1199897
-1199914
-1199866
-1199904
-1199870
-1199934
-1199943
-1200049
-1200022
-1200016
-1199950
-1199753
-1200068
-1200136
-1200178
-1200155
-1199962
-1200205
-1200200
-1200336
-1200395
-1200418
-1200558
-1200583
-1200531
-1200535
-1200582
-1200685
-1200770
-1200875
-1200811
-1200853
-1201036
-1201080
-1200998
-1201083
-1201244
-1201323
-1201228
-1201370
-1201414
-1201548
-1201342
-1202283
-1201815
-1201798
-1201641
-1201748
-1201790
-1201857
-1201912
-1201909
-1201995
-1202118
-1202074
-1202184
-1202166
-1202312
-1202226
-1202356
-1202501
-1202406
-1202455
-1202436
-1202569
-1202668
-1202703
-1202738
-1202745
-1202947
-1202955
-1203069
-1203035
-1203150
-1203185
-1203213
-1203291
-1203338
-1203371
-1203852
-1203606
-1203644
-1203742
-1203749
-1203591
-1203650
-1203651
-1203806
-1203814
-1203900
-1203901
-1203961
-1203951
-1203964
-1203999
-1204035
-1204033
-1204096
-1204204
-1204192
-1204342
-1204380
-1204309
-1204388
-1204622
-1204547
-1205189
-1204578
-1204743
-1204856
-1204908
-1204984
-1204954
-1204955
-1204931
-1204878
-1205045
-1205188
-1205291
-1205305
-1205240
-1205207
-1205326
-1205445
-1205410
-1205429
-1205459
-1205609
-1205611
-1205482
-1205364
-1205705
-1205916
-1205852
-1205900
-1206047
-1206021
-1206142
-1206217
-1206230
-1206210
-1206387
-1206402
-1206517
-1206427
-1206568
-1206695
-1206749
-1206878
-1206781
-1206695
-1206832
-1206852
-1206882
-1207009
-1207052
-1207056
-1207243
-1207236
-1207179
-1207111
-1207243
-1207337
-1207449
-1207347
-1207295
-1207405
-1207454
-1207431
-1207378
-1207586
-1207578
-1207740
-1207686
-1207554
-1207636
-1207502
-1207325
-1207315
-1207282
-1207036
-1206768
-1206615
-1206521
-1206352
-1206039
-1205591
-1205475
-1205162
-1204751
-1204340
-1203884
-1203489
-1203261
-1202902
-1202438
-1201852
-1201655
-1201350
-1201016
-1200528
-1200145
-1199710
-1199293
-1198891
-1198635
-1198269
-1198066
-1197779
-1197484
-1197348
-1196962
-1196921
-1196719
-1196437
-1196218
-1196094
-1196142
-1195880
-1195766
-1195663
-1195659
-1195684
-1195622
-1195530
-1195502
-1195375
-1195326
-1195391
-1195427
-1195504
-1195420
-1195490
-1195421
-1195631
-1195692
-1195718
-1195682
-1195783
-1195775
-1195904
-1195873
-1196088
-1196033
-1196057
-1196164
-1196204
-1196484
-1196543
-1196465
-1196616
-1196650
-1196667
-1196696
-1196659
-1196673
-1196700
-1196861
-1196962
-1197068
-1197042
-1196949
-1196986
-1196959
-1196923
-1197077
-1197005
-1197078
-1197077
-1197088
-1197078
-1197164
-1197209
-1197203
-1197149
-1197208
-1197054
-1197269
-1197134
-1197168
-1197114
-1196961
-1196949
-1197059
-1197024
-1196922
-1196923
-1197047
-1197032
-1196888
-1196968
-1196958
-1197060
-1197168
-1197045
-1197027
-1197166
-1197272
-1197214
-1197301
-1197237
-1197235
-1197403
-1197546
-1197472
-1197403
-1197561
-1197690
-1197830
-1197847
-1197860
-1197893
-1197969
-1197972
-1197983
-1197950
-1197941
-1198132
-1198283
-1198176
-1198173
-1198160
-1198080
-1198155
-1198191
-1198251
-1198902
-1198346
-1198143
-1198080
-1198031
-1198022
-1198029
-1198020
-1198016
-1197665
-1197633
-1197596
-1197562
-1197659
-1197482
-1197522
-1197283
-1197395
-1197384
-1197180
-1197258
-1197221
-1197151
-1197065
-1197009
-1197150
-1197168
-1197083
-1196979
-1197015
-1197142
-1197021
-1197054
-1197032
-1197096
-1197988
-1197289
-1197192
-1197222
-1197233
-1197237
-1197318
-1197346
-1197339
-1197360
-1197459
-1197443
-1197454
-1197417
-1197483
-1197439
-1197539
-1197558
-1197556
-1197577
-1197669
-1197528
-1197612
-1197624
-1197679
-1197646
-1197685
-1197780
-1197777
-1197938
-1197906
-1197749
-1198029
-1198167
-1198190
-1198182
-1198152
-1198425
-1198345
-1198283
-1198357
-1198363
-1198584
-1198527
-1198611
-1198668
-1198649
-1198874
-1199006
-1199019
-1199013
-1199128
-1199152
-1199184
-1199138
-1199199
-1199297
-1199334
-1199433
-1199361
-1199329
-1199382
-1199894
-1199779
-1199586
-1200429
-1199947
-1199879
-1199633
-1199937
-1199983
-1199989
-1200081
-1200188
-1200225
-1200245
-1200317
-1200356
-1200393
-1200371
-1200440
-1200340
-1200536
-1200453
-1200463
-1200551
-1200681
-1200714
-1200740
-1200726
-1200703
-1200800
-1200921
-1201013
-1200877
-1201084
-1201078
-1201187
-1201236
-1201247
-1201204
-1201319
-1201381
-1201494
-1201537
-1201598
-1201473
-1201546
-1201582
-1201607
-1201673
-1201677
-1201783
-1201887
-1201836
-1201929
-1201809
-1202021
-1202044
-1201933
-1202088
-1201993
-1202095
-1202174
-1202225
-1202262
-1202400
-1202356
-1202294
-1202462
-1202599
-1202663
-1202627
-1202774
-1202790
-1202931
-1202955
-1203000
-1203119
-1203175
-1203298
-1203339
-1203311
-1203460
-1203268
-1203402
-1203347
-1203452
-1203487
-1203404
-1203545
-1203567
-1203666
-1203623
-1203659
-1203668
-1203709
-1203649
-1203886
-1203691
-1203858
-1203807
-1203961
-1203932
-1203921
-1203994
-1203810
-1203836
-1203905
-1203721
-1203917
-1203701
-1203642
-1203509
-1203362
-1203021
-1202786
-1202499
-1202202
-1201917
-1201400
-1201077
-1200723
-1200268
-1199911
-1199439
-1198612
-1199469
-1198525
-1197951
-1197563
-1197195
-1196757
-1196364
-1196000
-1195658
-1195291
-1195137
-1194808
-1194556
-1194248
-1193855
-1193641
-1193507
-1193322
-1193120
-1192764
-1192691
-1192522
-1192472
-1192244
-1192208
-1192228
-1192022
-1192089
-1192067
-1191936
-1191890
-1192028
-1191859
-1191847
-1191796
-1191834
-1191983
-1191889
-1191886
-1191845
-1192089
-1192169
-1192107
-1192162
-1192158
-1192220
-1192351
-1192338
-1192520
-1193049
-1192806
-1192934
-1192979
-1193013
-1193029
-1193051
-1193149
-1193133
-1193163
-1193159
-1193154
-1193131
-1193233
-1193364
-1193397
-1193504
-1193366
-1193301
-1193476
-1193380
-1193732
-1193647
-1193342
-1193400
-1193448
-1193438
-1193497
-1193419
-1193518
-1193403
-1193462
-1193481
-1193534
-1193460
-1193349
-1193400
-1193385
-1193364
-1193332
-1193375
-1193393
-1193481
-1193396
-1193393
-1193427
-1193473
-1193585
-1193403
-1193453
-1193516
-1193558
-1193624
-1193739
-1193680
-1193794
-1193927
-1193975
-1193946
-1194126
-1194039
-1194128
-1194177
-1194313
-1194315
-1194502
-1194483
-1194426
-1194533
-1194553
-1194538
-1194668
-1194763
-1194677
-1194743
-1194682
-1194710
-1194757
-1194796
-1194751
-1194665
-1194765
-1194665
-1194546
-1194707
-1194704
-1194532
-1194703
-1194696
-1194579
-1194456
-1194559
-1194562
-1194342
-1194275
-1194357
-1194330
-1194345
-1194227
-1194197
-1194195
-1194178
-1194073
-1193878
-1194158
-1194030
-1194130
-1193937
-1193842
-1193881
-1193744
-1193835
-1193872
-1193745
-1193902
-1193852
-1193822
-1193929
-1193803
-1193868
-1193852
-1193957
-1193946
-1193825
-1193854
-1193986
-1193951
-1194020
-1194638
-1194346
-1194216
-1194099
-1194132
-1194139
-1194392
-1194242
-1194321
-1194439
-1194435
-1194390
-1194498
-1194563
-1194534
-1194529
-1194522
-1194559
-1194673
-1194876
-1194799
-1195035
-1194953
-1195091
-1195185
-1195125
-1195130
-1195268
-1195385
-1195510
-1195538
-1195441
-1195553
-1195243
-1195579
-1195543
-1195618
-1195633
-1195850
-1196007
-1196002
-1196053
-1196127
-1196159
-1196223
-1196268
-1196363
-1196397
-1196378
-1196552
-1196554
-1196680
-1196657
-1196766
-1196841
-1196768
-1196884
-1197004
-1196995
-1197089
-1197134
-1197217
-1197182
-1197278
-1197364
-1197447
-1197243
-1197511
-1197478
-1197582
-1197634
-1197658
-1197705
-1197791
-1197872
-1197882
-1198001
-1197885
-1198183
-1198203
-1198091
-1198148
-1198149
-1198224
-1198206
-1198292
-1198393
-1198472
-1198570
-1198702
-1198691
-1198758
-1198753
-1198792
-1198848
-1198961
-1199053
-1199013
-1199162
-1199131
-1199143
-1199250
-1199284
-1199313
-1199332
-1199341
-1199394
-1199372
-1199432
-1199520
-1199540
-1199539
-1199582
-1199763
-1199837
-1199905
-1199838
-1200052
-1200025
-1200041
-1200008
-1200082
-1200081
-1200130
-1200343
-1200298
-1200300
-1200312
-1200549
-1200493
-1200571
-1200605
-1200654
-1200625
-1200818
-1200763
-1200734
-1200867
-1200966
-1201141
-1201235
-1201275
-1201173
-1201191
-1201372
-1201378
-1201503
-1201392
-1201482
-1201526
-1201672
-1201569
-1201680
-1201565
-1201672
-1201747
-1201818
-1201758
-1201836
-1201766
-1201680
-1201810
-1201787
-1201677
-1201654
-1201484
-1201505
-1201342
-1201217
-1201125
-1200917
-1200664
-1200497
-1200120
-1199806
-1199607
-1199320
-1198783
-1198470
-1198044
-1197750
-1197486
-1196979
-1196589
-1196122
-1195711
-1195198
-1194863
-1194500
-1194231
-1193784
-1193253
-1192896
-1192561
-1192274
-1191879
-1191467
-1191209
-1190960
-1190782
-1190510
-1190024
-1190065
-1189953
-1189755
-1189513
-1189371
-1189225
-1189172
-1189102
-1189097
-1188932
-1188898
-1188937
-1188893
-1188842
-1188815
-1188841
-1188791
-1188932
-1189768
-1189103
-1188978
-1188995
-1188996
-1189148
-1189113
-1189237
-1189348
-1189359
-1189407
-1189317
-1189301
-1189601
-1189721
-1189473
-1189619
-1189645
-1189788
-1189922
-1189875
-1189858
-1189888
-1190081
-1190033
-1190039
-1190052
-1190107
-1190127
-1190171
-1190154
-1190121
-1190143
-1190199
-1190217
-1190340
-1190228
-1190151
-1190112
-1190138
-1190155
-1190042
-1190073
-1190099
-1190127
-1190050
-1189977
-1190134
-1190162
-1190052
-1189892
-1189874
-1189957
-1189837
-1189742
-1189540
-1189683
-1189816
-1189707
-1189793
-1189729
-1189794
-1189859
-1189729
-1189787
-1189751
-1189918
-1189761
-1189787
-1189940
-1190088
-1190094
-1189999
-1190140
-1190154
-1190092
-1190148
-1190182
-1190418
-1190312
-1190385
-1190402
-1190565
-1190430
-1190394
-1190395
-1190442
-1190441
-1190470
-1190418
-1190504
-1190379
-1190558
-1190573
-1190491
-1190273
-1190225
-1190310
-1190161
-1190123
-1190205
-1190138
-1190088
-1190102
-1189945
-1189893
-1190802
-1190200
-1189902
-1189769
-1189821
-1189730
-1189683
-1189756
-1189625
-1189661
-1189659
-1189610
-1189712
-1189651
-1189432
-1189358
-1189518
-1189440
-1189516
-1189499
-1189265
-1189266
-1189196
-1189257
-1189213
-1189143
-1189078
-1189123
-1189012
-1189159
-1189007
-1189031
-1189230
-1189099
-1189950
-1189527
-1189282
-1189307
-1189240
-1189216
-1189001
-1189163
-1189390
-1189431
-1189491
-1189355
-1189478
-1189046
-1189423
-1189576
-1189671
-1189689
-1189808
-1189872
-1189738
-1189769
-1189905
-1189894
-1189856
-1190003
-1190043
-1190014
-1189914
-1190169
-1190111
-1190163
-1190232
-1190450
-1190435
-1190445
-1190436
-1190496
-1190433
-1190479
-1190582
-1190682
-1190782
-1190778
-1190802
-1190892
-1190967
-1190960
-1190996
-1191047
-1191184
-1190989
-1191275
-1191194
-1191260
-1191315
-1191512
-1191584
-1191463
-1191451
-1191527
-1191683
-1191684
-1191804
-1191862
-1191766
-1191869
-1191902
-1192003
-1192040
-1192168
-1192146
-1192216
-1192246
-1192363
-1192399
-1192379
-1192476
-1192414
-1192553
-1192508
-1192663
-1192785
-1192755
-1192449
-1192494
-1192564
-1192883
-1192891
-1192946
-1193052
-1193127
-1193227
-1193114
-1193246
-1193302
-1193549
-1193487
-1193624
-1193622
-1193613
-1193723
-1193713
-1193856
-1193874
-1193871
-1194111
-1194123
-1194193
-1194183
-1194146
-1194361
-1194378
-1194386
-1194294
-1194431
-1194489
-1194577
-1194710
-1195547
-1194952
-1194779
-1194930
-1194945
-1194960
-1195046
-1195231
-1195186
-1195171
-1195226
-1195347
-1195290
-1195268
-1195439
-1195548
-1195625
-1195538
-1195540
-1195705
-1195609
-1195707
-1195772
-1195785
-1195885
-1195777
-1195872
-1195882
-1195889
-1195924
-1195715
-1195723
-1195550
-1195328
-1195182
-1194896
-1194689
-1194523
-1194189
-1193890
-1193690
-1193351
-1192905
-1192524
-1192195
-1191821
-1191415
-1190953
-1190624
-1190195
-1189757
-1189343
-1189110
-1188668
-1188365
-1187874
-1187562
-1187266
-1186867
-1186570
-1186082
-1185812
-1185543
-1185370
-1185011
-1186155
-1184702
-1184616
-1184328
-1183985
-1183817
-1183650
-1183594
-1183472
-1183377
-1183239
-1183360
-1183176
-1183257
-1183102
-1183103
-1182690
-1182950
-1183079
-1183155
-1183213
-1183189
-1183174
-1183199
-1183296
-1183257
-1183298
-1183305
-1183293
-1183290
-1183416
-1183553
-1183622
-1183606
-1183710
-1183827
-1183751
-1183767
-1183807
-1183823
-1183909
-1183877
-1183953
-1184083
-1184069
-1184161
-1184131
-1184108
-1184117
-1184071
-1184090
-1184202
-1183868
-1184075
-1184070
-1184112
-1184199
-1184266
-1184074
-1184090
-1184057
-1183996
-1184095
-1184140
-1184113
-1184026
-1183822
-1184009
-1184112
-1184101
-1184125
-1184080
-1183992
-1183980
-1183958
-1183871
-1183927
-1183893
-1183872
-1183742
-1183796
-1183847
-1183826
-1183765
-1183916
-1183779
-1183878
-1184070
-1184201
-1184247
-1184355
-1184510
-1184513
-1184472
-1184651
-1184834
-1184806
-1184895
-1184899
-1184892
-1184943
-1185033
-1185223
-1185186
-1185261
-1185151
-1185242
-1185166
-1185155
-1185223
-1185294
-1185369
-1185250
-1185189
-1185046
-1185198
-1185205
-1185333
-1185358
-1185229
-1185251
-1185386
-1185418
-1185225
-1185119
-1185113
-1185088
-1185075
-1185105
-1184990
-1185070
-1185069
-1184917
-1184923
-1184934
-1184797
-1184743
-1184603
-1184598
-1184585
-1184652
-1185444
-1184907
-1184715
-1184688
-1184645
-1184721
-1184764
-1184707
-1184700
-1184802
-1184746
-1184805
-1184883
-1184778
-1184792
-1184817
-1184900
-1184980
-1184908
-1185019
-1184931
-1184968
-1184983
-1184977
-1185045
-1185050
-1185230
-1185157
-1185229
-1185182
-1185195
-1185161
-1185294
-1185308
-1185303
-1185406
-1185427
-1185466
-1185642
-1185722
-1185676
-1185733
-1185771
-1185853
-1185872
-1185934
-1186083
-1186106
-1186084
-1186090
-1186143
-1186219
-1186418
-1186391
-1186482
-1186349
-1186423
-1186564
-1186653
-1186780
-1186718
-1186796
-1186700
-1186887
-1186873
-1186950
-1186848
-1187044
-1187005
-1187069
-1187183
-1187171
-1187255
-1187317
-1187309
-1187426
-1187513
-1187526
-1187771
-1187687
-1187863
-1187815
-1187991
-1188137
-1188193
-1188219
-1188278
-1188345
-1188364
-1188328
-1188337
-1188475
-1188499
-1188685
-1188756
-1188668
-1188711
-1188779
-1188842
-1188889
-1188875
-1188958
-1188867
-1189976
-1189319
-1189121
-1189232
-1189286
-1189431
-1189435
-1189510
-1189566
-1189713
-1189751
-1189793
-1189809
-1189855
-1189880
-1189923
-1189969
-1190120
-1190219
-1190217
-1190253
-1190458
-1190558
-1190212
-1190479
-1190484
-1190506
-1190549
-1190706
-1190657
-1190661
-1190742
-1190947
-1190975
-1191112
-1191099
-1191090
-1191243
-1191324
-1191238
-1191311
-1191482
-1191563
-1191701
-1191619
-1191775
-1191688
-1191665
-1191971
-1191938
-1191935
-1192026
-1192163
-1192086
-1192136
-1192284
-1192244
-1192088
-1192219
-1192261
-1192385
-1192363
-1192489
-1192512
-1192612
-1192635
-1192500
-1192588
-1192585
-1192555
-1192435
-1192422
-1192464
-1192317
-1192212
-1192016
-1191805
-1191607
-1191565
-1191125
-1190939
-1190669
-1190393
-1189821
-1189443
-1189293
-1188821
-1188564
-1188042
-1187684
-1187153
-1186818
-1186301
-1185816
-1185523
-1185148
-1184593
-1184301
-1183768
-1183326
-1183048
-1182697
-1182381
-1182059
-1181841
-1181477
-1181118
-1180925
-1180551
-1180226
-1180063
-1179915
-1179625
-1179514
-1179510
-1179261
-1179169
-1179029
-1178964
-1178821
-1178809
-1178641
-1178649
-1178630
-1178422
-1178338
-1178351
-1178362
-1178291
-1178401
-1178440
-1178481
-1178448
-1178514
-1178448
-1178483
-1178528
-1178541
-1178514
-1178722
-1178667
-1178687
-1178663
-1178645
-1178640
-1178772
-1178751
-1178781
-1178852
-1178766
-1178803
-1178825
-1178697
-1178776
-1178809
-1178760
-1178832
-1178701
-1178791
-1178721
-1178704
-1178821
-1178784
-1178677
-1178632
-1178582
-1178388
-1178296
-1178425
-1178255
-1178155
-1178183
-1178050
-1178066
-1178110
-1178069
-1178002
-1177955
-1178007
-1178044
-1177997
-1177968
-1178018
-1178067
-1178031
-1177971
-1177931
-1177831
-1177871
-1177848
-1177851
-1177876
-1177814
-1177955
-1177893
-1177879
-1177924
-1177798
-1177914
-1178031
-1177945
-1177896
-1178050
-1178174
-1178060
-1178159
-1178250
-1178239
-1178309
-1178226
-1178160
-1178151
-1178285
-1178345
-1178350
-1178299
-1178240
-1178199
-1178099
-1178121
-1178157
-1178067
-1177673
-1177913
-1177750
-1177677
-1177681
-1177575
-1177428
-1177485
-1177478
-1177217
-1177102
-1177087
-1177032
-1176918
-1176849
-1176829
-1176729
-1176495
-1176350
-1176408
-1176326
-1176289
-1176056
-1175989
-1176013
-1175829
-1175727
-1175730
-1175655
-1175589
-1175503
-1175274
-1175211
-1175114
-1174989
-1174889
-1174916
-1174813
-1174705
-1174619
-1174663
-1174588
-1174443
-1174466
-1174403
-1174346
-1174310
-1174128
-1174130
-1173989
-1174044
-1173982
-1173964
-1173912
-1173987
-1173906
-1173972
-1173902
-1173901
-1173868
-1173800
-1173892
-1173754
-1173755
-1173890
-1173703
-1173846
-1173856
-1173828
-1173849
-1173845
-1173913
-1173956
-1173991
-1174078
-1174113
-1174211
-1174256
-1174230
-1174341
-1174424
-1174386
-1174428
-1174628
-1174637
-1174723
-1174826
-1174924
-1175002
-1175073
-1174955
-1175049
-1175225
-1175343
-1175429
-1175389
-1175476
-1175540
-1175779
-1175883
-1176003
-1176101
-1176088
-1176152
-1176256
-1176388
-1176533
-1176740
-1176669
-1176727
-1176879
-1177002
-1177060
-1177320
-1177313
-1177404
-1177508
-1177677
-1177624
-1177654
-1177719
-1178459
-1177980
-1177928
-1177967
-1178023
-1178068
-1178103
-1178330
-1178308
-1178409
-1178517
-1178464
-1178661
-1178588
-1178663
-1178807
-1178816
-1178921
-1179104
-1179160
-1179163
-1179122
-1179192
-1179270
-1179353
-1179369
-1179329
-1179448
-1179455
-1179442
-1179617
-1179739
-1179618
-1179525
-1179715
-1179710
-1179854
-1179849
-1179828
-1179879
-1179965
-1179929
-1180044
-1180019
-1180146
-1180233
-1180068
-1180176
-1180223
-1180170
-1180296
-1180327
-1180299
-1180388
-1180386
-1180391
-1180383
-1180394
-1180329
-1180330
-1179999
-1180250
-1180200
-1180274
-1180266
-1180320
-1180260
-1180232
-1180311
-1180412
-1180325
-1180278
-1180230
-1180249
-1180217
-1180214
-1180129
-1180249
-1180076
-1179960
-1179975
-1179766
-1179599
-1179440
-1179231
-1179144
-1178911
-1178621
-1178237
-1177915
-1177474
-1177117
-1176854
-1176438
-1176150
-1175722
-1175360
-1175004
-1174474
-1174138
-1173788
-1173469
-1173019
-1172705
-1172364
-1172072
-1171828
-1171349
-1171210
-1170941
-1170566
-1170398
-1170150
-1169824
-1169608
-1169358
-1169236
-1169106
-1168864
-1168770
-1168651
-1168574
-1168402
-1168358
-1168264
-1168187
-1168271
-1168118
-1168090
-1168134
-1168271
-1168162
-1168196
-1168197
-1168270
-1168408
-1168407
-1168431
-1168499
-1168624
-1168659
-1168777
-1168726
-1168830
-1168789
-1169004
-1169009
-1168962
-1168895
-1169150
-1169143
-1169092
-1169091
-1169236
-1169264
-1169256
-1169368
-1169404
-1169424
-1169365
-1169470
-1169426
-1169391
-1169305
-1169484
-1169522
-1169415
-1169466
-1169398
-1169517
-1169545
-1169398
-1169482
-1169368
-1169357
-1169268
-1169287
-1169184
-1169219
-1169088
-1169163
-1169021
-1168908
-1168922
-1169029
-1168961
-1169031
-1168887
-1168902
-1168901
-1168952
-1168905
-1168930
-1168937
-1169101
-1169156
-1169166
-1169389
-1169348
-1169503
-1169739
-1169824
-1169929
-1169931
-1170176
-1170184
-1170430
-1170464
-1170751
-1170837
-1171087
-1171141
-1171357
-1171408
-1171560
-1171751
-1171878
-1172166
-1172271
-1172556
-1172617
-1172768
-1172843
-1173098
-1173354
-1174059
-1174248
-1174493
-1174596
-1174772
-1175005
-1174906
-1175141
-1175466
-1175533
-1175701
-1175831
-1175790
-1175491
-1175828
-1176075
-1176208
-1176296
-1176385
-1176446
-1176345
-1176381
-1176335
-1176397
-1176420
-1176479
-1176499
-1176433
-1176434
-1176570
-1176465
-1176567
-1176580
-1176375
-1176362
-1176430
-1176351
-1176232
-1176181
-1176299
-1176188
-1176256
-1176146
-1176074
-1176165
-1176199
-1176200
-1176252
-1176118
-1176085
-1176155
-1176154
-1176006
-1175996
-1175858
-1175872
-1175851
-1175998
-1175919
-1175973
-1176090
-1175938
-1175918
-1175904
-1175866
-1175887
-1176022
-1175981
-1176058
-1176070
-1176112
-1176220
-1176247
-1176361
-1176297
-1176380
-1176442
-1176627
-1176683
-1176679
-1176715
-1176863
-1176982
-1176971
-1177110
-1177101
-1177254
-1177274
-1177231
-1177173
-1177295
-1177312
-1177333
-1177359
-1177293
-1177464
-1177419
-1177271
-1177220
-1177259
-1177245
-1177152
-1177008
-1177135
-1177112
-1177019
-1176966
-1177019
-1176920
-1177022
-1176943
-1176875
-1176855
-1176928
-1176958
-1176934
-1176915
-1176764
-1176832
-1176732
-1176702
-1176686
-1176727
-1176781
-1176727
-1176351
-1176456
-1176610
-1176570
-1176642
-1176547
-1176638
-1176586
-1176570
-1176521
-1176583
-1176711
-1176742
-1176571
-1176599
-1176645
-1176809
-1176770
-1176760
-1176733
-1176755
-1176683
-1176771
-1176761
-1176856
-1176873
-1176796
-1176788
-1176903
-1176827
-1176811
-1176791
-1176814
-1176838
-1176836
-1176829
-1176800
-1176786
-1176887
-1176786
-1176917
-1176870
-1176869
-1176822
-1176730
-1176819
-1176898
-1176757
-1176803
-1176844
-1176820
-1176741
-1176544
-1176715
-1176738
-1176874
-1176928
-1176891
-1176843
-1176821
-1176792
-1176842
-1176750
-1176713
-1176704
-1176713
-1176571
-1176454
-1176294
-1176220
-1175991
-1175744
-1175653
-1175367
-1175142
-1174811
-1175648
-1174551
-1174061
-1173736
-1173402
-1173127
-1172750
-1172488
-1172221
-1171962
-1171614
-1171425
-1171104
-1170860
-1170694
-1170358
-1170212
-1169903
-1169566
-1169583
-1169366
-1169064
-1168951
-1168901
-1168740
-1168556
-1168463
-1168363
-1168298
-1168309
-1168253
-1168256
-1168365
-1168340
-1167942
-1168175
-1168283
-1168389
-1168343
-1168324
-1168500
-1168371
-1168327
-1168496
-1168463
-1168556
-1168498
-1168823
-1168714
-1168842
-1168910
-1168867
-1168923
-1169076
-1169175
-1169179
-1169214
-1169273
-1169388
-1169492
-1169402
-1169539
-1169569
-1169587
-1169716
-1169817
-1169717
-1169851
-1169751
-1169904
-1169892
-1169961
-1170093
-1170051
-1170055
-1170099
-1170182
-1170136
-1170129
-1170255
-1170131
-1170079
-1170108
-1170217
-1170115
-1170080
-1170091
-1170167
-1170296
-1170271
-1170295
-1170392
-1170439
-1170510
-1170630
-1170678
-1170816
-1170905
-1170955
-1171004
-1171178
-1171191
-1171341
-1171264
-1171347
-1171583
-1171667
-1171745
-1171719
-1171777
-1171989
-1172108
-1172048
-1172194
-1172379
-1172258
-1172342
-1172418
-1172540
-1172666
-1172732
-1172750
-1172651
-1172787
-1172950
-1172940
-1173099
-1172989
-1173042
-1172952
-1172893
-1172877
-1173008
-1173003
-1172818
-1172754
-1172790
-1172829
-1172743
-1172747
-1172701
-1172644
-1172699
-1172615
-1172649
-1172657
-1172624
-1172548
-1172505
-1172432
-1172399
-1172343
-1172257
-1172251
-1172221
-1172197
-1172155
-1172179
-1172034
-1172169
-1172177
-1172119
-1172161
-1172071
-1172060
-1171906
-1171859
-1171973
-1172011
-1172043
-1172162
-1172092
-1172187
-1172212
-1172125
-1172286
-1172452
-1172405
-1172396
-1172710
-1172616
-1173298
-1172985
-1172818
-1172736
-1172716
-1172860
-1172895
-1172966
-1173092
-1173193
-1173201
-1173236
-1173343
-1173485
-1173580
-1173690
-1173651
-1173680
-1173834
-1173936
-1173983
-1173965
-1173888
-1173980
-1173962
-1174105
-1174256
-1174275
-1174230
-1174348
-1174382
-1174473
-1174575
-1174753
-1174714
-1174883
-1174807
-1174935
-1175037
-1175125
-1175150
-1175254
-1175416
-1175384
-1175526
-1175511
-1175573
-1175660
-1175940
-1176018
-1176037
-1176223
-1176381
-1176378
-1176402
-1176536
-1176693
-1176749
-1176969
-1177850
-1177381
-1177405
-1177357
-1177335
-1177406
-1177621
-1177685
-1177486
-1177623
-1177836
-1177902
-1177988
-1178082
-1178116
-1178176
-1178313
-1178416
-1178264
-1178650
-1178767
-1178860
-1178965
-1178857
-1178931
-1179045
-1179097
-1179149
-1179198
-1179275
-1179532
-1179638
-1179728
-1179827
-1179761
-1179775
-1179857
-1179994
-1180094
-1180191
-1180184
-1180157
-1180174
-1180262
-1180142
-1180144
-1180294
-1180230
-1180393
-1180394
-1180423
-1180552
-1180538
-1180665
-1180798
-1180939
-1181075
-1181080
-1181041
-1181129
-1181250
-1181400
-1181350
-1181033
-1181006
-1181075
-1181237
-1181499
-1181705
-1181812
-1181847
-1181760
-1181864
-1182113
-1182273
-1182467
-1182446
-1182505
-1182376
-1182134
-1182048
-1182233
-1182083
-1182023
-1181896
-1181514
-1181227
-1180927
-1180726
-1180458
-1180275
-1179911
-1179711
-1179309
-1178887
-1178493
-1178132
-1177858
-1177492
-1177371
-1177033
-1176609
-1176366
-1176106
-1175812
-1175591
-1175277
-1175152
-1175000
-1175490
-1174857
-1174420
-1174241
-1174078
-1173901
-1173894
-1173903
-1173823
-1173806
-1173870
-1173771
-1173563
-1173474
-1173490
-1173619
-1173585
-1173687
-1173612
-1173739
-1173814
-1173910
-1173928
-1174030
-1174022
-1174071
-1174276
-1174250
-1174435
-1174419
-1174661
-1174729
-1174781
-1174915
-1175018
-1175143
-1175305
-1175492
-1175591
-1175691
-1175872
-1176058
-1176073
-1176331
-1176263
-1176435
-1176650
-1176626
-1176672
-1176827
-1176804
-1176927
-1176975
-1177135
-1177050
-1177205
-1177137
-1177266
-1177239
-1177222
-1177292
-1177439
-1177346
-1177492
-1177083
-1177339
-1177614
-1177528
-1177575
-1177540
-1177617
-1177735
-1177762
-1177695
-1177841
-1177876
-1177990
-1178025
-1178188
-1178110
-1178205
-1178246
-1178294
-1178409
-1178462
-1178572
-1178568
-1178748
-1179526
-1179063
-1179064
-1179165
-1179121
-1179211
-1179243
-1179377
-1179432
-1179503
-1179562
-1179619
-1179769
-1179827
-1180029
-1180107
-1180148
-1180119
-1180208
-1180345
-1180362
-1180334
-1181173
-1180618
-1180414
-1180466
-1180509
-1180497
-1181131
-1180798
-1180637
-1180765
-1180363
-1180384
-1180324
-1180658
-1180714
-1180755
-1180789
-1180807
-1180663
-1180690
-1180636
-1180793
-1180686
-1180639
-1180606
-1180722
-1180765
-1180830
-1180780
-1180700
-1180642
-1180656
-1180562
-1180523
-1180673
-1180678
-1180687
-1180796
-1180685
-1180687
-1180700
-1181187
-1180874
-1180797
-1180925
-1180804
-1180943
-1180852
-1181004
-1180949
-1180964
-1180956
-1181066
-1180992
-1181101
-1181126
-1181264
-1181383
-1181297
-1181385
-1181553
-1181586
-1181788
-1181693
-1181664
-1181787
-1181907
-1181903
-1181964
-1181770
-1182210
-1182243
-1182472
-1182424
-1182477
-1182535
-1182647
-1182826
-1182665
-1182914
-1182975
-1183059
-1183004
-1183101
-1183199
-1183282
-1183405
-1183533
-1183431
-1182689
-1183508
-1183661
-1183757
-1183870
-1184012
-1184185
-1184223
-1184220
-1184407
-1184413
-1184470
-1184461
-1184404
-1184618
-1184854
-1184847
-1184865
-1184963
-1185094
-1185196
-1185210
-1185442
-1185510
-1185581
-1185616
-1185646
-1185810
-1185941
-1185972
-1186102
-1186096
-1186152
-1186795
-1186592
-1186495
-1186438
-1186583
-1186744
-1186672
-1186899
-1187068
-1187042
-1187059
-1187169
-1187238
-1187371
-1187382
-1187624
-1187345
-1187633
-1187811
-1187781
-1187785
-1187980
-1188076
-1188031
-1188242
-1188290
-1188300
-1188395
-1188489
-1188664
-1188647
-1188663
-1188870
-1188832
-1188901
-1189082
-1188947
-1188966
-1189051
-1188953
-1188497
-1188660
-1188563
-1188421
-1188196
-1187976
-1187603
-1187316
-1187068
-1186657
-1186403
-1185987
-1185647
-1185375
-1185068
-1184744
-1184383
-1184018
-1183723
-1183169
-1182779
-1182448
-1182170
-1181998
-1181556
-1181403
-1181158
-1180875
-1180539
-1180172
-1180060
-1179783
-1179813
-1179460
-1179428
-1179158
-1179141
-1178668
-1178899
-1178791
-1178808
-1178683
-1178669
-1178789
-1178680
-1178640
-1178725
-1178716
-1178767
-1178750
-1178816
-1178746
-1178900
-1179081
-1179093
-1179221
-1179233
-1179266
-1179368
-1179340
-1179635
-1179687
-1179757
-1179855
-1180141
-1180203
-1180778
-1180539
-1180291
-1180364
-1180479
-1180554
-1180839
-1181006
-1180975
-1181106
-1181206
-1181241
-1181310
-1181497
-1181652
-1181647
-1181630
-1181782
-1181751
-1181771
-1181928
-1181829
-1181840
-1182061
-1182056
-1182145
-1182180
-1182122
-1182147
-1182245
-1182312
-1182420
-1182435
-1182427
-1182411
-1182445
-1182411
-1182339
-1182573
-1182655
-1182521
-1182628
-1182580
-1182643
-1182851
-1182838
-1182847
-1182882
-1183114
-1183231
-1183165
-1183302
-1183563
-1183536
-1183695
-1183953
-1183928
-1184090
-1184303
-1184242
-1184406
-1184414
-1184360
-1184537
-1184756
-1184693
-1184715
-1184860
-1184874
-1184968
-1185022
-1185039
-1184961
-1185004
-1185118
-1185173
-1185207
-1185157
-1185355
-1185492
-1185431
-1185442
-1185428
-1185392
-1185438
-1185369
-1185566
-1185461
-1185459
-1185490
-1185432
-1185449
-1185407
-1185366
-1185322
-1185319
-1185351
-1185265
-1185436
-1185419
-1185283
-1185317
-1185384
-1185432
-1185395
-1185427
-1185452
-1185425
-1185374
-1185381
-1185459
-1185391
-1186096
-1185735
-1185668
-1185439
-1185609
-1185633
-1185661
-1185650
-1185674
-1185785
-1185913
-1186007
-1186026
-1185966
-1185982
-1186041
-1186268
-1186431
-1186416
-1186300
-1186312
-1186365
-1186497
-1186533
-1186606
-1186572
-1186612
-1186694
-1186876
-1186902
-1187049
-1186992
-1187162
-1187319
-1187225
-1187360
-1187451
-1187535
-1187638
-1187799
-1187699
-1187793
-1188010
-1187956
-1188068
-1188139
-1188320
-1188285
-1188306
-1188341
-1188484
-1188548
