PPG
-1325899
-1326109
-1326106
-1326199
-1326385
-1326598
-1326923
-1326930
-1326997
-1327280
-1327622
-1327695
-1327647
-1327762
-1328014
-1328186
-1328393
-1328408
-1328585
-1328937
-1329254
-1329519
-1329431
-1329599
-1329909
-1330158
-1330143
-1330533
-1330797
-1331994
-1331500
-1331530
-1331476
-1331635
-1331821
-1331937
-1332156
-1332128
-1332280
-1332507
-1332582
-1332791
-1332828
-1332922
-1333264
-1333525
-1333761
-1333833
-1334039
-1334259
-1334583
-1334561
-1334748
-1334918
-1335086
-1335398
-1335464
-1335509
-1335690
-1336028
-1336229
-1336390
-1336491
-1336822
-1336954
-1337147
-1337356
-1337465
-1337729
-1338085
-1338104
-1338255
-1338156
-1338219
-1338658
-1338758
-1338887
-1338663
-1338574
-1338543
-1338478
-1338377
-1337913
-1337591
-1337385
-1336994
-1336423
-1335654
-1334928
-1334484
-1333844
-1333101
-1332046
-1331156
-1330484
-1329763
-1328982
-1327933
-1326877
-1326042
-1325196
-1324288
-1323208
-1322252
-1321368
-1320715
-1320011
-1318952
-1318055
-1317512
-1316669
-1316049
-1315247
-1314668
-1314277
-1313750
-1313286
-1312655
-1312174
-1311842
-1310724
-1310349
-1310203
-1310024
-1309772
-1309435
-1309253
-1309265
-1309334
-1309227
-1309023
-1308763
-1308907
-1308979
-1308457
-1308716
-1308918
-1309173
-1309250
-1309310
-1309497
-1309487
-1309897
-1310127
-1310293
-1310545
-1311041
-1311140
-1311329
-1311381
-1311557
-1311822
-1312276
-1312212
-1312240
-1312363
-1312704
-1312772
-1312926
-1312946
-1313001
-1313238
-1313531
-1313700
-1313673
-1313526
-1313806
-1313909
-1314001
-1313992
-1313975
-1314205
-1314202
-1314196
-1314046
-1314058
-1314230
-1314444
-1314358
-1314409
-1314367
-1314660
-1314629
-1314645
-1314574
-1314578
-1314802
-1314929
-1315090
-1314904
-1314563
-1314985
-1315165
-1315479
-1315311
-1315514
-1315973
-1316043
-1316092
-1316119
-1316398
-1316666
-1316952
-1317152
-1317363
-1317444
-1317844
-1318312
-1318538
-1318650
-1318864
-1318785
-1319486
-1319863
-1320013
-1320145
-1320494
-1320898
-1321232
-1321173
-1321342
-1321564
-1321780
-1322112
-1322022
-1321975
-1322197
-1322346
-1322508
-1322546
-1322590
-1322985
-1323035
-1322971
-1322979
-1323003
-1323217
-1323357
-1323388
-1323479
-1323563
-1323879
-1323931
-1324027
-1324113
-1324128
-1323959
-1324261
-1324654
-1324396
-1324348
-1324604
-1324769
-1324918
-1324886
-1324687
-1325086
-1325176
-1325266
-1325220
-1325138
-1325338
-1325378
-1325578
-1325622
-1325495
-1325790
-1325975
-1326089
-1326056
-1325950
-1326286
-1326600
-1326563
-1326692
-1326840
-1327030
-1327317
-1327421
-1327485
-1327505
-1327743
-1328162
-1328071
-1328242
-1328375
-1328555
-1328873
-1329057
-1329186
-1329306
-1329592
-1329830
-1329722
-1329753
-1330220
-1330230
-1330454
-1330558
-1330604
-1330835
-1331213
-1331271
-1331497
-1331608
-1331781
-1332052
-1332168
-1333573
-1332575
-1332617
-1332872
-1332968
-1332918
-1332988
-1333235
-1333381
-1333654
-1333579
-1333726
-1333907
-1333960
-1334075
-1334258
-1334151
-1334391
-1334652
-1334765
-1334811
-1334766
-1335040
-1335394
-1335686
-1335912
-1335699
-1335946
-1336266
-1336417
-1336461
-1336346
-1336785
-1336925
-1337059
-1336911
-1336816
-1337185
-1337294
-1337247
-1337161
-1337173
-1337312
-1337492
-1337549
-1337541
-1337356
-1337676
-1337807
-1337928
-1337668
-1337744
-1337948
-1338105
-1337674
-1338015
-1337899
-1338192
-1338340
-1338363
-1338464
-1338323
-1338490
-1338780
-1338768
-1338658
-1338546
-1338909
-1339141
-1339329
-1339244
-1339293
-1339538
-1339639
-1339458
-1339326
-1338871
-1339344
-1339487
-1339573
-1339502
-1338950
-1339299
-1338932
-1339097
-1338917
-1339087
-1339186
-1339004
-1338845
-1338512
-1338272
-1337976
-1337634
-1337158
-1336750
-1336081
-1335536
-1334987
-1334219
-1333247
-1332274
-1331514
-1330781
-1329667
-1328568
-1327519
-1326592
-1325609
-1324334
-1323177
-1321951
-1321120
-1320084
-1319120
-1317918
-1316545
-1315810
-1314845
-1313899
-1312798
-1311767
-1311184
-1310264
-1308656
-1307779
-1306896
-1304170
-1301875
-1301666
-1301353
-1301224
-1301049
-1301160
-1300947
-1300750
-1300992
-1301051
-1300934
-1300880
-1300911
-1300845
-1300810
-1300833
-1300615
-1300914
-1300979
-1300755
-1300797
-1300667
-1300872
-1300922
-1300856
-1300725
-1300749
-1300756
-1300638
-1300816
-1300659
-1300465
-1300617
-1300448
-1300450
-1300379
-1300100
-1300104
-1300285
-1300134
-1299864
-1299636
-1299833
-1299719
-1299558
-1299466
-1299165
-1299153
-1299013
-1299402
-1298749
-1298481
-1298385
-1298220
-1298125
-1297761
-1297525
-1297601
-1297449
-1297290
-1297212
-1296724
-1296735
-1296722
-1296716
-1296530
-1296265
-1296325
-1296274
-1296256
-1296314
-1296212
-1296414
-1296301
-1296381
-1296336
-1296393
-1296620
-1296660
-1296654
-1296816
-1296799
-1296968
-1297027
-1297092
-1297135
-1296844
-1297111
-1297248
-1297081
-1297051
-1296979
-1296973
-1297121
-1297139
-1296972
-1296857
-1296809
-1296821
-1296862
-1296825
-1296518
-1296505
-1296183
-1296238
-1296108
-1296022
-1296073
-1295999
-1295790
-1295798
-1295599
-1295636
-1295582
-1295451
-1295252
-1295084
-1295057
-1294971
-1294681
-1294594
-1294498
-1294540
-1294429
-1294422
-1294177
-1293884
-1294054
-1293894
-1293943
-1293486
-1293320
-1293442
-1293431
-1293551
-1293423
-1293067
-1293094
-1293184
-1293078
-1292837
-1292673
-1292884
-1292950
-1292809
-1292623
-1292451
-1292545
-1292558
-1292578
-1292497
-1292529
-1292508
-1292638
-1292565
-1292454
-1292425
-1292658
-1292700
-1292675
-1292856
-1292754
-1293053
-1293173
-1293128
-1293078
-1293146
-1293505
-1293687
-1293786
-1293834
-1293826
-1294123
-1294297
-1294412
-1294551
-1294526
-1294951
-1295036
-1295064
-1295265
-1295238
-1295508
-1295675
-1295960
-1296132
-1296005
-1296353
-1296506
-1296752
-1296944
-1296926
-1297298
-1297522
-1297606
-1297726
-1297817
-1298032
-1298235
-1298337
-1298410
-1298411
-1298587
-1298776
-1298825
-1298743
-1298858
-1298999
-1299185
-1299105
-1299179
-1299204
-1299296
-1299495
-1299508
-1299503
-1299330
-1299371
-1299524
-1299473
-1299133
-1299216
-1299497
-1299656
-1299696
-1299770
-1299697
-1299729
-1299778
-1299934
-1300078
-1299911
-1300100
-1300219
-1300436
-1300545
-1300503
-1300642
-1300847
-1300789
-1300927
-1300865
-1300992
-1301112
-1301265
-1301223
-1300750
-1301083
-1301037
-1300961
-1301041
-1300918
-1301024
-1300944
-1300842
-1300941
-1300697
-1300713
-1300715
-1300799
-1300680
-1300640
-1300651
-1300689
-1300804
-1300841
-1300495
-1300674
-1300705
-1300807
-1300825
-1300573
-1300763
-1300746
-1300488
-1300285
-1300020
-1299877
-1299686
-1299128
-1298617
-1297906
-1298474
-1296893
-1295767
-1294858
-1293751
-1293079
-1292011
-1290833
-1289669
-1288493
-1287351
-1286440
-1285305
-1284126
-1282842
-1281912
-1280825
-1279768
-1278763
-1277755
-1276932
-1276015
-1274898
-1273979
-1273062
-1272309
-1271482
-1270598
-1269817
-1268853
-1268209
-1267574
-1266659
-1266125
-1265547
-1265177
-1264644
-1263992
-1263495
-1262813
-1262688
-1263230
-1262081
-1261555
-1260964
-1260692
-1260444
-1260015
-1259674
-1258857
-1259089
-1258925
-1258805
-1258431
-1258060
-1258075
-1257687
-1257257
-1257113
-1256725
-1256717
-1257110
-1256231
-1255858
-1255418
-1255331
-1255079
-1254701
-1254283
-1253831
-1253829
-1253525
-1253372
-1253634
-1252843
-1252726
-1252186
-1252173
-1252126
-1251623
-1251520
-1251267
-1250905
-1250695
-1250093
-1249949
-1249552
-1249163
-1248813
-1248174
-1248101
-1247607
-1247119
-1246708
-1246239
-1245805
-1245357
-1244972
-1244440
-1243905
-1243597
-1243115
-1242451
-1242407
-1241963
-1241672
-1241467
-1241123
-1240939
-1240430
-1240325
-1240360
-1240058
-1239833
-1239554
-1239625
-1239754
-1239860
-1239894
-1239766
-1239909
-1240087
-1240274
-1240362
-1240254
-1240379
-1240482
-1240568
-1240648
-1240624
-1240822
-1241064
-1241173
-1241348
-1241363
-1241591
-1241822
-1242225
-1242514
-1242475
-1242757
-1243013
-1243221
-1243508
-1243542
-1243808
-1244219
-1244539
-1244869
-1244941
-1245298
-1245942
-1246613
-1246826
-1247102
-1247091
-1247265
-1247413
-1247341
-1247614
-1247488
-1247893
-1247873
-1248032
-1248148
-1247996
-1248156
-1248233
-1248287
-1248349
-1248387
-1248670
-1248703
-1248818
-1249082
-1249037
-1249311
-1249646
-1249774
-1249819
-1249984
-1250303
-1250432
-1250559
-1250719
-1250746
-1251082
-1251287
-1251506
-1251746
-1251726
-1251645
-1251986
-1252309
-1252564
-1252815
-1252968
-1253108
-1253633
-1253738
-1253903
-1254336
-1254445
-1254705
-1255023
-1255102
-1255313
-1255576
-1255922
-1256214
-1256373
-1256694
-1256938
-1257138
-1257531
-1257743
-1257925
-1258325
-1258390
-1258792
-1259027
-1259368
-1259708
-1259756
-1259989
-1260138
-1260473
-1260795
-1260952
-1261110
-1261188
-1261512
-1261742
-1261809
-1261916
-1262115
-1262352
-1262756
-1262929
-1263040
-1263240
-1263533
-1263722
-1263874
-1264030
-1264214
-1264755
-1264548
-1265120
-1265233
-1265475
-1265526
-1265904
-1266233
-1266508
-1266662
-1266953
-1267022
-1267363
-1267653
-1267792
-1268006
-1268275
-1268714
-1268929
-1269049
-1269510
-1269735
-1269865
-1270085
-1270110
-1270406
-1270817
-1270877
-1271101
-1271111
-1271511
-1271825
-1272234
-1272382
-1272443
-1272894
-1273330
-1273559
-1273865
-1274041
-1274358
-1274659
-1274930
-1275339
-1275414
-1275844
-1276330
-1276663
-1276884
-1277109
-1277629
-1278029
-1278216
-1278622
-1278759
-1279296
-1279580
-1279850
-1280086
-1280180
-1280640
-1280995
-1281039
-1281183
-1281374
-1281356
-1281265
-1281237
-1280990
-1280372
-1280081
-1279704
-1279243
-1278564
-1277672
-1277039
-1276369
-1275636
-1274729
-1273733
-1272758
-1271827
-1270644
-1269464
-1268276
-1267687
-1266460
-1265250
-1264287
-1263032
-1262188
-1261103
-1260119
-1259182
-1258024
-1257361
-1256471
-1255629
-1255034
-1254154
-1253667
-1253157
-1252728
-1252258
-1251660
-1251493
-1251288
-1251007
-1250862
-1250463
-1250275
-1250283
-1250190
-1250267
-1250110
-1250225
-1250523
-1250313
-1250517
-1250255
-1250501
-1250613
-1250736
-1250951
-1250821
-1251249
-1251262
-1251088
-1251051
-1251134
-1251261
-1251214
-1251490
-1251487
-1251338
-1251403
-1251505
-1251583
-1251429
-1250952
-1251231
-1251240
-1251113
-1250909
-1250737
-1250641
-1250598
-1250727
-1250736
-1250344
-1250378
-1250329
-1250210
-1250072
-1249783
-1249693
-1249712
-1249557
-1249578
-1249498
-1249534
-1249430
-1249235
-1249156
-1248966
-1249125
-1248969
-1249070
-1248982
-1248755
-1248798
-1249013
-1248986
-1248857
-1248751
-1248926
-1248994
-1249111
-1249829
-1249425
-1249387
-1249391
-1249576
-1249616
-1249528
-1250047
-1250008
-1250278
-1250393
-1250288
-1250779
-1250971
-1251176
-1251434
-1251553
-1252143
-1252395
-1252619
-1252809
-1252967
-1253130
-1253680
-1253934
-1254174
-1254148
-1254484
-1254891
-1255122
-1255126
-1255216
-1255408
-1255776
-1255711
-1255938
-1256023
-1256248
-1256325
-1256365
-1256591
-1256601
-1256785
-1257014
-1257187
-1257256
-1257241
-1257375
-1257425
-1257497
-1257596
-1257421
-1257673
-1257639
-1257548
-1257632
-1257621
-1257821
-1257874
-1257766
-1257906
-1257782
-1257845
-1257996
-1257987
-1258004
-1258148
-1258485
-1258515
-1258692
-1258613
-1258587
-1258896
-1259104
-1259193
-1259282
-1259772
-1259889
-1259998
-1259916
-1260241
-1260238
-1260501
-1260623
-1260421
-1260856
-1261002
-1261120
-1261267
-1261348
-1261595
-1261744
-1261959
-1261940
-1262121
-1262286
-1262392
-1262601
-1262701
-1262810
-1264062
-1263473
-1263489
-1263515
-1263773
-1264060
-1264198
-1264166
-1264478
-1264612
-1264895
-1265119
-1265366
-1265407
-1265669
-1265883
-1265923
-1266242
-1266322
-1266611
-1266792
-1266807
-1266805
-1267011
-1267335
-1267476
-1267715
-1267642
-1267799
-1267983
-1268131
-1268344
-1268363
-1268454
-1268848
-1268943
-1269334
-1269241
-1269204
-1269404
-1269742
-1269925
-1270027
-1270000
-1270191
-1270483
-1270635
-1270650
-1270571
-1270656
-1270707
-1270740
-1270834
-1270456
-1270622
-1270696
-1270488
-1270399
-1270170
-1270120
-1270204
-1270226
-1270145
-1270010
-1270179
-1270259
-1270108
-1270130
-1269895
-1270161
-1270088
-1270110
-1270011
-1269899
-1270180
-1270169
-1270160
-1270252
-1270211
-1270397
-1270670
-1270499
-1270837
-1270710
-1270827
-1271147
-1271222
-1271324
-1271404
-1271592
-1271797
-1271944
-1271896
-1271862
-1272066
-1272258
-1272319
-1272449
-1272309
-1272492
-1272849
-1272903
-1273125
-1272917
-1273197
-1273439
-1273484
-1273486
-1273556
-1273659
-1273792
-1273961
-1274351
-1274156
-1274172
-1274160
-1273981
-1273797
-1273569
-1273398
-1273152
-1272870
-1272516
-1271945
-1271607
-1270659
-1270309
-1269829
-1268909
-1268283
-1267523
-1266730
-1265878
-1265041
-1264308
-1263422
-1262456
-1261516
-1260526
-1259616
-1258725
-1257835
-1256827
-1255946
-1255222
-1254327
-1253397
-1252712
-1251898
-1251569
-1250794
-1250120
-1249581
-1248960
-1248646
-1248130
-1247632
-1247275
-1246791
-1246471
-1246181
-1245987
-1245654
-1245346
-1245335
-1245282
-1245028
-1244876
-1244629
-1244730
-1244591
-1244550
-1244358
-1244086
-1244040
-1244079
-1243902
-1243679
-1243248
-1243345
-1243093
-1242914
-1242584
-1242159
-1241987
-1241431
-1241010
-1240693
-1238394
-1237611
-1237058
-1237091
-1236481
-1236004
-1234986
-1234149
-1233965
-1233687
-1232666
-1231817
-1231064
-1230382
-1229321
-1228515
-1227551
-1226800
-1226326
-1225580
-1224996
-1224204
-1223616
-1223050
-1222308
-1221542
-1220708
-1220166
-1219539
-1218674
-1217917
-1216953
-1216358
-1215562
-1214928
-1214413
-1213413
-1213263
-1213036
-1212605
-1212314
-1212552
-1211989
-1211677
-1211431
-1211235
-1211145
-1211394
-1211745
-1212232
-1212877
-1213796
-1215021
-1216249
-1217326
-1218373
-1219178
-1220068
-1220999
-1221684
-1222206
-1222474
-1222726
-1222935
-1223220
-1223324
-1223290
-1223614
-1224106
-1224149
-1224327
-1224125
-1224436
-1224358
-1224531
-1224613
-1224536
-1224759
-1224667
-1224610
-1224503
-1224295
-1223830
-1224013
-1223791
-1223453
-1222821
-1222559
-1221961
-1221492
-1220770
-1220253
-1219809
-1219501
-1218929
-1218696
-1218058
-1217943
-1217719
-1217432
-1217300
-1216948
-1216733
-1216564
-1216535
-1216241
-1215899
-1215946
-1215910
-1215622
-1215440
-1215794
-1215974
-1216103
-1216283
-1217801
-1217362
-1217494
-1217592
-1217771
-1218020
-1218471
-1218637
-1219017
-1219235
-1219233
-1219679
-1219520
-1219951
-1220332
-1220429
-1220693
-1221016
-1221250
-1222392
-1221738
-1221867
-1222036
-1222274
-1222353
-1222394
-1222798
-1222960
-1223198
-1223300
-1223279
-1223557
-1223791
-1223726
-1223681
-1223450
-1223339
-1223254
-1223863
-1222922
-1222751
-1221865
-1221637
-1220843
-1220327
-1219684
-1219437
-1219222
-1218887
-1218499
-1218224
-1218156
-1218024
-1217811
-1217560
-1217283
-1217515
-1217400
-1217556
-1217468
-1217434
-1217951
-1218161
-1218384
-1218484
-1218509
-1218936
-1219223
-1219329
-1219192
-1219107
-1219171
-1219273
-1219250
-1219096
-1219010
-1218888
-1218835
-1218725
-1218408
-1218150
-1218207
-1218141
-1218066
-1217858
-1217734
-1217824
-1217584
-1217418
-1217273
-1217126
-1217201
-1217354
-1217330
-1217190
-1217359
-1217404
-1217538
-1217644
-1217701
-1217564
-1217888
-1218177
-1218501
-1218713
-1218866
-1219493
-1219857
-1220260
-1220576
-1220866
-1221411
-1221999
-1222438
-1222688
-1223180
-1223742
-1224327
-1224604
-1225044
-1225544
-1226151
-1226611
-1227018
-1227036
-1227445
-1227868
-1228115
-1228247
-1228111
-1227863
-1227922
-1227624
-1227511
-1227171
-1226763
-1226550
-1226452
-1225849
-1225627
-1225167
-1224999
-1224726
-1224620
-1224598
-1224464
-1224584
-1224824
-1224768
-1225005
-1225135
-1225366
-1225471
-1225490
-1225510
-1225523
-1225722
-1225627
-1225562
-1225100
-1224588
-1224497
-1223938
-1224544
-1223001
-1222067
-1221197
-1220486
-1219410
-1218525
-1217486
-1216676
-1215623
-1214598
-1213524
-1212419
-1211604
-1210643
-1209617
-1208809
-1207680
-1207186
-1206043
-1205266
-1204515
-1203681
-1203149
-1202466
-1201792
-1200947
-1200596
-1200327
-1199878
-1199687
-1199276
-1198918
-1198890
-1198645
-1198641
-1198584
-1198498
-1198684
-1198884
-1198999
-1199091
-1199024
-1199073
-1199118
-1198986
-1198907
-1199033
-1198910
-1199011
-1198737
-1198532
-1198725
-1198917
-1198995
-1198907
-1198754
-1198969
-1199017
-1199092
-1199121
-1199099
-1199155
-1199858
-1199155
-1198830
-1198405
-1198344
-1198240
-1198187
-1198107
-1197928
-1198044
-1197733
-1197722
-1197243
-1196985
-1196982
-1196884
-1196723
-1196359
-1196059
-1195779
-1195618
-1195420
-1194980
-1194497
-1194256
-1194001
-1193675
-1193388
-1192876
-1192558
-1192944
-1193123
-1193087
-1192850
-1193984
-1193510
-1193261
-1193237
-1193408
-1193711
-1193798
-1194079
-1194109
-1194319
-1194649
-1194934
-1195163
-1195651
-1195752
-1196156
-1196583
-1196824
-1196981
-1197047
-1197534
-1197791
-1198256
-1198538
-1198632
-1199078
-1199476
-1199715
-1200136
-1200300
-1200475
-1200676
-1200930
-1201157
-1200939
-1201129
-1201270
-1201255
-1201285
-1201173
-1201092
-1201035
-1201071
-1200812
-1200439
-1200398
-1200213
-1200069
-1199998
-1199628
-1199706
-1199764
-1199898
-1199796
-1199754
-1200117
-1200164
-1200563
-1200664
-1200828
-1201195
-1201804
-1202138
-1202429
-1202762
-1203045
-1203504
-1203790
-1203947
-1204043
-1204468
-1204858
-1205126
-1205288
-1205295
-1205712
-1205950
-1206057
-1206191
-1206296
-1206447
-1206825
-1207112
-1207207
-1207195
-1207504
-1207914
-1207984
-1207979
-1207833
-1207999
-1208162
-1208465
-1208413
-1208378
-1208722
-1209046
-1209243
-1209409
-1209454
-1209823
-1210092
-1210265
-1210458
-1210564
-1210007
-1210830
-1211166
-1211494
-1211625
-1211923
-1212349
-1212557
-1212599
-1212727
-1213981
-1214295
-1214547
-1214760
-1214658
-1214872
-1215095
-1215153
-1215069
-1215068
-1215297
-1215445
-1215409
-1215366
-1215349
-1215454
-1215504
-1215714
-1215605
-1215576
-1215605
-1215721
-1215786
-1215619
-1215186
-1215504
-1215518
-1215470
-1215051
-1214802
-1215134
-1215243
-1215161
-1215107
-1214932
-1214877
-1214956
-1215013
-1214897
-1214685
-1214700
-1214895
-1215125
-1215033
-1215208
-1215296
-1215663
-1215407
-1215976
-1216116
-1216328
-1216793
-1217066
-1217441
-1217792
-1218153
-1218891
-1219459
-1219798
-1220198
-1220876
-1221386
-1222092
-1222443
-1222676
-1222930
-1223513
-1223788
-1224170
-1224370
-1224824
-1225385
-1225975
-1226460
-1226923
-1227531
-1228398
-1229074
-1229880
-1230284
-1231031
-1231679
-1232205
-1232854
-1233342
-1233986
-1234630
-1234957
-1235420
-1235672
-1235883
-1236196
-1236641
-1236815
-1236883
-1237075
-1237135
-1237130
-1236872
-1236664
-1236477
-1236365
-1236186
-1235760
-1235351
-1235286
-1235087
-1234945
-1234851
-1234418
-1234008
-1233952
-1234185
-1233867
-1234136
-1234116
-1234086
-1234274
-1234224
-1234259
-1234130
-1234057
-1234815
-1234370
-1233961
-1233823
-1233486
-1233479
-1233311
-1233184
-1232796
-1232503
-1232407
-1232263
-1231997
-1231387
-1231074
-1230886
-1230543
-1230203
-1229807
-1229453
-1229254
-1229153
-1228812
-1228625
-1228552
-1228460
-1228412
-1228493
-1228162
-1229074
-1228698
-1228688
-1228761
-1228803
-1228997
-1229477
-1229828
-1230165
-1230497
-1230967
-1231707
-1232210
-1232697
-1232876
-1233497
-1234201
-1234783
-1235175
-1235437
-1235969
-1237639
-1237908
-1237477
-1237218
-1237249
-1237463
-1237701
-1237664
-1237464
-1238217
-1237850
-1237688
-1237772
-1237618
-1237868
-1238035
-1238348
-1238745
-1238876
-1239132
-1239499
-1239736
-1240091
-1240414
-1240556
-1240991
-1241455
-1241764
-1241818
-1241998
-1242305
-1243243
-1242981
-1242841
-1242990
-1243323
-1243361
-1243476
-1243460
-1243316
-1243437
-1243451
-1243290
-1242996
-1242420
-1242162
-1241684
-1241172
-1240291
-1239690
-1239113
-1238649
-1238353
-1237738
-1237541
-1237444
-1237325
-1236916
-1236641
-1236455
-1236551
-1236653
-1236763
-1236772
-1237053
-1237561
-1238130
-1238746
-1239039
-1239601
-1240569
-1241209
-1241921
-1242320
-1242841
-1243388
-1243950
-1244274
-1244612
-1244862
-1245284
-1245579
-1245725
-1245721
-1245727
-1245850
-1246002
-1246166
-1246150
-1246135
-1246348
-1247748
-1246889
-1246574
-1246208
-1246087
-1246043
-1245750
-1245318
-1245076
-1245008
-1245027
-1244628
-1244263
-1243862
-1243630
-1243269
-1242526
-1242099
-1241783
-1241667
-1241299
-1241126
-1241062
-1241155
-1241520
-1241672
-1241856
-1241882
-1241868
-1242130
-1242355
-1242386
-1242508
-1242776
-1243111
-1243469
-1243687
-1243714
-1243927
-1244354
-1244769
-1245353
-1245738
-1246277
-1246870
-1247693
-1248286
-1248720
-1249347
-1250154
-1250740
-1251371
-1252053
-1252563
-1253500
-1254223
-1254885
-1255286
-1255618
-1256205
-1256791
-1257160
-1257517
-1257659
-1258131
-1258497
-1258647
-1258601
-1258649
-1258947
-1258977
-1259077
-1258656
-1258641
-1258729
-1258395
-1258360
-1258346
-1258143
-1258067
-1257819
-1257554
-1257327
-1257104
-1257183
-1257412
-1257594
-1257600
-1257221
-1258108
-1258504
-1258653
-1259287
-1259790
-1260521
-1261242
-1261938
-1262469
-1262976
-1263850
-1264442
-1265125
-1265749
-1266270
-1266845
-1267349
-1267926
-1268110
-1268601
-1269098
-1269339
-1269646
-1269820
-1270072
-1270273
-1270595
-1270709
-1270702
-1270715
-1271005
-1271082
-1271264
-1271259
-1271123
-1271522
-1271604
-1272022
-1272251
-1272487
-1272909
-1273153
-1273579
-1273913
-1274341
-1274996
-1275422
-1275857
-1276422
-1276687
-1277347
-1277748
-1277979
-1278254
-1278356
-1278851
-1279164
-1279266
-1279224
-1279287
-1279529
-1279810
-1279898
-1280015
-1280089
-1280302
-1280510
-1280775
-1280869
-1280944
-1281346
-1281611
-1281844
-1281856
-1281976
-1282404
-1282582
-1282722
-1282890
-1282963
-1283624
-1283852
-1284270
-1284541
-1284801
-1285319
-1285697
-1286095
-1286532
-1286922
-1287355
-1287817
-1287728
-1287744
-1287666
-1287826
-1287668
-1287597
-1287373
-1287003
-1286675
-1286242
-1285608
-1284709
-1283839
-1283197
-1282513
-1281458
-1280466
-1279387
-1278445
-1277435
-1276480
-1275704
-1274865
-1274070
-1273363
-1272836
-1272159
-1271521
-1271004
-1270652
-1270407
-1269862
-1269611
-1269532
-1269604
-1269451
-1269359
-1269411
-1269635
-1269647
-1269633
-1269542
-1269269
-1269280
-1269401
-1269399
-1269351
-1269181
-1269226
-1269277
-1269280
-1269224
-1269051
-1269402
-1269407
-1269554
-1269732
-1269753
-1270061
-1270291
-1270292
-1270602
-1270715
-1271098
-1271599
-1271831
-1272090
-1272557
-1272917
-1273343
-1273684
-1274115
-1274531
-1274939
-1275487
-1275760
-1276197
-1276551
-1276998
-1277300
-1277665
-1277836
-1278004
-1278461
-1278740
-1278913
-1279005
-1279173
-1279358
-1279738
-1279910
-1280017
-1280299
-1280724
-1280994
-1281038
-1281282
-1281458
-1281851
-1282183
-1282472
-1282614
-1282641
-1283068
-1283339
-1283616
-1283861
-1283914
-1284281
-1284690
-1284916
-1285045
-1285202
-1285645
-1286001
-1286105
-1286284
-1286495
-1286876
-1287088
-1287136
-1287781
-1287341
-1287506
-1287360
-1287425
-1287465
-1287427
-1287660
-1287646
-1287821
-1287866
-1287815
-1287985
-1288046
-1288189
-1288260
-1288400
-1288595
-1288829
-1288777
-1288873
-1288984
-1289014
-1289283
-1289143
-1289231
-1289317
-1289392
-1289610
-1289606
-1289528
-1289705
-1290016
-1290143
-1290318
-1290519
-1290450
-1290944
-1291260
-1291475
-1291885
-1292047
-1292412
-1292799
-1293141
-1293547
-1293714
-1294140
-1294503
-1294977
-1295001
-1295471
-1296097
-1296375
-1296772
-1296973
-1297153
-1297616
-1298137
-1298362
-1298704
-1298935
-1299426
-1299767
-1299858
-1300137
-1300078
-1300317
-1300602
-1300627
-1300606
-1300615
-1300910
-1300880
-1300927
-1300866
-1300668
-1300744
-1300827
-1300955
-1300969
-1300918
-1301184
-1301309
-1301288
-1301286
-1301246
-1301516
-1301336
-1301955
-1302666
-1303405
-1304260
-1304738
-1305144
-1305684
-1306168
-1306732
-1307387
-1308039
-1308396
-1308928
-1309766
-1310265
-1310711
-1311101
-1311352
-1312142
-1312655
-1313272
-1313727
-1313951
-1314455
-1314717
-1315094
-1315423
-1315681
-1316491
-1317035
-1317568
-1318052
-1318312
-1318850
-1319554
-1319934
-1320645
-1320644
-1321078
-1321649
-1322106
-1322355
-1322650
-1323238
-1323602
-1324120
-1324625
-1324849
-1325370
-1325663
-1325969
-1326445
-1326703
-1327284
-1327801
-1328359
-1329151
-1330922
-1331548
-1332040
-1332378
-1332766
-1332992
-1333553
-1334084
-1334375
-1334746
-1335133
-1335601
-1336227
-1336656
-1337093
-1337483
-1338135
-1338674
-1339172
-1339766
-1339923
-1340820
-1340997
-1341966
-1342483
-1342961
-1343563
-1344052
-1344684
-1345232
-1345578
-1346226
-1346792
-1347248
-1347864
-1348372
-1349000
-1349509
-1350028
-1350369
-1350701
-1351364
-1351832
-1352203
-1352574
-1353074
-1353792
-1354253
-1354674
-1355347
-1355811
-1356481
-1356873
-1357314
-1358009
-1358252
-1359031
-1359446
-1359803
-1360106
-1360009
-1360430
-1360831
-1361287
-1361614
-1361889
-1362335
-1362755
-1362903
-1363050
-1363185
-1363618
-1363850
-1364305
-1364433
-1364664
-1364908
-1365088
-1365178
-1365229
-1365051
-1364721
-1364720
-1364204
-1364177
-1363895
-1363699
-1363362
-1362834
-1362260
-1361713
-1361174
-1360706
-1360093
-1359728
-1359109
-1358696
-1358160
-1357975
-1357347
-1356964
-1356686
-1356330
-1356201
-1355937
-1355374
-1355378
-1355300
-1355132
-1354853
-1354582
-1354622
-1354572
-1354550
-1354780
-1354622
-1354913
-1354973
-1355140
-1355400
-1355235
-1355493
-1355657
-1355903
-1356191
-1356200
-1356635
-1356815
-1357295
-1357573
-1357479
-1357890
-1358326
-1358619
-1358745
-1358889
-1359340
-1359750
-1359913
-1360164
-1360277
-1360574
-1360847
-1361093
-1361420
-1361394
-1361747
-1362054
-1362308
-1362628
-1362571
-1362816
-1363270
-1363485
-1363472
-1363510
-1363882
-1364059
-1364167
-1364126
-1364444
-1364432
-1364481
-1364686
-1364549
-1364869
-1364795
-1365107
-1365202
-1365103
-1365304
-1365349
-1365576
-1365660
-1365426
-1365388
-1365651
-1365772
-1365878
-1365812
-1366209
-1366367
-1366510
-1366711
-1366718
-1366881
-1367161
-1367488
-1367608
-1367543
-1368046
-1368231
-1368586
-1368754
-1368809
-1369237
-1369692
-1369905
-1370377
-1370391
-1370853
-1371324
-1371694
-1371946
-1372145
-1372546
-1372709
-1372965
-1373428
-1373548
-1373802
-1373982
-1374726
-1374699
-1374617
-1374791
-1374889
-1375062
-1375175
-1375025
-1375332
-1375522
-1375605
-1376042
-1375707
-1375637
-1377368
-1376529
-1376223
-1375943
-1376179
-1376352
-1376392
-1376508
-1376474
-1376572
-1376684
-1376784
-1376716
-1376634
-1376838
-1376910
-1376842
-1377032
-1377075
-1377192
-1377441
-1377432
-1377764
-1377686
-1377611
-1377576
-1377799
-1377836
-1377939
-1378293
-1378396
-1378518
-1378810
-1378757
-1378869
-1379179
-1379362
-1379506
-1379512
-1379677
-1380027
-1380143
-1380328
-1380296
-1380612
-1380856
-1381049
-1381381
-1381480
-1381768
-1382005
-1382238
-1382557
-1382707
-1383023
-1383380
-1383770
-1383893
-1384132
-1384392
-1384781
-1385108
-1385417
-1385614
-1386012
-1386527
-1386777
-1386923
-1387156
-1387203
-1387841
-1388121
-1388610
-1388785
-1389167
-1389473
-1389751
-1390067
-1390271
-1390539
-1390929
-1391264
-1391288
-1391389
-1391954
-1392131
-1392331
-1392496
-1392580
-1393011
-1393409
-1393665
-1393970
-1394021
-1394286
-1394631
-1394816
-1395158
-1395091
-1395453
-1395870
-1396178
-1396420
-1396591
-1396838
-1397261
-1397576
-1397765
-1398171
-1398504
-1398891
-1399191
-1399151
-1399501
-1399928
-1400036
-1400253
-1400234
-1400697
-1401170
-1401299
-1401612
-1401662
-1402102
-1402156
-1402197
-1402464
-1402665
-1402944
-1403344
-1403619
-1403684
-1403618
-1403968
-1404306
-1404428
-1404616
-1404744
-1404989
-1405422
-1405589
-1405394
-1405345
-1405775
-1405907
-1406164
-1406149
-1406423
-1406781
-1406741
-1406773
-1406719
-1406813
-1407105
-1407197
-1407380
-1407697
-1407472
-1407744
-1407658
-1407806
-1407619
-1407789
-1407964
-1408274
-1408411
-1408340
-1408277
-1408331
-1408412
-1408619
-1408613
-1408480
-1408706
-1408976
-1409017
-1409026
-1409894
-1409228
-1408975
-1408809
-1408549
-1408480
-1408398
-1408231
-1407930
-1407430
-1406737
-1406640
-1406148
-1405817
-1405272
-1404483
-1404024
-1403606
-1402912
-1402480
-1401706
-1401241
-1400800
-1400315
-1399653
-1399118
-1398981
-1398539
-1397869
-1397826
-1397426
-1397307
-1397073
-1396916
-1396659
-1396408
-1396489
-1396264
-1396271
-1396176
-1396038
-1396098
-1396176
-1396448
-1396492
-1396451
-1396756
-1396832
-1396934
-1397653
-1396987
-1397463
-1397826
-1398206
-1398316
-1398524
-1398859
-1399220
-1399477
-1399674
-1399353
-1400073
-1400576
-1400811
-1401012
-1401294
-1401496
-1401917
-1401967
-1402473
-1402577
-1402797
-1403225
-1403382
-1403636
-1403810
-1404019
-1404296
-1404619
-1404761
-1404657
-1405169
-1405257
-1405219
-1405376
-1405450
-1405721
-1405745
-1405871
-1405780
-1405786
-1405869
-1405936
-1406101
-1406005
-1405890
-1406191
-1406384
-1406132
-1405659
-1405772
-1405955
-1406124
-1405959
-1405906
-1406176
-1406236
-1406210
-1406169
-1406179
-1406233
-1406394
-1406567
-1406914
-1407103
-1406849
-1406791
-1407251
-1407378
-1407498
-1407593
-1408267
-1408507
-1408521
-1408484
-1408632
-1409004
-1409141
-1409255
-1409405
-1409379
-1409894
-1409922
-1410114
-1410367
-1410438
-1410611
-1410841
-1411061
-1411184
-1411005
-1411452
-1411672
-1411766
-1411913
-1411776
-1411938
-1412533
-1412519
-1412450
-1412382
-1412718
-1412887
-1413021
-1412933
-1412947
-1413190
-1413398
-1413599
-1413596
-1413462
-1413718
-1413812
-1413957
-1413895
-1413858
-1413993
-1414262
-1414268
-1414353
-1414382
-1414567
-1414709
-1414629
-1414703
-1414733
-1415078
-1415100
-1415180
-1415187
-1415308
-1415372
-1415515
-1415689
-1415812
-1415642
-1415915
-1415987
-1417220
-1416822
-1416453
-1416761
-1416826
-1416807
-1417826
-1417939
-1418037
-1418345
-1418615
-1418902
-1419011
-1419297
-1419511
-1419965
-1420102
-1420242
-1420261
-1420745
-1420883
-1421128
-1421318
-1421602
-1421991
-1422267
-1422523
-1422628
-1422649
-1423211
-1423336
-1423512
-1423715
-1423834
-1424194
-1424360
-1424610
-1424759
-1425088
-1425556
-1425773
-1426066
-1426240
-1426402
-1426789
-1426945
-1427325
-1427641
-1427604
-1427971
-1428373
-1428695
-1428869
-1428864
-1429437
-1429576
-1429851
-1430084
-1430005
-1430309
-1430546
-1430711
-1430819
-1430825
-1431265
-1431419
-1431487
-1431456
-1431528
-1431831
-1432150
-1432190
-1432202
-1432238
-1432471
-1432405
-1432480
-1432563
-1432568
-1432741
-1432750
-1432914
-1432820
-1432840
-1433110
-1433175
-1433366
-1433486
-1433585
-1433920
-1434105
-1434291
-1434400
-1434481
-1434746
-1434856
-1435147
-1435295
-1435287
-1435708
-1435848
-1436170
-1436209
-1436240
-1436515
-1436992
-1437039
-1437192
-1437400
-1437573
-1437939
-1438007
-1438212
-1438188
-1438698
-1438838
-1439129
-1439173
-1439130
-1439552
-1439840
-1439924
-1440059
-1440109
-1440591
-1440738
-1441027
-1441014
-1441057
-1441288
-1441574
-1441822
-1441936
-1441834
-1442063
-1442197
-1442318
-1442260
-1441722
-1441745
-1441523
-1441443
-1441140
-1440554
-1440257
-1439897
-1439339
-1438880
-1438780
-1437809
-1437129
-1436416
-1435632
-1434932
-1434465
-1433811
-1433307
-1432721
-1431871
-1431452
-1430815
-1430286
-1429638
-1429052
-1428681
-1428440
-1427784
-1427626
-1427167
-1426976
-1426627
-1426386
-1426139
-1425791
-1425834
-1425754
-1425537
-1425398
-1425217
-1425112
-1425121
-1425380
-1425268
-1425001
-1425115
-1425177
-1425257
-1425460
-1425107
-1425341
-1425608
-1425777
-1425824
-1425666
-1426001
-1426036
-1426252
-1426308
-1426182
-1426493
-1426791
-1426973
-1427016
-1426938
-1427146
-1427492
-1427741
-1427738
-1427832
-1428028
-1428204
-1428513
-1427985
-1428247
-1428495
-1428917
-1429040
-1428963
-1429016
-1429180
-1429360
-1429292
-1429284
-1429073
-1429134
-1429158
-1429274
-1429228
-1428946
-1429130
-1429202
-1429274
-1429176
-1428942
-1429041
-1429091
-1429090
-1428999
-1428745
-1428777
-1428885
-1429022
-1428952
-1428975
-1429149
-1429277
-1429145
-1429146
-1428959
-1429330
-1429321
-1429381
-1429448
-1429463
-1429572
-1429640
-1429676
-1430155
-1430488
-1430701
-1431163
-1431036
-1431399
-1431802
-1432230
-1432585
-1432869
-1433193
-1433356
-1433809
-1434308
-1434640
-1434909
-1434994
-1435371
-1435798
-1436209
-1436400
-1436441
-1436760
-1437091
-1437422
-1437439
-1437606
-1438016
-1438211
-1438376
-1438601
-1438512
-1438718
-1439130
-1439192
-1439347
-1439448
-1439549
-1439735
-1439861
-1439913
-1439816
-1440166
-1440208
-1440369
-1440294
-1440314
-1440274
-1440571
-1440632
-1440403
-1440361
-1440655
-1440638
-1440699
-1440652
-1440501
-1440716
-1440817
-1440662
-1440612
-1440631
-1440728
-1440849
-1440918
-1440894
-1440815
-1440804
-1440852
-1440812
-1440772
-1440850
-1440885
-1441036
-1441156
-1440939
-1440828
-1440945
-1441150
-1441432
-1441388
-1440951
-1441423
-1441674
-1441796
-1441819
-1441896
-1442192
-1442330
-1442589
-1442765
-1442637
-1442882
-1443233
-1443600
-1443767
-1443864
-1444285
-1444435
-1444858
-1445006
-1445076
-1445368
-1445714
-1446042
-1446100
-1446155
-1446536
-1446903
-1447164
-1447379
-1447665
-1447841
-1448182
-1448541
-1449489
-1449107
-1449079
-1449480
-1449747
-1449807
-1449851
-1450180
-1450528
-1450817
-1451042
-1451105
-1451424
-1451736
-1452175
-1452382
-1452533
-1452737
-1453122
-1453307
-1453440
-1453662
-1453782
-1454197
-1454461
-1454576
-1454524
-1454853
-1455203
-1455373
-1455556
-1455578
-1455539
-1455977
-1456323
-1456437
-1456514
-1456636
-1456859
-1457075
-1457270
-1457203
-1457452
-1457695
-1457947
-1458107
-1458215
-1458428
-1458639
-1459025
-1459196
-1459137
-1459451
-1459667
-1459940
-1460107
-1460137
-1460333
-1460713
-1460905
-1461066
-1461132
-1461279
-1461467
-1461519
-1461649
-1461723
-1462045
-1462367
-1462522
-1462537
-1462449
-1462661
-1463011
-1463061
-1463172
-1463197
-1463303
-1463563
-1463836
-1463785
-1463703
-1464047
-1464210
-1464301
-1464392
-1464150
-1464340
-1464212
-1464332
-1464237
-1463678
-1463535
-1463396
-1463162
-1462598
-1462172
-1461575
-1461071
-1460569
-1459949
-1459265
-1458606
-1457951
-1457312
-1456490
-1455758
-1454934
-1454331
-1453746
-1453084
-1452260
-1451750
-1451236
-1450658
-1450049
-1449456
-1449060
-1448721
-1448355
-1447935
-1447114
-1447150
-1447091
-1446845
-1446618
-1446453
-1446309
-1446341
-1446273
-1446309
-1446039
-1446084
-1446310
-1446341
-1446453
-1446454
-1446513
-1446725
-1446743
-1446783
-1446818
-1447102
-1447260
-1447415
-1447669
-1447608
-1447228
-1447796
-1447753
-1447864
-1447815
-1447901
-1448220
-1448364
-1448241
-1448135
-1448149
-1448193
-1448004
-1447937
-1447770
-1447823
-1447774
-1447706
-1447551
-1447390
-1447233
-1447266
-1447092
-1447203
-1446895
-1446750
-1446526
-1446530
-1446398
-1446215
-1446130
-1445693
-1445588
-1445613
-1445555
-1445495
-1445525
-1445456
-1445529
-1445428
-1445454
-1445241
-1445161
-1445464
-1445690
-1445604
-1445682
-1445709
-1445860
-1446095
-1446021
-1446274
-1446475
-1446726
-1446946
-1447064
-1447084
-1447422
-1447642
-1447911
-1448117
-1448133
-1448262
-1448619
-1448943
-1449169
-1449262
-1449409
-1449772
-1449928
-1450049
-1450143
-1450223
-1450574
-1450658
-1450676
-1450873
-1450954
-1451031
-1451191
-1451408
-1451262
-1451321
-1451654
-1451674
-1451814
-1451865
-1451935
-1452135
-1452408
-1452245
-1452303
-1452362
-1452680
-1452767
-1452885
-1452736
-1452689
-1452914
-1453124
-1453115
-1453009
-1453106
-1453200
-1453321
-1453303
-1453258
-1453312
-1453350
-1453389
-1453454
-1453418
-1453282
-1453414
-1453463
-1453496
-1453379
-1453442
-1453561
-1453653
-1453568
-1453562
-1453455
-1453686
-1453642
-1453731
-1453481
-1453419
-1453529
-1453785
-1454009
-1453773
-1453777
-1454007
-1454019
-1454202
-1454212
-1454347
-1454553
-1454658
-1454768
-1454808
-1454852
-1455210
-1455469
-1455483
-1455436
-1455429
-1455836
-1456043
-1456278
-1456319
-1456171
-1456459
-1456628
-1456992
-1456945
-1456943
-1457203
-1457321
-1457174
-1457415
-1457317
-1457632
-1457793
-1457866
-1457715
-1457622
-1457786
-1457981
-1458059
-1457880
-1458019
-1458122
-1458130
-1458148
-1458053
-1458138
-1458353
-1458465
-1458570
-1458492
-1458386
-1458577
-1458730
-1458886
-1458849
-1458987
-1459193
-1459420
-1459450
-1459406
-1459564
-1459918
-1460038
-1460153
-1460115
-1460000
-1460330
-1460426
-1460621
-1460676
-1460492
-1460781
-1460805
-1460775
-1460803
-1460771
-1461125
-1461145
-1461186
-1461128
-1461046
-1461306
-1461542
-1461483
-1461524
-1461370
-1461627
-1461908
-1461814
-1461923
-1461916
-1462182
-1462096
-1462126
-1462343
-1462334
-1462595
-1462722
-1462804
-1462650
-1462747
-1463041
-1463173
-1463113
-1463217
-1463326
-1463572
-1463607
-1463626
-1463579
-1463581
-1463949
-1464124
-1464077
-1464223
-1464204
-1464321
-1464441
-1464704
-1464177
-1464348
-1464674
-1464973
-1464966
-1464927
-1464686
-1464766
-1464767
-1464552
-1464158
-1463802
-1463492
-1463153
-1462591
-1462006
-1461111
-1460751
-1460116
-1459376
-1458477
-1457579
-1457023
-1456231
-1455112
-1454717
-1453836
-1453264
-1452825
-1452055
-1451462
-1450688
-1450317
-1449764
-1449127
-1448767
-1448119
-1447841
-1447665
-1447366
-1447065
-1446818
-1446708
-1446447
-1446303
-1446220
-1446024
-1446018
-1446010
-1445939
-1445881
-1445946
-1445993
-1446296
-1446021
-1446099
-1446204
-1446385
-1446481
-1446667
-1446685
-1446615
-1447099
-1447156
-1447275
-1447244
-1447279
-1447626
-1447723
-1447906
-1447840
-1447817
-1448231
-1448154
-1448280
-1448343
-1448250
-1448499
-1448615
-1448732
-1448768
-1448640
-1448958
-1448978
-1448993
-1449154
-1448985
-1449072
-1449267
-1449145
-1449037
-1448935
-1449184
-1449040
-1449256
-1449064
-1448965
-1449169
-1449121
-1448937
-1449739
-1449049
-1448999
-1448880
-1448782
-1448595
-1448410
-1448491
-1448629
-1448523
-1448411
-1448250
-1448271
-1448458
-1448334
-1448461
-1448203
-1448369
-1448602
-1448421
-1449644
-1448717
-1448642
-1448774
-1448699
-1448915
-1448789
-1448954
-1448824
-1449201
-1449415
-1449254
-1449514
-1449835
-1449851
-1449955
-1449895
-1450155
-1450247
-1450316
-1450415
-1450483
-1450691
-1451003
-1450954
-1451093
-1451131
-1451381
-1451401
-1451516
-1451535
-1451256
-1453174
-1452283
-1451859
-1451909
-1451901
-1451979
-1451940
-1451837
-1451839
-1451845
-1451901
-1452019
-1451999
-1451842
-1451663
-1451895
-1451903
-1451940
-1451765
-1451620
-1451794
-1451525
-1451561
-1451516
-1451562
-1451559
-1451544
-1451671
-1451449
-1451227
-1451316
-1451416
-1451463
-1451294
-1451111
-1451155
-1451207
-1451281
-1451320
-1451194
-1451372
-1451504
-1451312
-1451424
-1451438
-1451645
-1451783
-1451815
-1451840
-1451846
-1452059
-1452231
-1452206
-1452438
-1452263
-1452496
-1452674
-1452912
-1452851
-1452799
-1453133
-1453107
-1453180
-1453282
-1453344
-1453660
-1453673
-1453685
-1453848
-1453801
-1454143
-1454290
-1454360
-1454284
-1454367
-1454371
-1454595
-1454784
-1454750
-1454639
-1454762
-1455067
-1454989
-1455033
-1454974
-1455049
-1455237
-1455429
-1455403
-1455301
-1455450
-1455667
-1455688
-1455683
-1455551
-1455741
-1456043
-1456145
-1456188
-1456086
-1456223
-1456544
-1456470
-1456483
-1456603
-1456804
-1456875
-1457089
-1457065
-1457022
-1457092
-1457378
-1457285
-1457311
-1457291
-1457486
-1457570
-1457773
-1457729
-1457663
-1457856
-1457815
-1457827
-1457838
-1457654
-1457895
-1458037
-1457959
-1458078
-1458059
-1458061
-1458700
-1459112
-1458705
-1458337
-1458449
-1458671
-1458738
-1458713
-1458712
-1458738
-1458443
-1458710
-1459647
-1459053
-1459163
-1459208
-1459263
-1459289
-1459284
-1459523
-1459737
-1459640
-1459731
-1459778
-1460832
-1460168
-1460208
-1459999
-1460014
-1460082
-1460110
-1460171
-1460223
-1460117
-1460266
-1460432
-1460593
-1460772
-1460570
-1460726
-1460336
-1460708
-1461064
-1461055
-1461124
-1461355
-1461469
-1461643
-1461734
-1461891
-1462190
-1462260
-1462392
-1462651
-1462744
-1462827
-1463160
-1463123
-1463342
-1463458
-1463456
-1463694
-1463783
-1463980
-1464060
-1464079
-1463898
-1463549
-1463217
-1462700
-1462453
-1461978
-1461307
-1460667
-1459838
-1459025
-1458432
-1457671
-1456842
-1455730
-1455109
-1454141
-1453465
-1452628
-1451661
-1451189
-1450350
-1449635
-1448896
-1448019
-1447505
-1447005
-1446631
-1445947
-1445526
-1445172
-1444745
-1444334
-1444116
-1443842
-1443806
-1443710
-1443484
-1443544
-1443336
-1443396
-1443314
-1443488
-1443558
-1443358
-1443671
-1443749
-1443934
-1443836
-1443986
-1444498
-1444775
-1444918
-1445059
-1445066
-1445447
-1445682
-1445854
-1446050
-1446309
-1446648
-1446825
-1447204
-1447354
-1446907
-1447654
-1447858
-1448084
-1448401
-1448421
-1448549
-1448869
-1449025
-1449155
-1448976
-1449232
-1449417
-1449488
-1449513
-1449662
-1449545
-1449723
-1449862
-1449957
-1449758
-1449684
-1449664
-1449853
-1450220
-1449612
-1449072
-1449227
-1449199
-1448974
-1448759
-1448883
-1448710
-1448623
-1448580
-1448072
-1448018
-1447671
-1447624
-1447600
-1447333
-1446851
-1447213
-1447112
-1446596
-1446560
-1446268
-1446594
-1446113
-1446347
-1446147
-1447497
-1446731
-1446285
-1446067
-1446168
-1446349
-1446449
-1446424
-1446618
-1446444
-1446363
-1446569
-1446313
-1446953
-1446526
-1447015
-1447193
-1447265
-1447648
-1447657
-1447853
-1447651
-1447943
-1448316
-1448310
-1448360
-1448437
-1448513
-1448709
-1448653
-1448375
-1448768
-1448879
-1449002
-1450164
-1449450
-1449153
-1448740
-1449078
-1448996
-1449186
-1449213
-1449211
-1449264
-1449268
-1449333
-1450422
-1449744
-1449477
-1449450
-1449474
-1449606
-1449745
-1450400
-1449922
-1449701
-1449330
-1449581
-1449183
-1449653
-1450432
-1449806
-1449589
-1449590
-1450425
-1449922
-1449859
-1449819
-1449814
-1449991
-1450034
-1449869
-1449870
-1449979
-1450221
-1450324
-1450438
-1450485
-1451109
-1450792
-1450449
-1451022
-1451973
-1451566
-1451859
-1451980
-1452096
-1452312
-1452241
-1452636
-1452731
-1452982
-1452714
-1452963
-1453392
-1453529
-1453733
-1453853
-1453987
-1454208
-1454398
-1454363
-1454392
-1454486
-1454714
-1454869
-1454883
-1454965
-1454880
-1454763
-1455056
-1455288
-1455254
-1455206
-1455561
-1455585
-1455742
-1455854
-1456588
-1455869
-1456025
-1456194
-1456346
-1456219
-1456465
-1456725
-1457722
-1457246
-1456858
-1457010
-1457264
-1457391
-1457172
-1457423
-1457604
-1457822
-1458021
-1458149
-1457727
-1458370
-1458237
-1458500
-1458584
-1458926
-1459260
-1459460
-1459602
-1459451
-1459608
-1459811
-1459957
-1460848
-1460530
-1460379
-1460453
-1460587
-1460863
-1460868
-1460876
-1461100
-1461259
-1461412
-1461778
-1461602
-1461617
-1462130
-1462439
-1462666
-1463252
-1463086
-1463422
-1463346
-1463537
-1463417
-1463606
-1463662
-1463967
-1463984
-1464026
-1464301
-1463879
-1464306
-1464433
-1464298
-1464385
-1464457
-1464610
-1464454
-1464374
-1464483
-1464711
-1464858
-1464907
-1464898
-1465031
-1464903
-1465010
-1465083
-1465173
-1465011
-1465440
-1465605
-1465572
-1465762
-1466178
-1466534
-1466853
-1466852
-1467018
-1467410
-1467388
-1467566
-1467642
-1467872
-1468083
-1468062
-1468221
-1468319
-1468555
-1468675
-1468794
-1468792
-1468656
-1468860
-1469090
-1469109
-1469212
-1468987
-1469281
-1469313
-1469490
-1469429
-1469161
-1469315
-1469261
-1469329
-1469239
-1469241
-1469347
-1469246
-1469247
-1469188
-1468783
-1468735
-1468616
-1468142
-1467889
-1467318
-1466948
-1466479
-1465700
-1464961
-1464309
-1463544
-1462870
-1462017
-1461331
-1460325
-1459614
-1458986
-1457915
-1457199
-1456132
-1455365
-1454761
-1453993
-1453186
-1452333
-1451836
-1451289
-1450676
-1450035
-1449430
-1449096
-1448846
-1448563
-1448199
-1447975
-1448014
-1447834
-1447585
-1447347
-1447351
-1447490
-1447556
-1447333
-1447265
-1447146
-1447481
-1447674
-1447699
-1447818
-1447856
-1448260
-1448218
-1448341
-1448437
-1448607
-1448776
-1448950
-1449129
-1449246
-1449193
-1449610
-1449698
-1449974
-1449971
-1449897
-1450310
-1450383
-1450503
-1450657
-1450493
-1450779
-1450888
-1450967
-1450947
-1450780
-1451040
-1451334
-1451311
-1451334
-1451231
-1451462
-1451716
-1451733
-1451951
-1451739
-1452132
-1452251
-1452117
-1452095
-1452008
-1452143
-1452308
-1452419
-1452476
-1452210
-1452294
-1452416
-1452557
-1452437
-1452263
-1452535
-1452639
-1452576
-1452657
-1452458
-1452827
-1452868
-1453021
-1453018
-1452873
-1453207
-1453172
-1453492
-1453538
-1453446
-1453779
-1453983
-1454015
-1454204
-1454086
-1454275
-1454616
-1454564
-1454763
-1454674
-1455038
-1455268
-1455494
-1455371
-1455399
-1455423
-1455579
-1455782
-1455672
-1455475
-1455862
-1455846
-1455680
-1455584
-1455370
-1455538
-1455588
-1455493
-1455288
-1455137
-1455012
-1454967
-1454990
-1454933
-1454726
-1454704
-1454806
-1454605
-1454576
-1454518
-1454545
-1454471
-1454551
-1454498
-1454313
-1454379
-1454308
-1454480
-1454460
-1454134
-1454154
-1454318
-1454396
-1454279
-1454016
-1454285
-1454326
-1454146
-1454170
-1453933
-1454160
-1454049
-1453990
-1453923
-1453871
-1453957
-1453917
-1454086
-1453971
-1453845
-1453898
-1454102
-1453987
-1454046
-1453985
-1454231
-1454437
-1454370
-1454268
-1454346
-1454618
-1454759
-1454799
-1454837
-1454856
-1455076
-1455230
-1455196
-1455241
-1455239
-1455410
-1455683
-1455609
-1455565
-1455414
-1455678
-1455831
-1455918
-1455906
-1455704
-1455958
-1455997
-1455957
-1455845
-1455618
-1455884
-1455747
-1455612
-1455581
-1455493
-1455559
-1455594
-1455407
-1455467
-1455322
-1455261
-1455436
-1455343
-1455300
-1455144
-1455158
-1455314
-1455232
-1455190
-1455063
-1455250
-1455251
-1455469
-1455381
-1455148
-1455428
-1455458
-1455554
-1455438
-1455346
-1455513
-1455459
-1455490
-1455471
-1455271
-1455618
-1455445
-1455448
-1455446
-1455255
-1455313
-1455303
-1455308
-1455078
-1454993
-1454979
-1454978
-1455004
-1455011
-1454858
-1455203
-1455120
-1455220
-1455079
-1455166
-1455206
-1455217
-1455530
-1455387
-1455272
-1455699
-1455734
-1455885
-1455808
-1455776
-1455900
-1456154
-1456410
-1456388
-1456345
-1456689
-1456871
-1457046
-1457052
-1457205
-1457470
-1457680
-1458103
-1457945
-1458134
-1458409
-1458752
-1458854
-1459074
-1459006
-1459279
-1459601
-1459663
-1459753
-1459750
-1460134
-1460309
-1460440
-1460550
-1460560
-1460901
-1461173
-1461392
-1461351
-1461452
-1461548
-1461863
-1461773
-1461990
-1461981
-1462209
-1462334
-1462476
-1462654
-1462724
-1463076
-1463126
-1463144
-1463312
-1463253
-1463600
-1463618
-1463812
-1463872
-1463960
-1464175
-1464391
-1464547
-1464476
-1464192
-1464220
-1464153
-1464144
-1463826
-1463344
-1463162
-1462740
-1462319
-1461529
-1460788
-1460264
-1459624
-1458894
-1458088
-1457052
-1456415
-1455713
-1454942
-1454130
-1453031
-1452454
-1451661
-1450931
-1450040
-1449266
-1448936
-1448238
-1447785
-1447071
-1446457
-1446285
-1445878
-1445643
-1445254
-1445030
-1444960
-1444809
-1444701
-1444621
-1444604
-1444729
-1444837
-1444917
-1444771
-1444653
-1444964
-1445177
-1445231
-1445288
-1445410
-1445647
-1445965
-1446013
-1446189
-1446166
-1446492
-1446825
-1446891
-1447009
-1447104
-1447464
-1447686
-1447950
-1447864
-1447932
-1448424
-1448505
-1448692
-1448790
-1448782
-1449053
-1449258
-1449481
-1449267
-1449224
-1449599
-1449749
-1449741
-1449713
-1449740
-1449989
-1450058
-1449917
-1449893
-1449715
-1449757
-1449785
-1449755
-1449894
-1449548
-1449615
-1449657
-1449750
-1449644
-1449450
-1449635
-1449482
-1449466
-1449241
-1449099
-1449298
-1449096
-1449198
-1448977
-1448965
-1449062
-1448964
-1449052
-1449023
-1448833
-1448957
-1449095
-1449092
-1449170
-1449030
-1449411
-1449428
-1449550
-1449471
-1449417
-1449699
-1449913
-1450048
-1450093
-1450034
-1450372
-1450545
-1450549
-1450614
-1450629
-1450855
-1450795
-1450825
-1450815
-1450674
-1450933
-1450905
-1450950
-1450762
-1450749
-1450919
-1450930
-1450783
-1450691
-1450428
-1450636
-1450672
-1450502
-1450384
-1450299
-1450262
-1450309
-1450286
-1450131
-1449802
-1449968
-1449838
-1449747
-1449610
-1449468
-1449619
-1449686
-1449681
-1449422
-1449211
-1449371
-1449339
-1449211
-1449076
-1448869
-1448974
-1448928
-1448863
-1448720
-1448499
-1448742
-1448691
-1448749
-1448540
-1448347
-1448542
-1448317
-1448260
-1448304
-1447980
-1448081
-1448132
-1447959
-1447757
-1447588
-1447628
-1447553
-1447578
-1447379
-1447252
-1447323
-1447352
-1447369
-1447345
-1447218
-1447193
-1447303
-1447345
-1447269
-1447212
-1447277
-1447446
-1447343
-1447312
-1447228
-1447418
-1447471
-1447414
-1447346
-1447287
-1447451
-1447602
-1447720
-1447706
-1447612
-1447772
-1447876
-1448006
-1448031
-1448066
-1448082
-1448190
-1448441
-1448435
-1448353
-1448492
-1448636
-1448710
-1448607
-1448496
-1448733
-1448679
-1448733
-1448904
-1448689
-1448859
-1448955
-1449135
-1449041
-1449006
-1449290
-1449542
-1449457
-1449431
-1449490
-1449512
-1449639
-1449703
-1449775
-1449738
-1449745
-1449898
-1449960
-1449847
-1449903
-1450149
-1450288
-1450374
-1450360
-1450230
-1450425
-1450602
-1450526
-1450599
-1450544
-1450665
-1450967
-1450870
-1450926
-1450868
-1451084
-1451043
-1451091
-1451032
-1451156
-1451273
-1451302
-1451299
-1451297
-1451313
-1451382
-1451528
-1451578
-1451660
-1451520
-1451622
-1451760
-1451873
-1452079
-1451946
-1452225
-1452208
-1452178
-1452295
-1452283
-1452279
-1452425
-1452448
-1452550
-1452583
-1452676
-1452874
-1452927
-1453051
-1453068
-1453405
-1453417
-1453571
-1453464
-1453695
-1453916
-1454044
-1454052
-1454039
-1454179
-1454258
-1454305
-1454393
-1454431
-1454707
-1454722
-1454789
-1454864
-1454871
-1454770
-1454898
-1454871
-1454637
-1454541
-1454393
-1454170
-1454011
-1453562
-1453057
-1452782
-1452168
-1451580
-1450941
-1450218
-1449504
-1448981
-1448320
-1447528
-1446877
-1446265
-1445480
-1444894
-1444257
-1443545
-1442881
-1442375
-1441824
-1441175
-1440564
-1440008
-1439659
-1439383
-1438836
-1438328
-1437936
-1437658
-1437386
-1437233
-1436842
-1436619
-1436527
-1436479
-1436436
-1436231
-1436091
-1436160
-1435999
-1435995
-1435843
-1436138
-1436214
-1436353
-1436510
-1436494
-1436646
-1436707
-1436840
-1436994
-1437147
-1437430
-1437491
-1437751
-1437772
-1437933
-1438014
-1438225
-1438335
-1438834
-1439049
-1439020
-1439161
-1438957
-1439002
-1439102
-1438988
-1439144
-1439126
-1439023
-1439046
-1438958
-1438910
-1438759
-1438529
-1438611
-1438440
-1438420
-1438167
-1437579
-1437558
-1437364
-1437324
-1437202
-1437302
-1437225
-1437247
-1437062
-1437080
-1437028
-1437095
-1437072
-1436953
-1437072
-1437231
-1437236
-1437214
-1437163
-1437223
-1437475
-1437764
-1437675
-1437788
-1437689
-1437938
-1437952
-1438130
-1437938
-1438036
-1438028
-1438020
-1438234
-1438318
-1438438
-1438406
-1438454
-1438582
-1438417
-1438402
-1438600
-1438522
-1438685
-1438560
-1438438
-1438673
-1438721
-1438523
-1438217
-1438164
-1438138
-1438220
-1438112
-1437985
-1437790
-1437834
-1437818
-1437760
-1437515
-1437368
-1437462
-1437168
-1436618
-1436332
-1436362
-1436283
-1436136
-1435981
-1435704
-1435515
-1435386
-1435384
-1435284
-1434984
-1434888
-1434902
-1434854
-1434843
-1434610
-1434564
-1434578
-1434370
-1434246
-1434290
-1433986
-1434038
-1434129
-1434118
-1433988
-1433856
-1434092
-1434176
-1434231
-1433993
-1433809
-1433951
-1433992
-1434056
-1433872
-1433782
-1433919
-1433881
-1434025
-1433867
-1433835
-1433908
-1433907
-1433902
-1433645
-1433586
-1433739
-1433963
-1433969
-1433742
-1433747
-1433781
-1433877
-1433904
-1433614
-1433671
-1433797
-1433667
-1433604
-1433668
-1433611
-1433585
-1433625
-1433745
-1433657
-1433601
-1433745
-1433765
-1433688
-1433581
-1433769
-1433920
-1434115
-1434036
-1433968
-1434202
-1434177
-1434133
-1434270
-1434250
-1434343
-1434524
-1434724
-1434557
-1434567
-1434844
-1434940
-1434926
-1434876
-1434979
-1435275
-1435461
-1435531
-1435417
-1435521
-1435957
-1436229
-1436085
-1436018
-1436137
-1436249
-1436207
-1436227
-1436267
-1436447
-1436446
-1436609
-1436720
-1436573
-1436707
-1436845
-1436969
-1437006
-1436896
-1436692
-1436872
-1437145
-1437251
-1436988
-1436990
-1437282
-1437260
-1437365
-1437349
-1437332
-1437462
-1437495
-1437774
-1437830
-1437886
-1437928
-1437986
-1438041
-1438031
-1438276
-1438370
-1438492
-1438559
-1438722
-1438647
-1438861
-1439029
-1439148
-1439151
-1439212
-1439549
-1439705
-1440296
-1439844
-1439504
-1439117
-1438856
-1438270
-1437626
-1436941
-1436205
-1435701
-1435153
-1434336
-1433446
-1432586
-1431916
-1431051
-1430188
-1429123
-1428292
-1427638
-1426785
-1426101
-1425170
-1424091
-1423382
-1422827
-1422053
-1421348
-1420635
-1420150
-1419723
-1418709
-1418425
-1418070
-1417840
-1417410
-1417049
-1416620
-1416373
-1416432
-1416328
-1416282
-1416338
-1416090
-1416339
-1416283
-1416233
-1416458
-1416398
-1416434
-1416537
-1416721
-1416822
-1416882
-1417042
-1417237
-1417274
-1417321
-1417390
-1417359
-1417454
-1417490
-1417482
-1417467
-1417645
-1417772
-1417957
-1417856
-1417869
-1418074
-1418151
-1418132
-1418095
-1418192
-1418238
-1418423
-1418476
-1418623
-1418639
-1419065
-1419045
-1419158
-1419076
-1419408
-1419860
-1419975
-1420241
-1420273
-1420361
-1420765
-1420781
-1420999
-1421115
-1421104
-1421245
-1421386
-1421406
-1421195
-1421181
-1421352
-1421423
-1421196
-1421376
-1421323
-1421371
-1421468
-1421292
-1421420
-1421393
-1421311
-1421380
-1421456
-1421431
-1421243
-1421391
-1421706
-1421684
-1421747
-1421579
-1421932
-1421860
-1421894
-1421976
-1421896
-1422115
-1422327
-1422437
-1422473
-1422340
-1422442
-1422472
-1422350
-1422479
-1422360
-1422291
-1423099
-1422434
-1421966
-1421781
-1421693
-1421660
-1421386
-1421183
-1420786
-1421138
-1421590
-1421136
-1420950
-1421053
-1421326
-1421434
-1421130
-1420991
-1421258
-1421245
-1421268
-1421167
-1421031
-1421171
-1421001
-1421060
-1421155
-1421123
-1421233
-1421307
-1421211
-1421207
-1421095
-1421264
-1421522
-1421472
-1421626
-1421528
-1421713
-1421844
-1422094
-1422144
-1422102
-1422232
-1422410
-1422548
-1422648
-1422907
-1423132
-1423291
-1423332
-1423453
-1423614
-1423887
-1424136
-1424381
-1424302
-1424468
-1424787
-1424965
-1425069
-1425188
-1425052
-1425309
-1425505
-1425671
-1425782
-1425837
-1426118
-1426381
-1426514
-1426709
-1426644
-1426846
-1427152
-1427391
-1427339
-1427450
-1427641
-1427934
-1428008
-1428159
-1428078
-1428520
-1428636
-1428788
-1428965
-1429072
-1430535
-1429913
-1429568
-1429757
-1429724
-1430080
-1430195
-1430150
-1430469
-1430391
-1430630
-1431014
-1431197
-1431048
-1431043
-1431439
-1431600
-1431755
-1431752
-1431899
-1432137
-1432232
-1432406
-1432452
-1432449
-1432676
-1432739
-1432824
-1433058
-1432953
-1433404
-1433618
-1433606
-1433363
-1433632
-1434019
-1434212
-1434593
-1434514
-1434332
-1434715
-1434793
-1434742
-1434943
-1434919
-1435183
-1435345
-1435659
-1435690
-1435642
-1435810
-1435965
-1436088
-1436205
-1436415
-1436663
-1436795
-1436819
-1436872
-1437022
-1437140
-1437482
-1437462
-1437611
-1437571
-1437849
-1438063
-1438211
-1438325
-1438345
-1438695
-1438921
-1439048
-1439154
-1439002
-1439284
-1439402
-1439617
-1439645
-1439655
-1439901
-1440063
-1440127
-1440306
-1440293
-1440296
-1440487
-1440503
-1440423
-1440274
-1440093
-1439998
-1439826
-1439554
-1439011
-1438662
-1438228
-1437806
-1437296
-1436635
-1436059
-1435529
-1434707
-1434027
-1433305
-1432619
-1432069
-1431263
-1430516
-1429630
-1429303
-1428827
-1428194
-1427467
-1426811
-1426349
-1425993
-1425480
-1425143
-1424061
-1423962
-1423798
-1423601
-1423114
-1422735
-1422581
-1422490
-1422154
-1422035
-1421593
-1421730
-1421620
-1421577
-1421392
-1421321
-1421298
-1421228
-1421376
-1421278
-1421294
-1421431
-1421495
-1421539
-1421794
-1421547
-1421929
-1422174
-1422201
-1422272
-1422408
-1422605
-1422675
-1422769
-1423091
-1423041
-1423179
-1423508
-1423651
-1423633
-1423529
-1423900
-1424104
-1424029
-1424209
-1423788
-1424214
-1424316
-1424409
-1424324
-1424206
-1424459
-1424196
-1424352
-1424235
-1423886
-1424034
-1423981
-1424047
-1423968
-1423648
-1423742
-1423781
-1423769
-1423680
-1423279
-1423353
-1423358
-1423293
-1423141
-1423025
-1423086
-1423254
-1422877
-1423177
-1423073
-1423178
-1423235
-1423365
-1423434
-1423418
-1423653
-1423934
-1424061
-1424166
-1424255
-1424377
-1424723
-1424857
-1425068
-1425027
-1425351
-1425477
-1425563
-1425739
-1425713
-1426045
-1426263
-1426345
-1426586
-1426436
-1426709
-1427143
-1427033
-1427023
-1426889
-1426892
-1426903
-1426873
-1427120
-1426827
-1426881
-1426962
-1426927
-1426825
-1426557
-1427937
-1426971
-1426661
-1426539
-1426504
-1426678
-1426479
-1426314
-1426405
-1426231
-1426494
-1426362
-1426582
-1426402
-1426238
-1426285
-1426453
-1426392
-1426395
-1426290
-1426544
-1426674
-1426640
-1426827
-1426774
-1426737
-1426864
-1427085
-1427024
-1426950
-1427231
-1427377
-1427394
-1427398
-1427305
-1427606
-1427638
-1427745
-1427958
-1427940
-1428121
-1428108
-1427844
-1428288
-1428127
-1428355
-1428529
-1428798
-1428872
-1428712
-1428950
-1429031
-1429209
-1429163
-1429052
-1429292
-1429346
-1429503
-1429754
-1429551
-1429749
-1429841
-1430033
-1430074
-1430025
-1430080
-1430264
-1430458
-1430698
-1430632
-1430846
-1430924
-1430975
-1431107
-1431157
-1431436
-1431585
-1431589
-1431602
-1431690
-1431870
-1432129
-1432260
-1432368
-1432286
-1432558
-1432704
-1433006
-1432870
-1433046
-1433269
-1433268
-1433357
-1433421
-1433280
-1433330
-1433643
-1433575
-1433740
-1433595
-1433805
-1433724
-1433767
-1433998
-1433911
-1434222
-1434275
-1434379
-1434464
-1434422
-1434640
-1434650
-1434591
-1434851
-1434865
-1434900
-1435186
-1435267
-1435331
-1435093
-1435416
-1435556
-1435588
-1435764
-1435675
-1435696
-1435882
-1435967
-1436031
-1435984
-1436316
-1436410
-1436429
-1436459
-1436267
-1436555
-1436590
-1436711
-1436833
-1437757
-1437242
-1437186
-1437221
-1437203
-1436948
-1437159
-1438007
-1437470
-1437249
-1437068
-1437067
-1436994
-1436948
-1436653
-1436447
-1436237
-1436076
-1435508
-1435829
-1434610
-1433995
-1433585
-1432821
-1432231
-1431426
-1430872
-1430215
-1429559
-1428748
-1427896
-1427239
-1426311
-1425754
-1425346
-1424015
-1423835
-1423405
-1422746
-1422127
-1421481
-1421163
-1420646
-1420146
-1419696
-1419095
-1418953
-1418701
-1418362
-1418237
-1417950
-1417868
-1417635
-1417569
-1417394
-1417158
-1417430
-1417393
-1417497
-1417324
-1417337
-1417678
-1417746
-1417681
-1417972
-1417868
-1418186
-1418221
-1418402
-1418512
-1418460
-1418965
-1419249
-1419372
-1419431
-1419811
-1420002
-1420070
-1420320
-1420243
-1420384
-1420668
-1420835
-1421140
-1421583
-1421521
-1421519
-1421552
-1421658
-1421636
-1421867
-1421843
-1422042
-1421912
-1421870
-1422051
-1422110
-1422235
-1422270
-1422276
-1422510
-1422403
-1422569
-1422178
-1422452
-1422537
-1422607
-1422707
-1422701
-1422773
-1423038
-1422999
-1423173
-1423202
-1423317
-1423434
-1423780
-1423913
-1423937
-1423987
-1424335
-1424458
-1424702
-1425006
-1424802
-1425014
-1425262
-1425538
-1425701
-1425651
-1426128
-1426145
-1426237
-1426500
-1426272
-1426634
-1426658
-1426814
-1426911
-1426856
-1426822
-1426559
-1426934
-1427095
-1427046
-1427215
-1427305
-1427251
-1427278
-1427276
-1427327
-1427478
-1427221
-1427374
-1426973
-1427293
-1427158
-1427372
-1427226
-1427192
-1427411
-1427286
-1427419
-1427418
-1427271
-1427456
-1427177
-1427383
-1427487
-1427358
-1427340
-1427338
-1427520
-1427541
-1427543
-1427472
-1427747
-1427660
-1427817
-1427773
-1427963
-1428048
-1427917
-1427791
-1427940
-1428288
-1428396
-1428358
-1428538
-1428428
-1428574
-1428658
-1428796
-1428800
-1428807
-1429005
-1429173
-1429124
-1429192
-1429252
-1429560
-1429760
-1429778
-1430006
-1429842
-1430223
-1430459
-1430639
-1430575
-1430793
-1431126
-1431341
-1431178
-1431154
-1431417
-1431588
-1431629
-1431739
-1431862
-1432128
-1432322
-1432354
-1432401
-1432245
-1432520
-1432769
-1432887
-1432968
-1432855
-1433070
-1433365
-1433432
-1433697
-1433514
-1433753
-1433909
-1433935
-1434240
-1434217
-1434368
-1434739
-1434769
-1434925
-1434840
-1436114
-1435848
-1435823
-1435776
-1435870
-1435942
-1436370
-1436532
-1436646
-1436668
-1437121
-1437354
-1437639
-1437607
-1437596
-1438028
-1438326
-1438517
-1438581
-1438729
-1438918
-1439319
-1439525
-1439498
-1439667
-1439862
-1439980
-1440309
-1440333
-1440476
-1440594
-1440419
-1440836
-1441180
-1441257
-1441464
-1441534
-1441722
-1441568
-1441545
-1442114
-1442187
-1442271
-1442438
-1442501
-1442646
-1442950
-1443161
-1443032
-1443086
-1443424
-1443593
-1443790
-1443724
-1443678
-1443815
-1444051
-1444160
-1444191
-1443826
-1444041
-1443999
-1443706
-1443576
-1443090
-1442871
-1442500
-1441955
-1441516
-1440859
-1440238
-1439633
-1438919
-1438185
-1437017
-1436674
-1436232
-1435473
-1434615
-1433805
-1433290
-1432513
-1431959
-1431232
-1430464
-1430095
-1429492
-1428922
-1428407
-1427659
-1427240
-1427048
-1426587
-1426345
-1425728
-1425533
-1425330
-1425176
-1425017
-1424796
-1424843
-1424504
-1424549
-1424665
-1424674
-1424665
-1424775
-1424807
-1425020
-1424988
-1424942
-1425200
-1425438
-1426385
-1425857
-1425663
-1425585
-1425928
-1425972
-1425936
-1426083
-1426229
-1426417
-1426442
-1426446
-1426412
-1426629
-1426860
-1427009
-1427014
-1426845
-1426956
-1427036
-1427078
-1427177
-1426943
-1427081
-1427216
-1427332
-1427433
-1427278
-1427386
-1427355
-1427457
-1427263
-1428304
-1427676
-1427611
-1427449
-1427491
-1427417
-1427523
-1427555
-1427696
-1427532
-1427506
-1428769
-1428177
-1428041
-1427933
-1427768
-1428038
-1428102
-1428329
-1428341
-1428231
-1428578
-1428839
-1428972
-1428950
-1428936
-1429096
-1429263
-1429533
-1429645
-1429583
-1429903
-1429932
-1430033
-1430208
-1430068
-1430270
-1430512
-1430637
-1430642
-1430650
-1430785
-1430851
-1430871
-1430990
-1430987
-1430904
-1431161
-1431106
-1431285
-1431234
-1431217
-1431365
-1431329
-1431285
-1431210
-1431059
-1431287
-1431469
-1431401
-1431414
-1431368
-1431541
-1431409
-1431514
-1431326
-1431469
-1431553
-1431563
-1431377
-1431193
-1431079
-1431191
-1431434
-1431219
-1431274
-1431319
-1431443
-1431319
-1431062
-1431073
-1430751
-1431108
-1431254
-1431146
-1431104
-1431019
-1431288
-1431392
-1431181
-1431044
-1431129
-1431171
-1431417
-1431401
-1431328
-1431529
-1431409
-1431608
-1431569
-1431603
-1431839
-1431934
-1431982
-1432001
-1431783
-1431979
-1432228
-1432262
-1432230
-1432441
-1432644
-1432817
-1432970
-1432773
-1432707
-1433094
-1433262
-1433382
-1433416
-1433314
-1433574
-1433782
-1434047
-1434564
-1434694
-1434744
-1434997
-1435332
-1435459
-1435495
-1435771
-1436185
-1436466
-1436614
-1436548
-1436825
-1437080
-1436971
-1437183
-1437410
-1437811
-1438039
-1438098
-1438071
-1438078
-1438412
-1438800
-1438766
-1438900
-1438654
-1439206
-1439561
-1439887
-1439908
-1439973
-1440405
-1440476
-1440691
-1440820
-1440983
-1441187
-1441434
-1441663
-1441775
-1441807
-1442158
-1442367
-1442587
-1442669
-1442831
-1443233
-1443375
-1443497
-1443663
-1443795
-1444017
-1444119
-1444436
-1444625
-1444522
-1444772
-1444924
-1444890
-1445071
-1445052
-1445201
-1445438
-1445479
-1445383
-1445451
-1445815
-1445813
-1445912
-1446159
-1445897
-1445908
-1445928
-1445836
-1445564
-1445360
-1445337
-1444892
-1444681
-1444218
-1443641
-1443275
-1442514
-1442106
-1441330
-1440760
-1440215
-1439743
-1439109
-1438237
-1437440
-1436942
-1436480
-1435660
-1434902
-1434235
-1433713
-1433117
-1432769
-1432080
-1431498
-1431127
-1431607
-1430432
-1429781
-1429280
-1429157
-1428766
-1428521
-1428160
-1427648
-1427558
-1427660
-1427372
-1427185
-1426973
-1427118
-1427194
-1426972
-1427000
-1427111
-1427282
-1427115
-1427002
-1426964
-1427316
-1427346
-1427343
-1427235
-1427273
-1427444
-1427561
-1427796
-1427757
-1427645
-1427996
-1428011
-1427913
-1428023
-1427916
-1428139
-1428175
-1428101
-1428053
-1427813
-1428154
-1428041
-1427921
-1427818
-1427672
-1427610
-1427592
-1427437
-1427012
-1426686
-1426722
-1426548
-1426429
-1426366
-1426003
-1425970
-1425876
-1425668
-1425531
-1424870
-1424662
-1424377
-1424166
-1423840
-1423529
-1423374
-1423050
-1422614
-1421929
-1421756
-1421567
-1421502
-1421192
-1420956
-1420681
-1420700
-1420599
-1420499
-1420374
-1420419
-1420496
-1420559
-1420542
-1420533
-1420509
-1420868
-1420902
-1421008
-1420856
-1420809
-1421057
-1421051
-1421144
-1421033
-1420949
-1420969
-1421096
-1421080
-1420990
-1420956
-1420972
-1420979
-1420711
-1420407
-1420262
-1420271
-1420211
-1420067
-1419834
-1419670
-1419454
-1419432
-1419109
-1418884
-1418571
-1418591
-1418407
-1418243
-1418118
-1417934
-1417944
-1417769
-1417655
-1417374
-1417311
-1416846
-1416598
-1416896
-1416693
-1416640
-1416750
-1416862
-1416782
-1416573
-1416411
-1416687
-1416607
-1416840
-1416694
-1416519
-1416806
-1416808
-1416904
-1416970
-1416674
-1416935
-1416836
-1416866
-1416902
-1416929
-1416976
-1417032
-1417105
-1417212
-1417174
-1417373
-1417320
-1417313
-1417496
-1417198
-1417523
-1417597
-1417664
-1417676
-1417582
-1417719
-1417814
-1417822
-1417873
-1417905
-1417986
-1418078
-1418209
-1418152
-1418134
-1418352
-1418378
-1418413
-1418636
-1419358
-1418977
-1418691
-1418910
-1419062
-1418971
-1419324
-1419443
-1419579
-1419541
-1419588
-1419741
-1419710
-1420010
-1419891
-1419868
-1420108
-1420194
-1420414
-1420510
-1420493
-1420664
-1420910
-1421095
-1421190
-1421084
-1421216
-1421590
-1421649
-1421766
-1421411
-1421685
-1422051
-1422132
-1422286
-1422041
-1422305
-1422289
-1422520
-1422441
-1422413
-1422610
-1422658
-1422818
-1422786
-1422728
-1423034
-1423106
-1423350
-1423268
-1423227
-1423396
-1423808
-1423858
-1423941
-1424029
-1424368
-1424565
-1424484
-1424697
-1424825
-1425092
-1425294
-1425510
-1425579
-1425634
-1425655
-1425811
-1426056
-1425834
-1426160
-1426145
-1426212
-1426186
-1426027
-1425720
-1425734
-1425577
-1425266
-1424692
-1424011
-1423459
-1422982
-1422097
-1421363
-1420455
-1419716
-1418857
-1417823
-1416667
-1415818
-1414783
-1414103
-1413892
-1412174
-1411045
-1410119
-1409195
-1408404
-1407375
-1406402
-1405881
-1405109
-1404569
-1404040
-1403209
-1402613
-1402071
-1401677
-1401209
-1400854
-1400571
-1400431
-1400261
-1400271
-1399990
-1399863
-1399842
-1399980
-1400033
-1399784
-1399985
-1400184
-1400434
-1400514
-1400387
-1400685
-1400782
-1401117
-1401260
-1401311
-1401635
-1401779
-1402094
-1402278
-1402277
-1402482
-1402767
-1403330
-1403337
-1403367
-1404457
-1403724
-1403934
-1403924
-1404213
-1404407
-1404392
-1404748
-1405689
-1405686
-1405411
-1405876
-1406006
-1406253
-1406374
-1406380
-1406549
-1406551
-1406795
-1406709
-1406667
-1406795
-1406960
-1407008
-1407032
-1406841
-1407111
-1407386
-1407224
-1407367
-1407249
-1407363
-1407554
-1407589
-1407633
-1407509
-1407576
-1407746
-1407907
-1408059
-1407987
-1408088
-1408228
-1408346
-1408448
-1408534
-1408724
-1408862
-1409191
-1409308
-1409267
-1409420
-1409720
-1410015
-1410283
-1410227
-1410074
-1410616
-1410912
-1411176
-1411062
-1411444
-1411667
-1411790
-1412136
-1412200
-1412251
-1412516
-1412672
-1412712
-1412692
-1412870
-1413153
-1413188
-1413454
-1413323
-1413455
-1413668
-1413674
-1413725
-1413705
-1413781
-1413876
-1413776
-1414000
-1413811
-1413733
-1413965
-1414022
-1414009
-1413789
-1413998
-1414140
-1414072
-1414130
-1413882
-1414021
-1414064
-1414119
-1414113
-1414060
-1414157
-1414314
-1414312
-1414366
-1414247
-1414088
-1414185
-1414238
-1414294
-1414105
-1414254
-1414473
-1414550
-1414552
-1414296
-1414397
-1414528
-1414758
-1414865
-1414692
-1414762
-1414935
-1415125
-1414985
-1414921
-1415115
-1415343
-1415430
-1415394
-1415273
-1415473
-1415644
-1415767
-1415817
-1415617
-1415796
-1415907
-1416147
-1416034
-1416013
-1416030
-1416451
-1416517
-1416452
-1416379
-1416430
-1416787
-1416962
-1417066
-1417011
-1417133
-1417300
-1417354
-1417439
-1417321
-1417467
-1417632
-1417562
-1417628
-1417557
-1417811
-1417983
-1418011
-1417992
-1417949
-1417928
-1418329
-1419097
-1418616
-1418540
-1418510
-1418557
-1418683
-1418723
-1418571
-1418738
-1419100
-1419037
-1419204
-1419101
-1419362
-1419329
-1419533
-1419578
-1419567
-1419475
-1419805
-1420052
-1419970
-1419886
-1420028
-1420173
-1420287
-1420292
-1420270
-1420489
-1420672
-1420744
-1420830
-1420748
-1420876
-1420920
-1421051
-1421061
-1421139
-1421155
-1421437
-1421423
-1421358
-1421284
-1421468
-1421558
-1421660
-1421707
-1421541
-1421753
-1421781
-1421914
-1421928
-1421821
-1421905
-1422098
-1422271
-1422221
-1422306
-1422256
-1422370
-1422403
-1422575
-1422451
-1422427
-1422568
-1422502
-1422224
-1421915
-1421780
-1421535
-1421403
-1421063
-1420544
-1420094
-1419817
-1419259
-1418686
-1418006
-1417262
-1416796
-1416318
-1415651
-1414797
-1413915
-1413545
-1413182
-1412670
-1411691
-1411130
-1410643
-1410127
-1409561
-1408937
-1408372
-1408049
-1407548
-1406997
-1406469
-1406277
-1405915
-1405609
-1405312
-1405006
-1404714
-1404663
-1404550
-1404216
-1403991
-1403791
-1403810
-1403661
-1403692
-1403419
-1403134
-1403235
-1403095
-1402961
-1402783
-1402885
-1402884
-1402973
-1403029
-1402761
-1402716
-1402732
-1402876
-1402820
-1402572
-1402526
-1402742
-1402872
-1402767
-1402526
-1402437
-1402511
-1402641
-1402493
-1402339
-1402208
-1402282
-1402271
-1402238
-1402061
-1402079
-1402093
-1402018
-1402150
-1401895
-1401738
-1401792
-1401851
-1401578
-1401368
-1401276
-1401346
-1401264
-1401577
-1401287
-1400994
-1401065
-1401029
-1401090
-1400756
-1400556
-1400784
-1400839
-1400658
-1400473
-1400480
-1400656
-1400628
-1400548
-1400513
-1400475
-1400603
-1400646
-1400717
-1400619
-1400819
-1401030
-1401111
-1401129
-1401083
-1401199
-1401447
-1401557
-1401679
-1401841
-1401733
-1402107
-1402422
-1402574
-1403780
-1403126
-1403134
-1403263
-1403235
-1403393
-1403337
-1403814
-1403804
-1404132
-1404098
-1404012
-1404135
-1404369
-1404423
-1404284
-1404254
-1404426
-1404437
-1404495
-1404260
-1404294
-1404398
-1404200
-1404251
-1404046
-1403905
-1404033
-1403974
-1403957
-1403676
-1403579
-1403768
-1403682
-1403636
-1403541
-1403173
-1403267
-1403307
-1403301
-1403152
-1402985
-1403112
-1403185
-1403107
-1403089
-1403003
-1403752
-1403375
-1403254
-1403126
-1403021
-1403149
-1403349
-1403214
-1404400
-1403464
-1403323
-1403260
-1403226
-1403327
-1403325
-1403441
-1403564
-1403692
-1403452
-1403574
-1403829
-1403854
-1403944
-1403956
-1403939
-1404189
-1404260
-1404206
-1404092
-1404103
-1404340
-1404453
-1404429
-1404599
-1404516
-1404791
-1404716
-1404793
-1405757
-1405159
-1405108
-1405136
-1405007
-1404975
-1405155
-1405307
-1405328
-1405519
-1405513
-1405337
-1405524
-1405722
-1405652
-1405611
-1405412
-1405574
-1405792
-1405754
-1405739
-1405293
-1405615
-1405745
-1405554
-1405526
-1405537
-1405737
-1405767
-1405687
-1405456
-1405382
-1405360
-1405562
-1405586
-1405482
-1405236
-1405304
-1405390
-1405378
-1405247
-1405168
-1405247
-1405360
-1405150
-1405183
-1405113
-1405277
-1405196
-1405340
-1405023
-1404145
-1404912
-1405315
-1405309
-1405327
-1405297
-1405490
-1405517
-1405632
-1405481
-1405470
-1405754
-1405786
-1405518
-1405470
-1405336
-1405346
-1405588
-1405674
-1405645
-1405748
-1405957
-1405944
-1405986
-1405820
-1405783
-1405871
-1406054
-1406024
-1406074
-1405868
-1406122
-1406216
-1406076
-1406110
-1406108
-1406114
-1406206
-1406228
-1406115
-1406132
-1406323
-1407119
-1406434
-1406016
-1405700
-1405830
-1405502
-1405278
-1404705
-1404318
-1404017
-1403616
-1403030
-1402233
-1401562
-1400913
-1400365
-1399467
-1398912
-1397836
-1397271
-1396568
-1395719
-1394801
-1393831
-1393156
-1392590
-1391817
-1388639
-1388051
-1387403
-1386916
-1386340
-1385829
-1385211
-1384739
-1384671
-1384389
-1383902
-1383688
-1383417
-1383084
-1383162
-1382779
-1382748
-1382284
-1382384
-1382209
-1382059
-1381653
-1381820
-1381889
-1381837
-1382007
-1381944
-1381735
-1381860
-1381789
-1381917
-1381734
-1381688
-1381870
-1381900
-1381706
-1381622
-1381473
-1381688
-1381536
-1381693
-1381519
-1381319
-1381459
-1381367
-1381340
-1381168
-1381094
-1381204
-1381047
-1381069
-1380947
-1380514
-1380603
-1380766
-1380638
-1380375
-1380095
-1380064
-1379988
-1379739
-1379597
-1379383
-1379576
-1379473
-1379131
-1378849
-1378622
-1378573
-1378572
-1378215
-1378023
-1377716
-1377786
-1377581
-1377481
-1377280
-1376867
-1377036
-1376886
-1376727
-1376699
-1376346
-1376422
-1376520
-1376503
-1376363
-1376214
-1376454
-1376409
-1376581
-1376591
-1376386
-1376719
-1376689
-1376486
-1376787
-1376907
-1377227
-1377374
-1377425
-1377507
-1377519
-1377811
-1377888
-1377889
-1377884
-1377786
-1378025
-1378130
-1378236
-1378321
-1378374
-1378455
-1378416
-1378947
-1378489
-1378424
-1378604
-1378670
-1378569
-1378646
-1378531
-1378806
-1378912
-1379142
-1379103
-1378949
-1379146
-1379350
-1379493
-1379424
-1379248
-1379499
-1379548
-1379501
-1379503
-1379354
-1379724
-1379742
-1379745
-1379753
-1379806
-1379842
-1380051
-1380057
-1380086
-1379849
-1380157
-1380196
-1380146
-1380315
-1380238
-1380343
-1380359
-1380327
-1380376
-1380181
-1380350
-1380412
-1380142
-1380419
-1380349
-1380453
-1380654
-1380655
-1380632
-1380482
-1380732
-1380902
-1380978
-1380955
-1380835
-1381166
-1381323
-1381382
-1381458
-1381525
-1381845
-1381865
-1381997
-1381857
-1383317
-1382707
-1382691
-1382911
-1382721
-1382871
-1383182
-1383500
-1383676
-1383780
-1383718
-1384059
-1384213
-1384398
-1385309
-1384621
-1384699
-1385003
-1385131
-1385127
-1385001
-1385311
-1385451
-1385700
-1385656
-1385711
-1385814
-1385981
-1385987
-1386200
-1386056
-1386177
-1386466
-1386473
-1386498
-1387020
-1386570
-1387029
-1386845
-1387143
-1387133
-1388190
-1387655
-1387778
-1387885
-1387941
-1388085
-1388286
-1388426
-1388675
-1388576
-1388848
-1388874
-1388900
-1389186
-1388965
-1389318
-1389467
-1389423
-1389647
-1389343
-1389684
-1389821
-1389963
-1389993
-1389752
-1390003
-1390208
-1390325
-1390398
-1390198
-1390394
-1390662
-1390627
-1390688
-1390724
-1391052
-1391229
-1391233
-1391347
-1391355
-1391637
-1391715
-1392014
-1392069
-1391988
-1392339
-1392593
-1392662
-1392817
-1392904
-1393110
-1393291
-1393565
-1393670
-1393600
-1393831
-1394137
-1394515
-1394662
-1394779
-1394968
-1395155
-1395485
-1395577
-1395507
-1395808
-1396129
-1396392
-1396508
-1396647
-1396816
-1396973
-1397202
-1397306
-1397067
-1397255
-1397098
-1397107
-1397005
-1396454
-1396272
-1396094
-1395828
-1395358
-1394578
-1394317
-1393892
-1393257
-1392519
-1391775
-1391317
-1390799
-1390291
-1389767
-1388851
-1388400
-1387892
-1387476
-1386893
-1386135
-1385914
-1385590
-1385165
-1384861
-1384150
-1384010
-1383826
-1383472
-1383241
-1382885
-1382912
-1382832
-1382756
-1382707
-1382629
-1382671
-1382845
-1382569
-1382713
-1382511
-1382822
-1382926
-1383076
-1382996
-1382828
-1383169
-1383279
-1383208
-1383225
-1383152
-1383433
-1383568
-1383773
-1383740
-1383576
-1383783
-1384081
-1383956
-1384052
-1383495
-1383868
-1384104
-1384176
-1383962
-1383926
-1384008
-1384027
-1384021
-1383897
-1383783
-1383888
-1383889
-1383687
-1383623
-1383126
-1383464
-1383408
-1383522
-1383390
-1383145
-1382876
-1383045
-1383148
-1383046
-1382489
-1382644
-1382734
-1382662
-1382534
-1382183
-1382694
-1382450
-1383149
-1382616
-1382211
-1382086
-1382211
-1382264
-1382135
-1381932
-1382258
-1382395
-1382238
-1382396
-1382284
-1382617
-1382663
-1382805
-1382867
-1382891
-1383280
-1383568
-1383652
-1383822
-1383996
-1384170
-1384612
-1384790
-1385056
-1385031
-1385284
-1385585
-1385878
-1386012
-1386073
-1386449
-1386611
-1386796
-1387025
-1386961
-1387271
-1387533
-1387700
-1387744
-1387870
-1387867
-1388130
-1388232
-1388217
-1388307
-1388438
-1388496
-1388621
-1388757
-1388591
-1388806
-1388910
-1388931
-1388922
-1388648
-1389037
-1389090
-1389185
-1389305
-1389105
-1389099
-1389248
-1389291
-1389246
-1389139
-1389314
-1389243
-1388840
-1388995
-1388880
-1389155
-1389272
-1389198
-1389166
-1389046
-1389213
-1389199
-1388963
-1389165
-1388873
-1388931
-1389071
-1389066
-1389115
-1389118
-1389115
-1389302
-1389357
-1389291
-1389141
-1389561
-1389731
-1389795
-1389951
-1389898
-1389987
-1389872
-1390124
-1390464
-1390293
-1390483
-1390791
-1390980
-1391016
-1390939
-1391068
-1391253
-1391330
-1391516
-1391321
-1391481
-1391598
-1391842
-1391969
-1391934
-1392138
-1392183
-1392214
-1392352
-1392186
-1392278
-1392625
-1392751
-1392823
-1392734
-1393102
-1393269
-1393354
-1393591
-1393654
-1393985
-1394161
-1394273
-1394454
-1394604
-1395115
-1395241
-1395607
-1395858
-1395894
-1396438
-1396910
-1397124
-1397292
-1397574
-1398084
-1398353
-1398598
-1398869
-1400010
-1399863
-1400232
-1400436
-1400401
-1400798
-1401494
-1401848
-1402198
-1402472
-1402573
-1402944
-1403381
-1403667
-1404095
-1404071
-1404432
-1404861
-1405034
-1405226
-1405346
-1405716
-1407254
-1406668
-1406557
-1406591
-1407057
-1407277
-1407591
-1408720
-1408040
-1408080
-1408459
-1408628
-1408993
-1410106
-1410295
-1410736
-1410927
-1410956
-1410932
-1411180
-1411446
-1411624
-1411853
-1411895
-1412101
-1412394
-1412417
-1412703
-1412526
-1412875
-1412916
-1413007
-1412853
-1412984
-1413300
-1413471
-1413415
-1413485
-1413580
-1413902
-1414005
-1414840
-1414150
-1413974
-1414084
-1414272
-1414198
-1414276
-1414082
-1414191
-1414245
-1414027
-1414098
-1413993
-1414109
-1414248
-1414222
-1414167
-1413904
-1413798
-1413723
-1413658
-1413638
-1413112
-1412539
-1412630
-1412499
-1412226
-1411762
-1411324
-1411155
-1410495
-1409908
-1409237
-1408831
-1408325
-1407743
-1407244
-1406439
-1405991
-1405586
-1404613
-1404252
-1403722
-1403240
-1402744
-1402210
-1401852
-1401298
-1400680
-1400712
-1400465
-1400013
-1399512
-1399589
-1399330
-1399122
-1398817
-1398665
-1398445
-1398369
-1398285
-1398140
-1397927
-1398038
-1397788
-1397474
-1397728
-1397587
-1397727
-1397710
-1397787
-1397711
-1397562
-1397735
-1397726
-1397848
-1397873
-1397679
-1397781
-1397918
-1398875
-1398108
-1397689
-1397769
-1397628
-1397644
-1397603
-1397416
-1397643
-1397438
-1397482
-1397494
-1397140
-1397066
-1397173
-1397024
-1396823
-1396552
-1396716
-1396526
-1396378
-1396217
-1395774
-1395595
-1395566
-1395178
-1394985
-1394521
-1394496
-1394357
-1394042
-1393690
-1393257
-1392906
-1392582
-1392227
-1392048
-1391487
-1391463
-1391078
-1390666
-1390425
-1389975
-1389804
-1389558
-1389247
-1389120
-1388714
-1388616
-1388588
-1388418
-1388194
-1388032
-1388087
-1388052
-1387851
-1388018
-1387786
-1387960
-1388090
-1387994
-1388124
-1388160
-1388485
-1388865
-1388994
-1389253
-1389358
-1389715
-1390075
-1390139
-1390383
-1390651
-1391005
-1391351
-1391555
-1391717
-1391793
-1392273
-1392578
-1392670
-1392854
-1392968
-1393294
-1394181
-1393855
-1393858
-1393805
-1394135
-1394293
-1394502
-1394777
-1394685
-1394941
-1395209
-1395307
-1395249
-1395260
-1395406
-1395668
-1395693
-1395769
-1395628
-1395804
-1396113
-1396191
-1396122
-1396014
-1396236
-1395974
-1395529
-1395781
-1395653
-1395680
-1395608
-1395627
-1395612
-1395157
-1395228
-1395169
-1395282
-1395103
-1394865
-1394946
-1395092
-1395245
-1395140
-1395100
-1395186
-1395226
-1395192
-1395195
-1395084
-1395290
-1395509
-1395570
-1395515
-1395365
-1395598
-1395852
-1395810
-1395885
-1395881
-1395875
-1396179
-1396169
-1396272
-1396098
-1396377
-1396566
-1396605
-1396745
-1396552
-1396675
-1396845
-1397015
-1397097
-1397266
-1397479
-1397413
-1397471
-1397266
-1397567
-1397602
-1397852
-1397919
-1397751
-1397902
-1397958
-1398059
-1398129
-1397987
-1398206
-1398266
-1398422
-1398388
-1398279
-1398385
-1398529
-1398705
-1398719
-1398623
-1398958
-1399181
-1399166
-1399200
-1399043
-1399178
-1399367
-1399380
-1399520
-1399519
-1399568
-1399782
-1399822
-1399756
-1399549
-1399816
-1399995
-1400081
-1399999
-1399751
-1399844
-1399958
-1399990
-1399986
-1399843
-1400087
-1400259
-1400280
-1400291
-1400119
-1400346
-1400477
-1400305
-1400151
-1400107
-1400170
-1400297
-1400241
-1400208
-1400009
-1400032
-1400199
-1400038
-1400069
-1399863
-1400012
-1400199
-1400225
-1400238
-1400176
-1400356
-1400297
-1400356
-1400162
-1400054
-1400146
-1400160
-1400066
-1400031
-1400000
-1400169
-1400321
-1400264
-1400299
-1400131
-1400120
-1400293
-1400363
-1400342
-1400319
-1400414
-1400561
-1400592
-1400671
-1400740
-1401067
-1401285
-1401356
-1401659
-1401756
-1402044
-1402287
-1402410
-1402600
-1402558
-1402778
-1403188
-1403332
-1403574
-1403378
-1403622
-1403985
-1404015
-1404170
-1404291
-1404505
-1404543
-1404984
-1404981
-1405361
-1405679
-1406664
-1406242
-1406154
-1406097
-1406342
-1406412
-1406555
-1406389
-1406279
-1406390
-1406155
-1405928
-1405492
-1405082
-1404702
-1404420
-1403892
-1403108
-1402366
-1401816
-1401453
-1400795
-1400044
-1399207
-1398651
-1397938
-1397350
-1396690
-1395856
-1395453
-1394708
-1394427
-1393556
-1392675
-1392286
-1391921
-1391508
-1391085
-1390567
-1390368
-1389939
-1389664
-1389207
-1388924
-1388769
-1388565
-1388398
-1388174
-1388001
-1388003
-1388130
-1387925
-1387758
-1387595
-1387676
-1387901
-1387778
-1387720
-1387590
-1387763
-1388040
-1388176
-1387952
-1388051
-1388303
-1388428
-1388441
-1388310
-1388258
-1388604
-1388788
-1388694
-1388711
-1388713
-1388912
-1389072
-1388894
-1388976
-1388872
-1388938
-1389068
-1389050
-1388809
-1388729
-1388872
-1389011
-1388858
-1388685
-1388538
-1388723
-1388791
-1388589
-1388432
-1388326
-1388520
-1388498
-1388536
-1388378
-1389060
-1388534
-1388539
-1388479
-1388187
-1388004
-1388111
-1388258
-1388234
-1388294
-1388096
-1388217
-1388153
-1388180
-1388032
-1387839
-1387924
-1388075
-1388026
-1388078
-1387997
-1388052
-1387967
-1388053
-1388159
-1388127
-1388448
-1388703
-1388765
-1388875
-1388995
-1389203
-1389505
-1389698
-1389827
-1389718
-1389980
-1390060
-1390220
-1390396
-1390602
-1390838
-1391000
-1391190
-1391236
-1391229
-1391649
-1391942
-1391944
-1392059
-1392022
-1392365
-1392757
-1392871
-1393081
-1393123
-1393363
-1393467
-1393763
-1393651
-1393649
-1394048
-1394166
-1394306
-1394143
-1394223
-1394309
-1394405
-1394386
-1394439
-1394319
-1394410
-1394681
-1394351
-1394387
-1394368
-1394455
-1394426
-1394381
-1394285
-1394604
-1394767
-1394680
-1394565
-1394509
-1394533
-1394783
-1394910
-1394925
-1394860
-1394990
-1395231
-1395247
-1395269
-1395136
-1395378
-1395612
-1395659
-1395617
-1395607
-1395871
-1396030
-1396154
-1396226
-1396344
-1396542
-1396677
-1396903
-1397032
-1396682
-1397249
-1397853
-1398207
-1398341
-1398637
-1398593
-1398648
-1398840
-1398897
-1399118
-1399191
-1399240
-1399508
-1399733
-1399998
-1399902
-1399892
-1400154
-1400373
-1400522
-1400605
-1400526
-1400787
-1400904
-1401172
-1401164
-1401191
-1401503
-1401576
-1401606
-1401506
-1401900
-1401886
-1401927
-1402117
-1402102
-1402138
-1402346
-1402372
-1402397
-1402232
-1402568
-1402575
-1402618
-1402596
-1402696
-1402835
-1402866
-1403110
-1403030
-1402976
-1403275
-1403483
-1403512
-1403472
-1403450
-1403804
-1403852
-1403970
-1404028
-1403931
-1404371
-1404340
-1404519
-1404354
-1404423
-1404708
-1404881
-1404927
-1404801
-1404672
-1405026
-1405049
-1405166
-1405220
-1405087
-1405311
-1405551
-1405582
-1405489
-1405598
-1405869
-1405748
-1405875
-1405856
-1405892
-1406099
-1406376
-1406402
-1406507
-1406493
-1406619
-1406878
-1406913
-1407035
-1407059
-1407213
-1407289
-1407356
-1407622
-1407417
-1407677
-1407948
-1407896
-1407806
-1407822
-1408039
-1408180
-1408295
-1408349
-1408315
-1408454
-1408630
-1408817
-1408669
-1408803
-1409027
-1408979
-1409083
-1409142
-1409306
-1409348
-1409586
-1409525
-1409577
-1409604
-1409936
-1410029
-1410142
-1410132
-1410222
-1410516
-1410609
-1410746
-1410686
-1410815
-1410975
-1411249
-1411403
-1411271
-1411359
-1411649
-1411880
-1411879
-1412031
-1411981
-1412286
-1412478
-1412643
-1412655
-1412658
-1412775
-1412862
-1412985
-1413155
-1413198
-1413466
-1413677
-1413808
-1413817
-1413766
-1414201
-1414169
-1414452
-1414419
-1414408
-1414680
-1415063
-1415201
-1415317
-1415258
-1415554
-1415728
-1415973
-1415878
-1416012
-1416360
-1416585
-1416682
-1416977
-1416895
-1417288
-1417478
-1417669
-1417635
-1417668
-1418213
-1418306
-1418522
-1418674
-1418666
-1418813
-1419050
-1419209
-1419210
-1419075
-1419227
-1419212
-1419030
-1418820
-1418519
-1418208
-1417369
-1417179
-1416836
-1416299
-1415840
-1415190
-1414545
-1413834
-1413150
-1412519
-1411828
-1411074
-1410488
-1409575
-1409022
-1408494
-1407875
-1407003
-1406270
-1405664
-1405201
-1404654
-1404131
-1403544
-1403190
-1402711
-1402361
-1401962
-1401565
-1401407
-1401227
-1400842
-1400696
-1400481
-1400469
-1400288
-1400311
-1399992
-1399967
-1400065
-1399984
-1400065
-1399916
-1399811
-1400080
-1400100
-1400093
-1400058
-1400000
-1400117
-1400261
-1400395
-1400302
-1400253
-1400245
-1400387
-1400319
-1400213
-1400178
-1400252
-1400200
-1400059
-1400112
-1399950
-1399987
-1399842
-1399665
-1399749
-1399491
-1399329
-1399378
-1399182
-1398935
-1398693
-1398552
-1398581
-1398347
-1398116
-1397847
-1397634
-1397549
-1397322
-1397137
-1396836
-1396650
-1396477
-1396320
-1396097
-1395832
-1395640
-1395520
-1395354
-1395013
-1394818
-1394736
-1394607
-1394491
-1394200
-1393993
-1393824
-1393821
-1393599
-1393406
-1393131
-1393134
-1393158
-1393185
-1393077
-1392986
-1393017
-1393061
-1393076
-1392967
-1392907
-1392885
-1393114
-1393120
-1393224
-1393172
-1393165
-1393168
-1393266
-1393404
-1393263
-1393446
-1393128
-1393460
-1393650
-1393470
-1393622
-1393624
-1393796
-1393674
-1393487
-1393690
-1394109
-1394558
-1394540
-1394082
-1394074
-1394378
-1394526
-1394608
-1394574
-1394657
-1394665
-1394700
-1394453
-1394327
-1394233
-1394296
-1394279
-1394048
-1393782
-1393626
-1393591
-1393701
-1393637
-1393299
-1393357
-1393372
-1393394
-1393201
-1393028
-1392980
-1393225
-1393159
-1393129
-1393314
-1393422
-1393394
-1393594
-1393725
-1393741
-1393967
-1393972
-1394238
-1394247
-1394243
-1394592
-1394659
-1394850
-1394827
-1394888
-1395004
-1395187
-1395092
-1395312
-1395338
-1395594
-1395892
-1396033
-1396013
-1395878
-1395992
-1396238
-1396391
-1396421
-1396450
-1396757
-1396849
-1397094
-1397081
-1397040
-1397154
-1397425
-1397435
-1397545
-1397408
-1397594
-1397549
-1397689
-1397760
-1397508
-1397684
-1397730
-1397846
-1397738
-1397645
-1397549
-1397679
-1397847
-1397708
-1397697
-1397705
-1397811
-1397734
-1397711
-1397886
-1397809
-1397734
-1397624
-1397836
-1397699
-1397717
-1397863
-1397573
-1397521
-1397825
-1397733
-1397909
-1397754
-1397931
-1397962
-1398210
-1398244
-1398256
-1398181
-1398555
-1398553
-1398773
-1398597
-1398730
-1398914
-1399199
-1399105
-1399307
-1399503
-1400381
-1400053
-1399945
-1399790
-1399997
-1400057
-1400296
-1400189
-1400224
-1400076
-1400409
-1400445
-1400483
-1400293
-1400431
-1400618
-1400679
-1400646
-1400484
-1400291
-1400265
-1400421
-1400397
-1400175
-1400150
-1400228
-1400307
-1400005
-1400061
-1400292
-1400359
-1400436
-1400472
-1400476
-1400371
-1400694
-1400712
-1400788
-1400652
-1400917
-1401050
-1401199
-1401272
-1401437
-1401622
-1401962
-1402019
-1402164
-1402135
-1402378
-1402453
-1402501
-1402454
-1402591
-1402728
-1402958
-1403145
-1403354
-1403420
-1403686
-1403875
-1404154
-1404284
-1404251
-1404359
-1404815
-1404903
-1405192
-1405212
-1405459
-1405709
-1405787
-1405791
-1405759
-1405891
-1406133
-1406379
-1406376
-1406300
-1406379
-1406514
-1406587
-1406670
-1406545
-1406689
-1406797
-1406849
-1406960
-1406829
-1406878
-1407014
-1407020
-1406898
-1406892
-1406875
-1407062
-1407175
-1407270
-1407226
-1407193
-1407371
-1407576
-1407721
-1408119
-1408302
-1408305
-1408476
-1408548
-1408891
-1408899
-1409176
-1409346
-1409655
-1409528
-1409703
-1410036
-1410229
-1410437
-1410371
-1410515
-1410946
-1411146
-1411368
-1411364
-1411266
-1411581
-1411730
-1411993
-1412076
-1412106
-1412444
-1412516
-1412668
-1412736
-1412868
-1413087
-1413231
-1413195
-1413232
-1413241
-1413502
-1413603
-1413370
-1413105
-1411455
-1410843
-1410348
-1409751
-1409117
-1408291
-1407385
-1406391
-1405861
-1405240
-1404404
-1403530
-1402804
-1402233
-1401391
-1400687
-1399956
-1399402
-1398828
-1398229
-1397447
-1397086
-1396729
-1396201
-1395832
-1395419
-1395124
-1394951
-1394758
-1394593
-1394321
-1394237
-1394370
-1394395
-1394219
-1394035
-1394127
-1394152
-1394207
-1394234
-1394070
-1394196
-1394400
-1394401
-1394419
-1394359
-1394478
-1394644
-1394645
-1394786
-1394708
-1394644
-1394946
-1395044
-1395004
-1394923
-1394737
-1394867
-1394918
-1394935
-1394817
-1394788
-1394859
-1394886
-1394690
-1394393
-1394197
-1394311
-1394293
-1394024
-1393671
-1393541
-1393386
-1393344
-1393052
-1392781
-1392450
-1392293
-1392035
-1391574
-1391250
-1391044
-1391056
-1390989
-1390635
-1390338
-1390008
-1389871
-1389770
-1389577
-1389307
-1388629
-1388823
-1388563
-1388551
-1388017
-1387824
-1387738
-1387553
-1387580
-1387336
-1386994
-1387036
-1387066
-1387061
-1386717
-1386475
-1386745
-1386751
-1386706
-1386691
-1386392
-1386699
-1386644
-1386766
-1386778
-1386806
-1386845
-1387007
-1386900
-1386633
-1386765
-1387087
-1387365
-1387355
-1387338
-1387308
-1387526
-1387651
-1387715
-1387723
-1387788
-1388040
-1388159
-1388236
-1388278
-1388361
-1388448
-1388710
-1388793
-1388686
-1388829
-1389034
-1389008
-1389081
-1389059
-1388999
-1389048
-1389116
-1389128
-1389021
-1388778
-1389110
-1389094
-1389172
-1389069
-1388888
-1389166
-1389164
-1389173
-1388776
-1388475
-1388802
-1388868
-1388525
-1388367
-1388315
-1388585
-1388653
-1388676
-1388580
-1388416
-1388352
-1388484
-1388129
-1388483
-1388463
-1388652
-1388631
-1388720
-1388675
-1388708
-1388828
-1388974
-1388845
-1388651
-1388662
-1388857
-1388809
-1388899
-1388816
-1388841
-1388977
-1388952
-1389066
-1388951
-1389148
-1389137
-1389219
-1389009
-1388943
-1389116
-1389252
-1389357
-1389413
-1389246
-1389535
-1389521
-1389519
-1389584
-1389491
-1389701
-1389750
-1389761
-1389664
-1389676
-1389897
-1389981
-1389999
-1389724
-1389550
-1389811
-1389754
-1389779
-1389724
-1389589
-1389734
-1389765
-1389539
-1389656
-1389494
-1389565
-1389570
-1389522
-1389497
-1389513
-1389572
-1389550
-1389614
-1389426
-1389409
-1389610
-1389736
-1389863
-1389730
-1389559
-1389594
-1389736
-1389875
-1389830
-1389709
-1389702
-1389690
-1389894
-1389772
-1389763
-1389837
-1389946
-1389854
-1389955
-1389770
-1390058
-1390154
-1390125
-1390101
-1390060
-1390356
-1390323
-1390291
-1390362
-1390231
-1390666
-1390839
-1390861
-1390784
-1390827
-1391090
-1391266
-1391117
-1391284
-1391156
-1391645
-1391764
-1391848
-1392004
-1392032
-1392396
-1392555
-1392670
-1392745
-1392619
-1393081
-1393246
-1393296
-1393285
-1393258
-1393532
-1393867
-1394026
-1394093
-1394112
-1394212
-1394328
-1394461
-1394460
-1394395
-1394684
-1394894
-1394889
-1395036
-1394776
-1395107
-1395162
-1395384
-1395328
-1395249
-1395315
-1395418
-1395553
-1395454
-1395402
-1395716
-1395867
-1395783
-1395877
-1395776
-1396123
-1396181
-1396277
-1396256
-1396185
-1396414
-1396505
-1396645
-1396300
-1396738
-1396941
-1397238
-1397151
-1397244
-1398157
-1397820
-1397838
-1397814
-1397971
-1397964
-1398142
-1398431
-1398678
-1398633
-1398623
-1398949
-1398995
-1399116
-1399285
-1399295
-1399596
-1399195
-1399680
-1399607
-1399624
-1399934
-1400322
-1400237
-1400475
-1400817
-1400885
-1400937
-1400895
-1400936
-1401161
-1401200
-1401367
-1401180
-1400919
-1401020
-1400984
-1400870
-1400558
-1400289
-1400306
-1399855
-1399321
-1398923
-1398449
-1397870
-1397396
-1396617
-1395907
-1395314
-1394917
-1394243
-1393549
-1392840
-1392135
-1391537
-1391116
-1390510
-1389810
-1389259
-1389016
-1388505
-1387943
-1387664
-1387038
-1386914
-1386479
-1386343
-1386125
-1385613
-1385485
-1385424
-1385293
-1385262
-1384995
-1384959
-1384947
-1384933
-1384858
-1384929
-1385049
-1385011
-1385291
-1385216
-1385192
-1385565
-1385753
-1386030
-1385973
-1385874
-1386171
-1386379
-1386593
-1386739
-1386868
-1387027
-1387191
-1387365
-1387639
-1387447
-1387613
-1387943
-1388004
-1388149
-1388200
-1388343
-1388318
-1388398
-1388540
-1388260
-1388619
-1388585
-1388480
-1388718
-1388426
-1388245
-1388406
-1388388
-1388468
-1388500
-1388376
-1388404
-1388424
-1388472
-1388250
-1388184
-1388132
-1388139
-1388104
-1387900
-1388045
-1388089
-1387889
-1387886
-1387719
-1387926
-1387916
-1388055
-1387888
-1387936
-1388073
-1388139
-1388126
-1388239
-1388228
-1388995
-1388791
-1388831
-1388902
-1388959
-1389046
-1389354
-1389378
-1389511
-1389528
-1389764
-1390084
-1390367
-1390522
-1390542
-1390673
-1390723
-1390932
-1391168
-1391000
-1391229
-1391401
-1391350
-1391408
-1391509
-1391627
-1391829
-1391882
-1391799
-1391815
-1391946
-1392069
-1392028
-1392031
-1392049
-1392147
-1392132
-1392305
-1392314
-1392184
-1392323
-1392431
-1392485
-1392353
-1392341
-1392365
-1392397
-1392318
-1392344
-1392319
-1392460
-1392349
-1392456
-1392354
-1392370
-1392604
-1392707
-1392738
-1392814
-1392850
-1392847
-1392923
-1392958
-1393030
-1393162
-1393320
-1393419
-1393244
-1393619
-1393660
-1393810
-1393878
-1394040
-1394145
-1394303
-1394554
-1394776
-1394753
-1395018
-1394976
-1395371
-1395634
-1395724
-1396044
-1395976
-1396222
-1396642
-1396880
-1396899
-1397062
-1397223
-1397379
-1397475
-1397803
-1397765
-1397770
-1398259
-1398486
-1398752
-1398745
-1399098
-1399214
-1400239
-1399794
-1399782
-1400168
-1400286
-1400546
-1400497
-1400579
-1400879
-1401153
-1401262
-1401448
-1401488
-1401834
-1402147
-1402239
-1402283
-1402409
-1402729
-1402460
-1402906
-1403316
-1403714
-1403977
-1403951
-1404164
-1404257
-1404455
-1404611
-1404759
-1404977
-1405121
-1405294
-1405585
-1405647
-1405919
-1405780
-1406001
-1406268
-1406331
-1406459
-1406509
-1406711
-1406800
-1406961
-1407121
-1406962
-1407117
-1407327
-1407547
-1407632
-1407547
-1407696
-1407797
-1407832
-1407889
-1407744
-1407980
-1408140
-1408212
-1408357
-1408027
-1408260
-1408291
-1408515
-1408600
-1408570
-1408756
-1409006
-1410115
-1409598
-1409261
-1409620
-1409733
-1409797
-1410039
-1411182
-1410553
-1410405
-1410662
-1410703
-1410729
-1411090
-1411292
-1411478
-1411564
-1411454
-1411700
-1412083
-1412199
-1412168
-1413199
-1412854
-1412972
-1412991
-1413094
-1413086
-1413613
-1413612
-1413811
-1413964
-1414113
-1414312
-1414607
-1414808
-1414897
-1415168
-1415280
-1415706
-1415774
-1416191
-1416175
-1416724
-1416989
-1417308
-1417470
-1417781
-1417986
-1418456
-1418682
-1418835
-1419077
-1419539
-1419858
-1419908
-1420346
-1420425
-1420658
-1420942
-1421205
-1421210
-1421263
-1421553
-1421795
-1422095
-1422083
-1422065
-1422103
-1422128
-1422099
-1422123
-1421941
-1421778
-1421611
-1421215
-1420967
-1420224
-1419943
-1419486
-1418782
-1418134
-1417487
-1416792
-1416231
-1415616
-1414837
-1414179
-1413391
-1412836
-1412267
-1411593
-1410798
-1410349
-1409791
-1409288
-1408652
-1408118
-1407833
-1407536
-1407150
-1406646
-1406396
-1406161
-1406125
-1405779
-1405544
-1405342
-1405532
-1405388
-1405575
-1405463
-1405396
-1405419
-1405523
-1405529
-1405551
-1406278
-1406124
-1406154
-1406128
-1406112
-1406229
-1406448
-1406395
-1406663
-1406540
-1406547
-1406638
-1406849
-1406653
-1406670
-1406548
-1406761
-1406680
-1406644
-1406516
-1406434
-1406466
-1406483
-1406402
-1406192
-1405991
-1406137
-1406069
-1405935
-1405939
-1405858
-1406285
-1405889
-1405687
-1405728
-1405530
-1405442
-1405571
-1405352
-1405374
-1405023
-1405139
-1405085
-1405079
-1404973
-1404745
-1404775
-1404569
-1404718
-1404533
-1404380
-1404437
-1404313
-1404240
-1404154
-1403983
-1404107
-1404619
-1404087
-1403851
-1403650
-1403929
-1403892
-1403903
-1403773
-1403545
-1403647
-1403541
-1403430
-1403413
-1403221
-1403257
-1403311
-1403224
-1402993
-1402781
-1402719
-1402738
-1402667
-1402472
-1402115
-1401979
-1401955
-1401826
-1401611
-1401300
-1401234
-1401090
-1401054
-1400773
-1400431
-1400593
-1400424
-1400349
-1400084
-1399814
-1399785
-1399820
-1399909
-1399693
-1399483
-1399561
-1399433
-1399479
-1399453
-1399417
-1399492
-1399509
-1399524
-1399221
-1399352
-1399488
-1399556
-1399571
-1399758
-1399858
-1399904
-1400030
-1400243
-1400408
-1400298
-1400692
-1400921
-1401129
-1401061
-1401026
-1400980
-1401251
-1401397
-1401670
-1401549
-1401587
-1401660
-1401594
-1401447
-1401419
-1401668
-1401806
-1401724
-1401794
-1401712
-1401872
-1401951
-1402032
-1401986
-1401842
-1401881
-1402175
-1402005
-1401949
-1401878
-1402018
-1402204
-1402146
-1401903
-1401910
-1401912
-1401921
-1401801
-1401874
-1401815
-1401828
-1401840
-1401719
-1401609
-1401758
-1401767
-1401574
-1401491
-1401515
-1401638
-1401653
-1401515
-1401520
-1401611
-1401801
-1401770
-1401606
-1401504
-1401656
-1401764
-1401724
-1401909
-1401758
-1401723
-1401880
-1401895
-1401865
-1401743
-1401711
-1401559
-1401806
-1401686
-1401483
-1401371
-1401518
-1401536
-1401327
-1401228
-1401079
-1401196
-1401007
-1400861
-1400754
-1400671
-1400817
-1400786
-1400495
-1400466
-1400190
-1400238
-1400223
-1400128
-1399906
-1399587
-1399574
-1399666
-1399354
-1399194
-1398952
-1398896
-1398900
-1398783
-1398585
-1398487
-1398496
-1398440
-1398191
-1398104
-1397927
-1397820
-1397681
-1397553
-1397379
-1397220
-1397243
-1397321
-1397240
-1397084
-1396900
-1396880
-1396802
-1396644
-1396390
-1396184
-1396227
-1396067
-1395900
-1395530
-1395503
-1395656
-1395544
-1395505
-1395211
-1395176
-1394957
-1394980
-1395023
-1394838
-1394767
-1394676
-1394753
-1394722
-1394533
-1394180
-1394193
-1393929
-1393762
-1393429
-1393069
-1392840
-1392425
-1392000
-1391453
-1390879
-1390586
-1390209
-1389699
-1389189
-1388538
-1388053
-1387598
-1387040
-1386354
-1385560
-1385159
-1384668
-1384291
-1383620
-1383055
-1382753
-1382244
-1381819
-1381348
-1380675
-1380322
-1379973
-1379766
-1379216
-1378886
-1378534
-1378127
-1377848
-1377524
-1377193
-1377155
-1377000
-1376615
-1376390
-1376079
-1376120
-1375962
-1375794
-1375539
-1375430
-1375412
-1375623
-1375743
-1375766
-1375479
-1375721
-1376287
-1376417
-1376363
-1376356
-1376653
-1376759
-1376938
-1376987
-1376883
-1377240
-1377241
-1378303
-1377565
-1377813
-1377832
-1377976
-1377725
-1377614
-1377934
-1378020
-1378104
-1378011
-1377923
-1377867
-1378008
-1378038
-1377844
-1377768
-1378124
-1377819
-1377725
-1377621
-1377331
-1377436
-1377330
-1377183
-1377158
-1376849
-1376956
-1376724
-1376768
-1376518
-1376500
-1376543
-1376515
-1376486
-1376535
-1376299
-1376566
-1376585
-1376634
-1376696
-1376568
-1376841
-1376949
-1376953
-1377042
-1377123
-1376978
-1377190
-1377602
-1377715
-1377566
-1377923
-1377906
-1378148
-1377993
-1377944
-1378350
-1378315
-1378322
-1378474
-1378320
-1378526
-1378560
-1378772
-1378561
-1378500
-1378714
-1378811
-1378855
-1378762
-1378796
-1378959
-1378899
-1378974
-1378772
-1378605
-1378929
-1378958
-1378938
-1378830
-1378548
-1378612
-1378522
-1378638
-1378279
-1378074
-1378075
-1378041
-1377964
-1377753
-1377646
-1377653
-1377510
-1377419
-1377330
-1377038
-1377146
-1377168
-1377104
-1377127
-1376937
-1377037
-1377034
-1376887
-1376794
-1376700
-1376923
-1377931
-1377304
-1376970
-1376988
-1377177
-1377139
-1377203
-1377299
-1377167
-1377378
-1377585
-1377741
-1377598
-1377716
-1377888
-1378095
-1378113
-1378096
-1378244
-1378428
-1378528
-1378587
-1378610
-1378687
-1378791
-1378961
-1379102
-1379095
-1379067
-1379446
-1379662
-1379678
-1379657
-1379713
-1380010
-1379998
-1380141
-1380145
-1379954
-1380092
-1380231
-1380221
-1380172
-1380249
-1380445
-1380527
-1380523
-1380513
-1380396
-1380640
-1380769
-1380686
-1380740
-1380810
-1380838
-1380981
-1381013
-1381033
-1380955
-1381209
-1381294
-1381332
-1381387
-1381201
-1381462
-1381598
-1381452
-1381638
-1381459
-1381585
-1381813
-1381819
-1381743
-1381621
-1381968
-1382285
-1382153
-1382138
-1382073
-1382116
-1382050
-1383377
-1382561
-1382353
-1382538
-1382684
-1382780
-1382919
-1382817
-1382980
-1383244
-1383425
-1383294
-1383213
-1383461
-1383669
-1383575
-1383653
-1383759
-1384043
-1384192
-1384353
-1384204
-1384240
-1384542
-1384530
-1384627
-1384510
-1384617
-1385736
-1385083
-1385019
-1384806
-1384641
-1384959
-1384916
-1385085
-1385076
-1385041
-1385220
-1385311
-1385376
-1385587
-1385649
-1385892
-1386072
-1386193
-1386118
-1386296
-1386554
-1386752
-1386868
-1386960
-1387005
-1387070
-1387238
-1387386
-1387447
-1387429
-1387594
-1387912
-1387914
-1387704
-1387381
-1387383
-1387147
-1386971
-1386500
-1385873
-1385573
-1385053
-1384598
-1383897
-1383081
-1382365
-1381696
-1381040
-1380234
-1379338
-1378715
-1377911
-1377270
-1376457
-1375513
-1374864
-1374267
-1373659
-1372771
-1372021
-1371608
-1371040
-1370631
-1370010
-1369497
-1369175
-1368763
-1368224
-1368050
-1367548
-1367246
-1367091
-1367002
-1366733
-1366332
-1366204
-1366110
-1365897
-1365707
-1365605
-1365619
-1365511
-1365445
-1365274
-1365227
-1365253
-1365111
-1365078
-1365209
-1365055
-1365009
-1365149
-1365128
-1365100
-1365283
-1366055
-1365334
-1365312
-1365051
-1365163
-1365341
-1365170
-1365349
-1365326
-1365429
-1365307
-1365239
-1365234
-1365210
-1365235
-1365230
-1365006
-1364988
-1364905
-1364903
-1364779
-1364632
-1364479
-1364415
-1364394
-1365399
-1364476
-1363862
-1363570
-1363419
-1363331
-1363211
-1362455
-1362617
-1362600
-1362301
-1361914
-1361848
-1361769
-1361624
-1361687
-1361334
-1361121
-1361136
-1361148
-1361075
-1360954
-1360730
-1360787
-1360843
-1361015
-1361089
-1360936
-1360996
-1361199
-1361359
-1361488
-1361439
-1361505
-1361639
-1361788
-1361887
-1361779
-1361981
-1362075
-1362223
-1362246
-1362170
-1362038
-1361747
-1362056
-1362168
-1362021
-1361947
-1361962
-1362065
-1362905
-1362117
-1361739
-1361595
-1361583
-1360893
-1360876
-1360884
-1360915
-1360817
-1360604
-1360428
-1360231
-1360348
-1360156
-1359939
-1359828
-1359737
-1359894
-1359764
-1359793
-1359575
-1359630
-1359547
-1359582
-1359625
-1359604
-1359625
-1359866
-1359830
-1359782
-1359654
-1359822
-1359989
-1359979
-1360114
-1360191
-1360246
-1360481
-1360712
-1360753
-1360987
-1361130
-1361282
-1361461
-1361636
-1361691
-1361667
-1362033
-1362170
-1362379
-1362348
-1362488
-1362852
-1362933
-1363166
-1363215
-1363235
-1363476
-1363698
-1363898
-1363805
-1363891
-1364117
-1364391
-1364363
-1364507
-1364615
-1364718
-1364938
-1365161
-1365180
-1365233
-1365309
-1365435
-1365638
-1365657
-1365637
-1365979
-1366205
-1366141
-1366232
-1366201
-1366507
-1366642
-1366505
-1366533
-1366803
-1366957
-1366871
-1366922
-1366832
-1366813
-1367065
-1367032
-1366966
-1366983
-1367282
-1367481
-1367439
-1367680
-1367585
-1367635
-1367656
-1368006
-1368470
-1368617
-1368613
-1368642
-1368934
-1368916
-1369074
-1369284
-1369405
-1370377
-1369772
-1369619
-1369736
-1369772
-1369852
-1369800
-1369750
-1369802
-1369851
-1369809
-1369677
-1369778
-1369943
-1369955
-1369959
-1369732
-1369564
-1369743
-1369637
-1369543
-1369558
-1369301
-1369294
-1369336
-1369116
-1369047
-1368988
-1368999
-1369065
-1369000
-1368637
-1368487
-1368660
-1368655
-1368490
-1368280
-1368246
-1368497
-1368398
-1368252
-1368199
-1368148
-1368363
-1368419
-1368536
-1368474
-1368335
-1368542
-1368504
-1368385
-1367988
-1367732
-1367667
-1367737
-1367562
-1367100
-1366748
-1366523
-1366175
-1365695
-1365299
-1364724
-1364420
-1364086
-1363707
-1363245
-1362752
-1362356
-1361639
-1361104
-1361764
-1360484
-1359614
-1359520
-1359178
-1358730
-1358169
-1357799
-1357596
-1357255
-1356727
-1356527
-1356337
-1356094
-1355937
-1355096
-1354992
-1355126
-1355210
-1355275
-1356238
-1355237
-1355004
-1354948
-1355066
-1355050
-1355020
-1355226
-1355116
-1355181
-1355063
-1355028
-1356324
-1355581
-1355485
-1355372
-1356103
-1355697
-1355707
-1355659
-1355625
-1355825
-1356066
-1356168
-1356073
-1356208
-1356284
-1356332
-1356317
-1356425
-1356435
-1356374
-1356550
-1356816
-1356665
-1356716
-1356670
-1356633
-1356738
-1356648
-1356656
-1356531
-1356496
-1356394
-1356451
-1356369
-1356119
-1356090
-1357038
-1356388
-1356059
-1355723
-1355728
-1355708
-1355581
-1355406
-1355182
-1355284
-1355250
-1355080
-1355013
-1355036
-1355075
-1355066
-1355105
-1355122
-1354858
-1355074
-1355041
-1355046
-1355160
-1355115
-1355278
-1355547
-1355683
-1355948
-1355919
-1356239
-1356306
-1356410
-1356610
-1356709
-1356784
-1356999
-1356950
-1357139
-1357113
-1357370
-1357468
-1357998
-1357771
-1357634
-1357857
-1357959
-1357848
-1357954
-1357895
-1358196
-1358095
-1358100
-1358251
-1358107
-1358094
-1358291
-1358180
-1358401
-1358053
-1358323
-1358568
-1358556
-1358548
-1358434
-1358610
-1358842
-1358763
-1358797
-1358717
-1358945
-1358989
-1358959
-1359117
-1359158
-1359191
-1359268
-1359493
-1359603
-1359390
-1359740
-1359744
-1360060
-1360089
-1360191
-1360551
-1360774
-1360926
-1361206
-1361283
-1361624
-1361826
-1361850
-1362101
-1362300
-1362615
-1362539
-1362974
-1363250
-1363390
-1363764
-1364234
-1364537
-1364776
-1364789
-1365178
-1365519
-1365856
-1365975
-1366289
-1366584
-1366911
-1367208
-1367450
-1368614
-1368262
-1368368
-1368505
-1368888
-1369203
-1369475
-1369860
-1371046
-1370803
-1370789
-1370828
-1371195
-1371540
-1371903
-1372075
-1372425
-1372736
-1373088
-1373520
-1373645
-1374003
-1374397
-1374659
-1374888
-1375071
-1375499
-1375882
-1377139
-1376814
-1376866
-1377177
-1377533
-1377796
-1378231
-1378481
-1378740
-1379115
-1379353
-1379662
-1379918
-1380410
-1380671
-1381031
-1381354
-1381385
-1381940
-1382322
-1382609
-1382873
-1382987
-1383422
-1383690
-1383877
-1383996
-1385483
-1385230
-1385279
-1385502
-1385878
-1386099
-1386427
-1386700
-1387088
-1387268
-1387493
-1387813
-1388053
-1388434
-1388659
-1388747
-1389240
-1389294
-1389491
-1389729
-1389926
-1390176
-1390484
-1390747
-1390920
-1390870
-1391135
-1391239
-1391282
-1391494
-1391543
-1391739
-1391717
-1391740
-1391823
-1391746
-1391918
-1392012
-1392155
-1392178
-1392211
-1392242
-1392360
-1392224
-1392372
-1392241
-1392124
-1392182
-1392146
-1392127
-1391864
-1391634
-1391368
-1391014
-1390495
-1390143
-1389857
-1389592
-1389013
-1388430
-1387755
-1387307
-1386663
-1386060
-1385575
-1384844
-1384107
-1383559
-1382815
-1382103
-1381475
-1380840
-1380455
-1379233
-1379117
-1378105
-1377842
-1377396
-1377076
-1376590
-1376048
-1375754
-1375444
-1374891
-1374921
-1374648
-1374526
-1374471
-1374255
-1374011
-1374033
-1374023
-1374146
-1374113
-1374061
-1374201
-1374297
-1374463
-1374699
-1374719
-1374655
-1375018
-1375170
-1375487
-1375869
-1375938
-1376171
-1376570
-1376644
-1376903
-1377227
-1377694
-1377798
-1378108
-1378322
-1378577
-1379087
-1379466
-1379835
-1380068
-1381011
-1380705
-1380663
-1380835
-1380808
-1380997
-1381113
-1381117
-1381162
-1381159
-1381130
-1381438
-1381553
-1381399
-1381295
-1381444
-1381691
-1381692
-1381738
-1382021
-1381970
-1382074
-1381983
-1382026
-1382246
-1382130
-1382225
-1382483
-1382506
-1382830
-1382900
-1382892
-1383083
-1383036
-1383168
-1383251
-1383286
-1383418
-1383572
-1383512
-1383516
-1383765
-1383869
-1383811
-1383916
-1383928
-1384138
-1384256
-1384172
-1384180
-1384189
-1384199
-1384202
-1384223
-1384284
-1384184
-1384218
-1384483
-1384411
-1384284
-1384236
-1384483
-1384354
-1384307
-1384275
-1384198
-1384229
-1384206
-1384034
-1383536
-1383667
-1383696
-1383633
-1383403
-1383398
-1383236
-1383264
-1383225
-1383003
-1382844
-1382690
-1382491
-1382498
-1382553
-1382339
-1382025
-1382091
-1381969
-1381815
-1381717
-1381724
-1381727
-1381684
-1381764
-1381810
-1382306
-1381770
-1381812
-1381707
-1381801
-1381888
-1381882
-1382043
-1382136
-1382194
-1382066
-1382301
-1382608
-1382722
-1382777
-1382871
-1383159
-1383232
-1383504
-1383556
-1383777
-1383843
-1384134
-1384402
-1384596
-1384588
-1384953
-1385326
-1385493
-1385523
-1385551
-1386079
-1386192
-1386005
-1386385
-1386652
-1386783
-1387084
-1387327
-1387443
-1387700
-1387835
-1388099
-1388301
-1388262
-1388010
-1388338
-1388526
-1388860
-1388897
-1388780
-1389006
-1389075
-1389212
-1389275
-1389153
-1389456
-1389710
-1389598
-1389899
-1389754
-1390055
-1390164
-1390344
-1390531
-1390361
-1390421
-1390631
-1390955
-1390904
-1390924
-1391347
-1391625
-1391364
-1391473
-1391680
-1391900
-1391965
-1392004
-1392031
-1392129
-1392416
-1392638
-1392721
-1392889
-1392780
-1393025
-1393321
-1393113
-1393433
-1393419
-1393753
-1394031
-1394066
-1394018
-1394006
-1394376
-1394633
-1394659
-1394810
-1394641
-1395015
-1395149
-1395207
-1395454
-1395456
-1395610
-1395940
-1395922
-1396040
-1396123
-1396334
-1396432
-1396485
-1396614
-1396840
-1396746
-1396897
-1396986
-1396849
-1396894
-1397079
-1396983
-1396652
-1396540
-1396295
-1396296
-1395907
-1395460
-1394853
-1394639
-1394229
-1393549
-1393001
-1392258
-1391987
-1391372
-1390734
-1390100
-1389467
-1388850
-1388434
-1387778
-1387277
-1386684
-1386380
-1385911
-1385378
-1384822
-1384541
-1384112
-1383991
-1383816
-1383533
-1383010
-1383069
-1382937
-1382739
-1382633
-1382328
-1382507
-1382318
-1382617
-1382562
-1382827
-1382840
-1382935
-1382974
-1383430
-1383449
-1383745
-1383748
-1384061
-1384301
-1384611
-1384660
-1384891
-1385315
-1385481
-1385615
-1385926
-1386149
-1386127
-1386547
-1386756
-1387079
-1387033
-1387270
-1387439
-1387752
-1387808
-1387924
-1388275
-1388337
-1388421
-1388582
-1388641
-1388977
-1388986
-1389290
-1389550
-1389533
-1389783
-1390054
-1390206
-1390182
-1390131
-1390471
-1390689
-1390946
-1391106
-1391685
-1391425
-1391669
-1391612
-1391888
-1391980
-1392160
-1392410
-1392470
-1392740
-1392687
-1393088
-1393251
-1393345
-1393486
-1393525
-1393922
-1394140
-1394404
-1394383
-1394421
-1394632
-1394891
-1394939
-1394962
-1395109
-1395435
-1395471
-1395554
-1395561
-1395604
-1395821
-1396089
-1397133
-1396416
-1396268
-1396588
-1396628
-1396861
-1396797
-1396767
-1396914
-1396879
-1397067
-1397078
-1397174
-1397111
-1397288
-1397275
-1397841
-1397513
-1397458
-1397469
-1397390
-1397587
-1398535
-1397863
-1397739
-1397704
-1397559
-1397632
-1397726
-1397704
-1397790
-1397699
-1397804
-1397874
-1397942
-1398129
-1397894
-1397950
-1398021
-1398266
-1398265
-1398259
-1398418
-1398686
-1398624
-1398739
-1398749
-1398981
-1399127
-1399245
-1399317
-1400133
-1399612
-1399830
-1399998
-1400101
-1400185
-1400094
-1400463
-1400472
-1400701
-1400717
-1400946
-1401090
-1401129
-1401323
-1401337
-1401373
-1401718
