PPG
-818411
-818465
-818204
-817953
-818283
-818519
-818575
-818447
-818062
-818311
-818564
-818456
-818475
-818118
-818499
-818417
-818610
-818523
-818144
-818440
-818592
-818565
-819031
-818362
-818582
-818703
-818509
-818711
-818302
-818537
-818670
-818776
-818736
-818440
-818722
-818899
-818952
-818763
-818360
-818669
-818857
-818817
-818670
-818432
-818719
-818894
-818647
-818918
-818395
-818709
-818910
-818987
-818920
-818593
-818923
-819182
-819062
-819072
-818706
-819175
-819314
-819419
-819027
-818900
-819293
-819431
-819464
-819525
-819024
-819367
-819591
-819576
-819617
-819126
-819261
-819497
-819553
-819547
-818989
-819352
-819604
-819318
-819583
-819165
-819533
-819692
-819674
-819795
-819248
-819484
-819634
-819538
-819645
-819209
-819384
-819526
-819424
-819410
-819167
-819604
-819482
-819392
-819433
-819196
-819362
-819638
-819553
-819446
-819063
-819486
-819415
-819424
-819148
-818918
-819844
-819550
-819349
-819233
-818747
-819052
-819279
-819197
-819354
-818940
-819147
-819322
-819336
-819273
-818881
-819263
-819402
-819339
-819218
-818954
-819234
-819448
-819394
-819375
-819000
-819094
-819520
-819406
-819440
-819102
-819312
-819518
-819540
-819418
-819116
-819466
-819612
-819742
-819451
-819177
-819788
-819850
-819755
-819645
-819253
-819623
-819871
-819779
-819784
-819553
-819876
-820093
-819857
-819855
-819587
-819857
-819970
-820045
-820075
-819573
-820061
-820249
-820339
-820113
-819786
-820246
-820268
-820356
-820313
-820006
-820376
-820396
-820280
-820435
-820003
-820360
-820377
-820418
-820436
-820223
-820529
-820672
-820615
-820531
-820114
-820680
-820699
-820690
-820592
-820354
-820772
-820861
-820906
-820797
-820476
-820733
-820956
-820810
-820854
-820512
-820915
-821136
-820945
-820954
-820533
-821019
-821027
-821074
-820998
-820717
-820991
-821083
-821060
-820854
-820639
-820885
-821178
-821175
-821193
-820794
-820996
-821264
-821211
-821193
-820880
-821311
-821276
-821303
-821228
-820886
-821350
-821488
-821434
-821471
-821065
-821481
-821571
-821491
-821522
-821211
-821556
-821665
-821739
-822156
-821390
-821669
-821751
-821789
-821720
-821333
-821681
-821942
-821758
-821739
-821494
-821921
-821999
-821976
-821911
-821488
-821990
-822018
-822049
-821843
-821514
-821824
-822032
-822118
-821841
-821574
-821927
-822063
-822129
-822013
-821621
-822041
-822044
-822266
-822092
-821748
-822161
-822332
-822273
-822020
-821791
-822145
-822448
-822464
-822361
-822045
-822255
-822403
-822397
-822413
-822044
-822441
-822524
-822638
-822389
-822101
-822484
-822576
-822601
-822404
-822164
-822464
-822702
-822746
-822553
-822359
-822682
-822702
-822738
-822661
-822351
-822721
-822818
-822945
-822669
-822476
-822911
-822977
-822999
-822739
-822501
-822907
-822990
-823027
-823049
-822676
-822971
-823152
-823147
-822934
-822690
-823020
-823110
-823260
-823141
-822576
-823048
-823258
-823307
-823148
-822918
-823197
-823290
-823322
-823237
-822971
-823262
-823397
-823492
-823166
-822896
-823118
-823379
-823399
-823371
-823019
-823408
-823535
-823611
-823593
-823268
-823512
-823629
-823798
-823531
-823321
-823627
-823823
-823859
-823865
-823491
-823805
-824020
-824133
-823967
-823565
-823890
-823955
-823932
-823848
-823549
-823749
-823790
-823782
-823856
-823325
-823396
-823441
-823282
-823270
-822734
-822692
-822819
-822697
-822474
-822033
-822008
-822000
-821877
-821543
-821076
-821061
-821105
-821020
-820777
-820202
-820156
-820272
-820188
-819936
-819364
-819312
-819392
-819304
-819104
-818646
-818613
-818469
-818633
-818253
-818040
-818078
-818195
-818190
-818196
-817782
-817795
-817881
-817938
-817860
-817354
-817396
-817663
-817731
-817629
-817310
-817314
-817638
-817743
-817842
-817400
-817422
-817648
-817725
-817484
-817364
-817445
-817802
-817818
-817722
-817363
-817494
-817716
-817873
-817822
-817554
-817606
-817951
-817922
-817899
-817607
-817575
-817862
-817944
-817959
-817697
-817715
-818032
-818169
-818222
-817742
-817720
-818080
-818198
-818310
-817968
-817731
-818123
-818173
-818195
-817775
-817628
-818125
-818183
-818262
-817866
-817739
-818103
-818212
-818159
-817957
-817886
-818279
-818260
-818238
-817978
-817904
-818347
-818380
-818467
-818208
-818034
-818370
-818549
-818642
-818319
-818155
-818475
-818601
-818573
-818362
-818249
-818718
-818735
-818780
-818598
-818383
-818810
-819006
-818906
-818702
-818489
-818894
-818969
-818898
-818694
-818574
-818949
-819143
-819095
-818886
-818583
-819000
-819144
-819121
-818819
-818660
-819024
-819062
-819218
-818753
-818618
-819036
-819069
-819075
-818808
-818588
-818969
-819061
-818929
-818716
-818508
-818883
-819058
-819150
-818841
-818602
-819028
-819106
-818997
-818748
-818512
-818848
-818960
-818956
-818826
-818631
-818915
-818976
-819025
-818849
-818441
-818850
-819051
-819058
-818831
-818611
-819031
-819126
-819018
-818841
-818515
-818976
-819066
-819246
-818948
-818677
-818993
-819119
-818927
-818881
-818644
-819000
-819097
-819051
-818898
-818678
-818995
-819200
-819199
-819068
-818773
-819144
-819202
-819316
-819282
-818887
-819229
-819467
-819462
-819278
-818951
-819290
-819507
-819483
-819474
-819154
-819558
-819694
-819733
-819538
-819270
-819616
-819700
-819679
-819643
-819305
-819668
-819782
-819713
-819668
-819346
-819734
-819859
-819891
-819834
-819499
-819921
-820040
-819879
-819966
-819561
-819980
-820165
-820161
-820138
-819840
-820251
-820281
-820399
-820306
-819880
-820384
-820352
-820403
-820424
-820107
-820516
-820512
-820530
-820485
-820037
-820406
-820530
-820380
-820601
-820137
-820485
-820632
-820543
-820561
-820167
-820473
-820626
-820730
-820825
-820375
-820686
-820896
-820794
-820763
-820344
-820736
-820893
-820967
-820904
-820546
-820964
-821032
-821041
-821038
-820724
-820986
-821103
-821197
-821235
-820800
-821110
-821205
-821278
-821232
-820851
-821112
-821214
-821310
-821288
-820870
-821300
-821258
-821335
-821398
-820949
-821270
-821467
-821408
-821314
-821022
-821289
-821350
-821256
-821368
-820901
-821212
-821366
-821510
-821502
-821045
-821463
-821585
-821600
-821552
-821099
-821572
-821687
-821522
-821597
-821277
-821523
-821750
-821689
-821761
-821286
-821596
-821717
-821641
-821716
-821464
-821662
-821756
-821754
-821872
-821346
-821781
-821888
-821982
-821887
-821467
-821755
-821961
-821900
-821809
-821649
-821969
-822013
-821997
-822025
-821578
-821987
-822085
-822090
-822180
-821834
-822077
-822144
-822157
-822145
-821789
-822123
-822290
-822349
-822260
-821828
-822291
-822303
-822418
-822298
-821836
-822205
-822404
-822153
-822192
-821886
-822124
-822373
-822308
-822510
-822004
-822281
-822210
-822307
-822340
-822032
-822380
-822553
-822711
-822829
-822354
-822724
-822771
-822839
-822600
-822296
-822638
-822743
-822613
-822577
-822313
-822613
-822756
-822751
-822638
-822156
-822287
-822371
-822354
-822311
-821645
-821849
-821892
-821768
-821119
-821205
-821157
-821090
-820800
-820202
-820225
-820285
-820082
-819912
-819411
-819214
-819330
-819100
-819031
-818303
-818679
-818625
-818459
-818455
-817776
-817890
-817834
-817657
-817658
-817176
-817315
-817357
-817117
-817191
-816748
-816776
-816904
-816948
-816937
-816366
-816724
-816769
-816766
-816539
-816185
-816446
-816690
-816755
-816663
-816344
-816774
-816894
-816903
-816606
-816274
-816732
-816793
-816670
-816768
-816398
-816653
-816845
-816739
-816785
-816369
-816605
-816799
-816771
-816789
-816486
-816977
-817083
-816888
-816498
-816862
-816870
-816850
-817046
-816683
-817078
-817221
-817066
-817074
-816758
-817063
-817143
-817138
-817254
-816957
-817205
-817401
-817455
-817300
-816964
-817410
-817328
-817320
-817342
-816979
-817265
-817434
-817532
-817423
-817099
-817527
-817642
-817648
-817620
-817202
-817575
-817731
-817708
-817716
-817379
-817648
-817803
-817984
-817749
-817550
-817763
-818088
-817979
-817896
-817691
-818018
-818239
-818319
-818126
-817845
-818106
-818271
-818404
-818303
-817867
-818359
-818358
-818347
-818161
-817950
-818287
-818454
-818413
-818195
-817881
-818237
-818349
-818437
-817902
-818317
-818385
-818349
-818340
-817883
-818100
-818198
-818222
-818037
-817727
-818167
-818123
-818129
-818024
-817723
-817888
-818013
-818066
-817820
-817492
-817786
-817959
-817890
-817405
-817492
-817578
-818335
-818150
-817782
-817488
-817926
-818038
-818013
-817820
-817520
-817890
-817948
-818010
-817752
-817478
-817758
-817880
-818017
-817767
-817533
-817853
-817928
-818100
-817987
-817635
-818008
-817912
-818007
-817933
-817584
-817963
-818097
-818109
-817937
-817802
-818066
-818148
-818302
-818146
-817806
-818181
-818259
-818408
-818328
-818018
-818247
-818378
-818451
-818378
-818028
-818431
-818476
-818458
-818306
-818061
-818543
-818690
-818805
-818537
-818205
-818643
-818683
-818689
-818698
-818251
-818661
-818688
-818516
-818404
-818199
-818473
-818734
-818822
-818667
-818326
-818571
-818807
-818861
-818645
-818322
-818690
-818775
-818857
-818818
-818489
-818804
-819086
-819085
-818989
-818709
-819020
-819126
-819326
-819335
-818942
-819142
-819266
-819342
-819246
-818906
-819226
-819386
-819428
-819372
-819042
-819363
-819609
-819824
-819856
-819446
-819592
-819756
-819830
-819863
-819675
-819834
-820008
-820130
-820094
-819739
-819858
-820100
-820144
-820072
-819676
-819825
-820112
-820301
-820211
-819804
-819864
-820084
-820150
-820147
-819839
-819902
-820052
-820218
-820138
-819739
-819743
-820077
-820171
-820094
-819788
-819847
-820007
-820133
-820230
-819837
-819948
-820066
-820169
-820271
-819990
-819982
-820224
-820343
-820259
-819902
-819929
-820299
-820208
-820250
-819907
-819803
-820071
-820049
-819985
-819672
-819593
-819883
-819973
-819950
-819767
-819669
-819866
-819897
-819956
-819308
-819360
-819739
-819931
-819774
-819622
-819429
-819679
-819790
-819924
-819508
-819331
-819717
-820265
-819702
-819516
-819360
-819624
-819685
-819804
-819526
-819398
-819662
-819722
-819707
-819423
-819310
-819597
-819734
-819728
-819542
-819356
-819775
-819923
-819993
-819547
-819403
-819823
-819866
-819991
-819603
-819331
-819806
-819848
-819812
-819572
-819295
-819507
-819592
-819583
-819230
-818838
-819007
-819096
-818932
-818635
-818270
-818352
-818328
-818159
-817703
-817269
-817461
-817355
-817186
-816799
-816471
-816597
-816413
-816350
-815870
-815468
-815642
-815675
-815573
-815146
-814717
-814820
-814600
-814530
-814304
-813910
-814276
-814211
-814219
-813934
-813638
-813851
-813759
-813730
-813348
-813063
-813378
-813414
-813440
-813345
-813161
-813451
-813433
-813372
-813100
-813363
-813515
-813387
-813393
-813057
-813415
-813562
-813608
-813415
-813009
-813494
-814103
-813763
-813613
-813235
-813662
-813734
-813828
-813633
-813285
-813670
-813707
-813727
-813686
-813458
-813761
-813865
-813969
-813820
-813390
-813852
-813871
-813838
-813693
-813277
-813817
-813802
-813723
-813689
-813455
-813847
-813831
-813881
-813648
-813315
-813723
-813820
-813755
-813652
-813390
-813784
-813717
-813864
-813749
-813311
-813749
-813765
-813813
-813721
-813629
-813653
-813757
-813727
-813913
-813455
-813879
-813955
-814003
-813915
-813524
-813844
-814083
-814125
-814012
-813676
-814079
-814104
-814074
-813981
-813787
-814205
-814219
-814335
-814398
-813873
-814267
-814342
-814271
-814202
-813822
-814051
-814186
-814281
-814250
-813828
-814194
-814350
-814249
-814264
-813816
-814038
-814166
-814179
-814249
-813749
-814064
-814131
-814193
-814226
-813773
-813995
-814041
-813977
-814032
-813594
-813843
-814106
-814060
-813952
-813464
-813758
-813891
-813968
-814013
-813508
-813787
-813766
-813815
-813778
-813346
-813551
-813733
-813589
-813640
-813268
-813572
-813630
-813781
-813577
-813111
-813423
-813568
-813625
-813362
-813290
-813731
-813845
-813828
-813475
-813739
-813691
-813348
-813805
-813910
-813920
-814025
-813740
-814006
-813234
-813686
-813551
-813873
-813995
-814021
-813944
-813673
-814099
-814131
-814045
-813957
-813773
-814199
-814201
-814345
-814397
-813879
-814124
-814254
-814403
-814428
-814013
-814197
-814434
-814193
-814365
-814003
-814303
-814438
-814351
-814118
-813814
-814275
-814386
-814387
-814203
-813893
-814337
-814389
-814304
-814256
-814069
-814350
-814478
-814580
-814518
-814089
-814325
-814462
-814377
-814594
-814263
-814612
-814653
-814512
-814581
-814154
-814479
-814660
-814676
-814683
-814242
-814585
-814685
-814689
-814589
-814244
-814640
-814854
-814761
-814866
-814489
-814722
-814926
-814788
-814899
-814433
-814555
-814865
-814917
-814944
-814619
-814888
-814931
-814770
-814751
-814607
-814773
-814995
-815084
-814870
-814519
-814883
-814974
-814858
-814934
-814651
-814929
-815139
-814982
-815014
-814669
-814910
-815214
-815246
-815001
-814771
-815047
-815092
-815141
-815348
-814880
-815237
-815276
-815274
-815215
-814762
-815107
-814919
-815089
-814942
-814763
-815058
-815202
-815180
-815052
-814877
-815261
-815303
-815232
-815110
-814833
-815156
-815363
-815292
-815283
-814901
-815113
-815282
-815292
-815096
-814712
-815085
-815055
-815033
-814877
-814518
-814943
-814860
-814856
-814549
-813916
-814242
-814225
-814233
-813898
-813363
-813531
-813519
-813357
-812781
-812559
-812710
-812644
-812483
-812102
-811690
-811813
-811678
-811629
-811395
-810902
-811075
-811068
-810848
-810481
-810099
-810369
-810421
-810311
-809933
-809679
-810031
-810001
-809928
-809692
-809260
-809623
-809679
-809600
-809310
-808991
-809336
-809493
-809535
-809496
-809025
-809276
-809480
-809400
-809417
-809447
-809517
-809575
-809453
-809250
-808904
-809213
-809333
-809322
-809270
-809075
-809345
-809530
-809550
-809355
-809163
-809430
-809521
-809485
-809460
-809164
-809571
-809617
-809677
-809600
-809243
-809545
-809634
-809704
-809810
-809335
-809617
-809793
-809708
-809616
-809250
-809515
-809750
-809803
-809704
-809333
-809616
-809754
-809736
-809798
-809434
-809651
-809724
-809880
-809869
-809564
-809749
-809950
-809842
-809754
-809396
-809617
-809831
-809869
-809742
-809547
-809867
-810099
-810140
-809903
-809731
-809866
-810508
-810373
-810260
-809920
-810003
-810202
-810346
-810216
-809984
-810016
-810281
-810338
-810265
-810012
-810168
-810489
-810534
-810356
-810121
-810197
-810415
-810555
-810494
-810138
-810226
-810462
-810499
-810547
-810119
-810139
-810461
-810387
-810344
-810090
-810064
-810295
-810294
-810387
-809901
-809937
-810097
-809993
-810159
-809814
-809782
-810156
-810181
-810208
-809745
-809647
-809889
-810009
-810022
-809718
-809629
-809966
-809899
-809967
-809640
-809489
-809901
-809894
-809834
-809555
-809539
-809892
-809868
-809946
-809652
-809446
-809729
-809923
-809898
-809519
-809408
-809764
-809872
-809962
-809702
-809339
-809719
-809926
-809886
-809640
-809561
-809866
-809823
-809929
-809659
-809501
-809884
-809923
-810010
-809711
-809630
-809919
-810026
-810052
-809777
-809572
-809930
-810078
-810269
-810008
-809706
-810122
-810291
-810312
-809956
-809592
-810036
-810220
-810027
-809945
-810060
-810345
-810357
-810303
-810040
-809885
-810288
-810293
-810520
-810216
-809950
-810303
-810436
-810499
-810289
-809937
-810434
-810497
-810520
-810208
-810056
-810446
-810465
-810414
-810296
-810082
-810388
-810492
-810661
-810439
-810116
-810480
-811141
-810733
-810624
-810299
-810559
-810651
-810658
-810620
-810373
-810783
-811008
-810999
-810718
-811296
-811086
-811063
-811043
-810873
-810481
-810957
-811012
-810862
-810932
-810595
-810810
-811033
-811102
-810834
-810647
-810950
-810956
-811048
-810965
-810519
-810948
-811019
-811024
-810916
-810634
-811036
-811027
-810872
-810806
-810511
-810934
-810974
-811041
-810966
-811492
-811338
-811254
-810951
-810917
-810432
-810953
-811124
-811098
-811190
-810765
-811033
-811189
-811124
-811062
-810765
-811164
-811823
-811562
-811326
-810951
-811253
-811369
-811390
-811356
-811019
-811322
-811498
-811526
-811530
-811132
-811432
-811641
-811590
-811484
-811120
-811517
-811635
-811492
-811660
-811325
-811554
-811660
-811683
-811468
-811220
-812186
-811818
-811707
-811570
-811134
-811345
-811244
-811100
-811061
-810576
-810847
-810812
-810656
-810426
-809971
-810127
-810064
-809939
-809725
-809077
-809221
-809187
-808991
-808900
-808217
-808325
-808203
-808048
-807870
-807255
-807494
-807455
-807211
-806919
-806444
-806609
-806656
-806500
-806326
-805787
-805976
-805928
-805857
-805793
-805244
-805556
-805515
-805350
-805326
-805000
-805071
-805266
-805249
-805069
-804714
-804950
-805149
-805185
-805063
-804697
-804823
-804949
-804815
-804814
-804887
-805098
-805124
-804911
-804950
-804541
-804930
-805103
-805091
-804960
-804667
-804812
-804997
-804991
-804944
-804594
-804807
-805106
-804955
-804874
-804698
-805094
-805098
-805042
-805135
-804694
-805032
-805019
-805099
-805009
-804656
-804947
-805081
-804970
-805055
-804633
-804895
-804985
-804914
-805015
-804652
-804805
-804980
-805063
-804923
-804462
-804901
-804773
-804879
-804813
-804585
-804838
-804960
-804795
-804958
-804625
-804758
-804951
-805385
-805020
-804595
-804880
-805049
-805180
-805173
-804719
-804978
-805150
-805096
-805139
-804819
-805187
-805261
-805439
-805245
-804964
-805216
-805344
-805412
-805585
-805064
-805371
-805575
-805452
-805361
-805036
-805369
-805497
-805296
-805275
-805687
-805436
-805423
-805284
-805242
-804770
-805071
-805122
-805148
-805060
-804775
-804891
-804969
-805072
-804885
-804445
-804874
-804852
-804756
-804736
-804514
-804687
-804775
-804763
-804927
-804522
-804740
-804806
-804853
-804744
-804385
-804523
-804833
-804851
-804707
-804390
-804611
-804775
-804764
-804797
-804351
-804729
-804772
-804784
-804584
-804298
-804742
-804793
-804817
-804542
-804336
-804566
-804707
-804687
-804574
-804321
-804670
-804714
-804688
-804728
-804327
-804505
-804732
-804745
-804864
-804388
-804713
-804898
-804810
-804573
-804349
-804713
-804767
-804865
-804686
-804442
-804824
-804904
-804910
-804836
-804569
-804912
-804932
-804827
-804740
-804508
-804909
-805120
-805135
-804925
-804607
-805021
-805205
-805218
-805165
-804867
-805119
-805203
-805340
-805112
-804928
-805118
-805187
-805282
-805150
-804897
-805204
-805320
-805448
-805306
-804933
-805206
-805401
-805363
-805218
-805032
-805382
-805361
-805484
-805435
-805121
-805333
-805454
-805506
-805305
-805106
-805245
-805595
-805584
-805394
-805073
-805327
-805540
-805478
-805458
-805168
-805510
-805579
-805689
-805449
-805259
-805487
-805713
-805633
-805558
-805393
-805616
-805821
-805787
-805552
-805290
-805482
-805603
-805721
-805664
-805412
-805678
-805828
-805926
-805630
-805402
-805577
-805747
-805765
-805749
-805371
-805573
-805782
-805820
-805755
-805391
-805571
-805762
-805845
-805723
-805429
-805678
-805834
-805935
-805755
-805483
-805664
-805852
-805855
-805772
-805480
-805755
-805810
-805866
-805852
-805528
-805719
-805851
-805864
-805930
-805550
-805712
-805893
-805983
-806009
-805638
-805611
-805886
-806012
-805879
-805546
-805568
-805811
-805932
-806097
-805738
-805666
-805970
-806066
-806149
-805730
-805864
-806077
-806220
-806209
-805797
-805750
-806086
-806111
-806193
-805887
-805961
-806284
-806291
-806193
-805818
-805937
-806182
-806413
-806386
-805956
-805978
-806310
-806315
-806451
-806073
-806084
-806265
-806417
-806478
-806235
-806126
-806457
-806524
-806460
-806109
-806050
-806256
-806299
-806401
-806066
-805983
-806215
-806323
-806183
-805813
-805522
-805766
-805755
-805793
-805401
-805045
-805351
-805256
-805073
-804550
-804223
-804353
-804283
-804199
-803679
-803300
-803478
-803346
-803244
-802833
-802385
-802560
-802552
-802163
-801790
-801511
-801602
-801592
-801414
-800882
-800661
-800927
-800845
-800731
-800441
-800147
-800430
-800456
-800227
-799979
-799670
-799920
-799945
-799992
-799734
-799450
-799747
-799635
-799553
-799555
-799242
-799576
-799749
-799674
-799552
-798981
-799526
-799677
-799579
-799577
-799320
-799577
-799702
-799550
-799484
-799256
-800175
-799805
-799710
-799658
-799346
-799681
-799716
-799751
-799588
-799313
-799588
-799721
-799723
-800233
-799514
-799641
-799691
-799784
-799596
-799352
-799740
-799792
-799901
-799672
-799328
-799695
-799832
-799874
-799675
-799166
-799630
-799721
-799659
-799569
-799236
-799622
-799639
-799716
-799621
-799229
-799646
-799719
-799434
-799635
-799338
-799635
-799680
-799500
-799721
-799457
-799714
-799838
-799925
-799895
-799475
-799671
-799760
-799905
-799714
-799422
-799793
-799977
-799892
-800054
-799698
-799994
-799976
-799928
-799993
-799623
-799966
-800081
-800141
-800129
-799778
-800061
-800100
-800142
-800111
-799704
-800111
-800060
-800123
-800027
-799612
-799911
-800035
-800073
-800036
-799595
-799943
-799935
-799937
-799810
-799413
-799644
-799802
-799731
-799725
-799465
-799705
-799754
-799659
-799548
-799238
-799471
-799632
-799697
-799712
-799269
-799560
-799539
-799493
-799434
-798996
-799266
-799331
-799389
-799520
-799060
-799242
-799301
-799313
-799171
-798921
-799234
-799313
-799315
-799304
-798874
-799110
-799213
-799251
-799182
-798854
-799212
-799218
-798914
-799067
-798881
-799026
-799262
-799271
-799263
-798888
-799113
-799292
-799271
-799632
-799014
-799268
-799339
-799399
-799204
-798997
-799295
-799492
-799552
-799580
-799067
-799517
-799464
-799349
-799487
-799130
-799388
-799473
-799614
-799623
-799269
-799568
-799622
-799687
-799698
-799217
-799518
-799602
-799639
-799750
-799285
-799570
-799766
-799738
-799792
-799334
-800370
-799975
-799901
-799698
-799536
-799740
-799927
-799844
-799839
-799451
-799767
-799787
-799976
-799924
-799552
-799727
-800027
-799926
-799790
-799570
-799950
-799904
-799829
-799961
-799629
-800028
-800079
-799986
-800030
-799652
-799808
-799891
-799783
-799850
-799638
-800087
-800165
-800119
-800132
-799687
-800075
-800113
-800172
-799918
-799690
-800098
-800200
-800065
-799793
-800252
-800263
-800283
-800057
-799704
-800150
-800187
-800208
-800095
-799858
-800171
-800137
-800174
-800187
-799802
-800147
-800238
-800333
-800186
-799890
-800308
-800364
-800408
-800333
-799954
-800231
-800457
-800380
-800420
-799919
-800117
-800271
-800312
-800226
-799898
-800356
-800407
-800328
-800157
-799867
-800259
-800294
-800385
-800165
-799953
-800142
-800369
-800357
-800139
-799997
-800160
-800447
-800408
-800269
-800104
-800198
-800472
-800500
-800331
-799997
-800297
-800449
-800517
-800291
-800084
-800440
-800539
-800501
-800365
-800066
-800437
-800541
-800526
-800482
-800101
-800483
-800536
-800589
-800507
-800115
-800409
-800531
-800572
-800427
-800184
-800492
-800309
-800545
-800360
-800048
-800386
-800557
-800523
-800535
-800155
-800512
-800614
-800569
-800405
-800058
-800319
-800301
-800223
-800023
-799681
-799919
-799990
-799882
-799537
-799042
-799184
-799156
-799021
-799003
-798383
-798388
-797428
-797266
-796801
-796417
-796521
-796428
-796309
-796149
-795549
-795675
-795690
-795507
-795332
-794874
-795021
-795011
-794691
-794746
-794277
-794501
-794487
-794439
-794409
-794097
-794314
-794260
-794252
-794127
-793745
-794014
-794141
-794171
-794080
-793817
-793859
-793770
-793915
-793929
-793690
-793764
-793932
-794007
-793944
-793607
-793739
-793953
-794047
-793834
-793640
-793687
-793947
-794068
-794011
-793720
-793834
-794094
-794197
-794242
-793785
-793770
-794107
-794281
-794237
-793889
-793976
-794122
-794129
-794245
-793796
-793842
-794175
-794238
-794295
-794013
-793929
-794225
-794204
-794289
-793927
-793982
-794238
-794349
-794353
-793984
-794030
-794254
-794347
-794354
-793894
-793866
-794140
-794308
-794439
-794012
-793745
-794284
-794317
-794282
-794028
-793969
-794301
-794310
-794462
-794179
-794212
-794532
-794468
-794606
-794338
-794165
-794510
-794671
-794685
-794420
-794391
-794692
-794778
-794807
-794440
-794362
-794654
-794789
-794875
-794498
-794353
-794687
-794826
-794723
-794479
-794311
-794563
-794632
-794657
-794410
-794131
-794481
-794613
-794737
-794280
-794068
-794407
-794489
-794382
-794044
-794028
-794307
-794410
-794369
-794198
-793949
-794066
-794213
-794176
-793973
-793706
-794099
-794127
-794235
-794270
-793826
-794004
-793901
-794096
-793823
-793652
-793945
-794003
-793840
-793697
-793427
-793817
-793911
-793961
-793732
-793445
-793807
-794369
-793991
-793811
-793509
-793799
-793893
-793984
-793816
-793467
-793879
-793861
-793904
-793852
-793481
-793879
-794047
-793828
-793736
-793545
-793962
-794096
-794023
-793974
-793629
-794050
-794139
-794149
-794083
-793858
-794124
-794220
-794248
-794105
-793821
-794139
-794746
-794380
-794186
-793967
-794274
-794393
-794278
-794226
-793914
-794254
-794369
-794416
-794291
-794079
-794406
-794407
-794454
-794349
-793987
-794265
-794260
-794193
-794728
-794219
-794453
-794486
-794534
-794439
-794157
-794339
-794410
-794391
-794165
-794481
-794550
-794587
-794465
-794116
-794440
-794639
-794581
-794725
-794297
-794649
-794629
-794698
-794477
-794103
-794495
-794621
-794489
-794611
-794210
-794450
-794571
-794683
-794692
-794291
-794605
-794713
-794695
-794658
-794330
-794643
-794706
-794421
-794638
-794357
-794621
-794634
-794762
-794791
-794297
-794649
-794708
-794629
-794601
-794284
-795373
-794885
-794664
-794569
-794187
-794468
-794622
-794518
-794772
-794296
-794521
-794728
-794672
-794592
-794253
-794553
-794683
-794720
-794654
-794212
-794611
-794658
-794681
-794651
-794296
-794596
-794708
-794390
-794431
-794181
-794534
-794709
-794738
-794707
-794412
-794541
-794733
-794713
-794485
-794208
-794300
-794632
-794679
-794690
-794331
-794652
-794706
-794751
-794731
-794355
-794570
-794655
-794822
-794816
-794334
-794805
-794851
-794792
-794733
-794336
-794714
-794771
-794686
-794825
-794573
-794749
-794909
-794858
-794812
-794447
-794950
-794959
-794883
-794967
-794652
-794766
-794988
-795023
-794570
-794980
-795139
-795087
-795048
-794768
-794924
-795016
-795029
-794939
-794600
-794986
-795021
-795115
-794888
-794615
-794984
-794828
-794660
-794610
-794387
-794490
-794676
-794571
-794512
-794042
-794064
-794179
-794061
-793706
-793219
-793400
-793351
-793157
-792928
-792395
-792436
-792357
-792145
-791901
-791400
-791632
-791501
-791256
-790994
-790512
-790617
-790653
-790306
-790166
-789660
-789885
-789847
-789826
-789453
-789061
-789301
-789291
-789128
-789388
-788654
-788703
-788857
-788802
-788714
-788294
-788561
-788580
-788524
-788386
-788015
-788384
-788420
-788326
-788171
-787980
-788290
-788339
-788439
-788280
-788000
-788298
-788401
-788466
-788446
-787981
-788328
-788419
-788425
-788171
-787947
-788281
-788376
-788389
-788297
-788002
-788335
-788439
-788349
-788159
-787993
-788383
-788426
-788391
-788395
-788100
-788362
-788465
-788432
-788278
-787900
-788292
-788425
-788426
-788307
-788003
-788414
-788452
-788447
-788105
-787968
-788297
-788444
-788368
-788262
-788025
-788280
-788426
-788439
-788163
-787867
-788231
-788243
-788361
-788166
-787973
-788199
-788370
-788334
-788229
-787925
-788346
-788361
-788451
-788374
-788229
-788473
-788531
-788658
-788582
-788261
-788484
-788549
-788605
-788260
-788233
-788619
-788743
-788691
-788690
-788241
-788517
-788708
-788757
-788527
-788272
-788613
-788726
-788680
-788490
-788147
-788479
-788545
-788517
-788383
-788154
-788386
-788477
-788506
-788298
-787987
-788170
-788312
-788324
-788262
-787997
-788124
-788229
-788295
-788225
-787881
-787981
-788108
-788179
-788142
-787628
-787861
-787983
-788007
-787976
-787726
-787722
-787845
-787863
-787766
-787543
-787614
-787901
-787896
-787799
-787508
-787703
-787595
-787346
-787547
-787715
-787261
-787388
-787598
-787541
-787582
-787349
-787511
-787771
-787725
-787685
-787377
-787507
-787661
-787780
-787860
-787547
-787490
-787801
-787935
-787938
-787530
-787437
-787778
-787824
-787848
-787534
-787635
-787853
-787835
-787879
-787611
-787478
-787748
-787857
-787788
-787524
-787897
-787838
-787924
-787548
-787510
-787927
-787989
-788025
-787720
-787716
-787935
-788011
-788084
-787906
-787695
-787992
-788147
-787982
-787724
-787826
-788175
-788232
-788248
-787846
-787681
-788073
-788193
-788276
-787925
-787707
-788152
-788206
-788326
-788415
-787849
-788148
-788283
-788350
-788140
-787938
-788178
-788325
-788282
-788035
-787880
-788238
-788309
-788249
-788056
-787932
-788312
-788393
-788236
-788168
-787899
-788305
-788327
-788357
-788144
-788036
-788316
-788426
-788332
-788232
-787949
-788311
-788504
-788518
-788279
-788053
-788452
-788594
-788533
-788265
-788074
-788419
-788479
-788569
-788398
-788055
-788370
-788377
-788495
-788375
-788008
-788465
-788599
-788466
-788301
-788137
-788430
-788613
-788549
-788503
-788108
-788477
-788698
-788718
-788615
-788133
-788553
-788680
-788684
-788507
-788060
-788421
-788469
-788448
-788374
-788188
-788443
-788660
-788489
-788466
-788093
-788483
-788612
-788509
-788435
-788177
-788477
-788562
-788639
-788567
-788199
-788528
-788587
-788595
-788556
-788203
-788606
-788416
-788612
-788578
-788220
-788569
-788585
-788540
-788512
-788259
-788573
-788787
-788642
-788596
-788263
-788582
-788650
-788550
-788720
-788373
-788669
-788692
-788589
-788689
-788222
-788578
-788694
-788754
-788744
-788399
-788737
-788751
-788653
-788689
-788407
-788634
-788514
-788762
-788828
-788407
-788727
-788901
-788791
-788859
-788374
-788632
-788852
-788840
-788826
-788775
-788827
-788871
-788822
-788760
-788455
-788799
-788731
-788658
-788753
-788244
-788584
-788672
-788486
-788582
-788100
-788158
-788199
-787941
-787735
-787386
-787463
-787401
-787232
-787141
-786595
-786552
-786528
-786344
-786118
-785638
-785851
-785610
-785364
-785182
-784693
-784727
-784697
-784621
-784240
-783785
-783903
-783886
-783785
-783618
-783010
-783280
-783277
-783057
-783071
-782654
-782909
-782806
-782637
-782687
-782185
-782460
-782507
-782310
-782352
-781908
-782164
-782295
-782176
-782220
-781754
-781923
-782117
-782045
-782225
-781752
-781967
-782061
-781921
-782049
-781736
-782170
-782201
-782127
-782055
-781721
-781995
-782128
-782189
-782155
-781736
-782152
-782201
-782030
-782164
-781769
-782151
-782097
-782155
-781943
-781638
-782121
-782017
-781931
-781774
-781678
-782152
-782163
-782135
-781945
-781665
-781874
-781885
-782030
-782097
-781688
-781933
-782119
-781995
-781811
-781628
-781814
-781951
-781921
-782071
-781457
-781998
-782146
-781982
-781866
-781571
-782048
-782112
-782034
-781927
-781636
-781975
-782177
-782136
-782100
-781760
-781967
-782112
-782250
-782350
-781904
-782253
-782259
-782298
-782267
-781885
-782249
-782406
-782305
-782238
-781978
-782242
-782442
-782413
-782321
-781902
-782098
-782345
-782431
-782189
-781906
-782193
-782273
-782425
-782071
-781850
-782249
-782315
-782215
-781976
-781679
-782139
-782201
-782177
-781902
-781602
-781842
-781997
-781934
-781824
-782101
-782050
-782008
-781866
-781726
-781185
-781651
-781754
-781628
-781514
-781198
-781504
-781710
-781660
-781465
-781183
-781507
-781611
-781610
-781434
-781268
-781645
-781689
-781688
-781508
-781081
-781500
-781457
-781462
-781548
-780876
-781391
-781463
-781525
-781303
-781155
-781486
-781566
-781544
-781048
-781031
-781386
-781503
-781451
-781265
-781117
-781453
-781602
-781564
-781408
-781219
-781553
-781592
-781586
-781553
-781216
-781504
-781571
-781589
-781401
-781269
-781633
-781748
-781646
-781552
-781240
-781613
-781707
-781673
-781652
-781385
-781628
-781701
-781854
-781867
-781517
-781664
-781849
-781924
-781496
-781431
-781718
-781864
-781894
-781813
-781474
-781689
-781834
-781856
-781924
-781642
-781708
-781902
-781927
-782356
-781644
-781776
-781859
-782395
-781959
-781494
-781746
-781884
-781885
-781801
-781613
-781663
-781857
-781899
-781809
-781658
-781735
-781902
-781923
-781821
-781572
-781638
-782001
-782050
-782083
-781640
-781721
-781986
-782164
-782048
-781698
-781908
-782071
-782084
-782000
-781733
-781843
-782047
-782194
-782107
-781845
-781852
-782039
-782080
-782134
-781863
-781975
-782110
-782199
-782203
-781893
-781903
-782134
-782231
-781834
-781727
-781865
-782047
-782181
-782174
-781820
-781771
-782037
-782203
-781989
-781830
-781867
-782194
-782259
-782359
-781924
-781826
-782072
-782215
-782281
-782022
-781994
-782180
-782277
-782450
-782054
-781935
-782141
-782290
-782364
-782063
-781940
-782307
-782360
-782406
-782030
-781965
-782294
-782291
-782391
-782017
-781943
-782202
-782386
-782538
-782198
-781971
-782292
-782287
-782562
-782317
-782087
-782407
-782578
-782505
-782211
-782557
-782567
-782520
-782567
-782389
-782296
-782013
-782398
-782429
-782640
-782389
-782163
-782453
-782597
-782673
-782387
-782128
-782488
-782507
-782543
-782418
-782221
-782521
-782687
-782614
-782436
-782129
-782530
-782671
-782745
-782512
-782256
-782634
-782817
-782736
-782241
-782224
-782626
-782671
-782789
-782515
-782218
-782559
-782684
-782561
-782445
-782083
-782125
-782381
-782364
-782162
-781760
-781950
-781882
-781919
-781621
-781131
-781293
-781317
-780880
-780480
-780308
-780532
-780412
-780341
-779939
-779517
-779631
-779521
-779214
-779080
-778535
-778749
-778710
-778513
-778231
-777664
-777778
-777755
-777532
-777557
-777036
-777378
-777802
-777362
-777098
-776560
-776771
-776830
-776634
-776627
-776160
-776493
-776510
-776369
-776373
-775959
-776196
-776249
-776248
-776336
-775920
-776156
-776272
-776156
-776207
-775774
-775988
-776161
-776110
-775917
-775619
-776017
-776102
-775961
-775588
-775827
-775983
-776063
-776085
-775713
-775945
-776003
-775920
-776025
-775631
-775875
-776014
-776041
-775833
-775585
-775787
-775994
-775919
-775945
-775638
-775876
-775971
-776095
-776113
-775636
-776003
-775982
-776054
-776002
-775679
-775853
-775964
-776031
-776000
-775562
-775877
-775959
-775972
-775910
-775602
-775855
-775986
-775840
-775918
-775627
-775981
-775993
-775886
-775576
-775814
-776121
-776040
-776204
-775810
-776020
-776090
-776025
-776214
-775747
-775761
-776150
-776297
-776169
-775856
-776070
-776233
-776285
-776096
-775844
-776014
-776208
-776207
-776208
-775904
-776218
-776168
-776166
-776102
-775873
-776056
-776199
-776220
-776303
-775812
-775903
-776127
-776024
-775981
-775935
-775983
-775975
-775999
-775937
-775527
-775751
-775815
-775684
-775898
-775459
-775549
-775741
-775632
-775444
-775245
-775398
-775654
-775676
-775502
-775115
-775434
-775458
-775527
-775374
-774973
-775345
-775367
-775368
-775286
-774992
-775349
-775392
-775439
-775251
-775040
-775180
-775283
-775214
-775252
-774893
-775260
-775312
-775321
-775175
-774942
-775136
-775335
-775307
-775222
-774990
-775241
-775464
-775457
-775307
-775061
-775522
-775548
-775413
-775425
-775077
-775286
-775510
-775618
-775573
-775232
-775475
-775590
-775495
-775619
-775440
-775565
-775619
-775576
-775323
-775600
-775740
-776264
-775742
-775315
-776340
-775963
-775833
-775729
-775848
-775886
-775926
-775868
-775732
-775358
-775729
-775891
-775854
-775809
-775528
-775758
-775770
-775952
-775949
-775577
-775777
-775913
-775908
-775935
-775577
-775945
-776071
-776080
-776107
-775611
-776007
-776091
-776072
-775837
-775594
-776036
-776141
-776099
-775841
-775605
-775972
-776051
-776031
-776187
-775842
-776245
-776168
-776156
-776096
-775790
-776058
-776169
-776210
-776147
-775793
-776211
-776282
-776331
-776292
-775817
-776044
-776317
-776361
-776102
-775843
-776294
-776329
-776324
-776102
-775848
-776226
-776318
-776322
-776197
-775989
-776328
-776433
-776449
-776115
-775842
-776333
-776463
-776480
-776229
-776085
-776420
-776426
-776541
-776396
-776127
-776432
-776412
-776400
-776471
-776123
-776276
-776537
-776432
-776537
-776148
-776486
-776537
-776475
-776365
-776083
-776350
-776316
-776500
-776533
-775986
-776403
-776537
-776533
-776407
-776280
-776531
-776663
-776673
-776461
-776232
-776432
-776606
-776651
-776309
-776262
-776532
-776642
-776763
-776596
-776306
-776502
-776687
-776775
-777155
-776425
-776695
-776784
-776865
-776696
-776347
-776533
-776779
-776865
-776832
-777029
-776762
-776872
-776880
-776709
-776363
-776506
-776750
-776751
-776943
-776557
-776704
-776802
-776773
-776849
-776540
-776543
-776797
-776838
-776873
-776565
-776672
-776943
-776996
-776951
-776613
-776669
-776982
-776986
-777064
-776661
-776743
-776993
-777082
-777150
-776681
-776667
-777016
-777067
-776823
-776669
-776738
-777046
-777108
-777196
-776553
-776699
-776873
-776968
-777122
-776612
-776474
-776655
-776719
-776593
-776112
-775996
-776126
-776169
-776049
-775589
-775289
-775483
-775330
-775138
-774667
-774375
-774479
-774383
-774298
-773859
-773524
-773657
-773532
-773543
-772975
-772687
-772765
-772782
-772427
-772016
-771849
-772030
-771969
-771875
-771392
-771219
-771393
-771327
-771209
-770828
-770663
-770900
-770927
-770955
-770665
-770343
-770681
-770744
-770701
-770521
-770292
-770644
-770656
-770692
-770487
-770249
-770535
-770632
-770630
-770416
-770231
-770480
-770563
-770685
-770388
-770047
-770328
-770471
-770389
-770332
-770108
-770443
-770498
-770581
-770452
-770186
-770508
-770653
-770720
-770418
-770177
-770539
-770662
-770594
-770479
-770194
-770474
-770604
-770409
-770460
-770225
-770617
-770670
-770536
-770414
-770204
-770529
-770238
-770637
-770700
-770563
-770486
-770134
-770500
-770587
-770477
-770453
-770151
-770477
-770591
-770480
-770428
-770224
-770498
-770669
-770528
-770594
-770272
-770699
-770730
-770817
-770656
-770360
-770650
-770762
-770786
-770747
-770451
-770864
-770902
-770838
-770827
-770487
-770823
-770885
-770863
-770847
-770460
-770799
-770979
-770971
-770740
-770496
-770868
-770871
-771016
-771046
-770590
-770880
-770905
-770982
-770997
-770491
-770817
-770862
-770749
-770771
-770480
-770739
-770717
-770754
-770792
-770415
-770505
-770562
-770577
-770614
-770137
-770360
-770523
-770571
-770076
-770407
-770339
-770398
-770318
-769963
-770272
-770397
-770452
-770236
-769887
-770117
-770274
-770301
-770398
-769900
-770107
-770241
-769993
-770169
-769784
-770126
-770312
-770230
-770269
-769853
-770129
-770323
-770321
-770160
-769842
-770130
-770241
-770289
-770414
-770093
-770300
-770464
-770424
-770315
-769932
-770262
-770417
-770414
-770300
-770022
-770337
-770453
-770474
-770227
-770002
-770312
-770501
-770383
-770367
-770066
-770294
-770513
-770602
-770511
-769938
-770458
-770551
-770195
-770335
-770184
-770554
-770681
-770657
-770775
-770363
-770680
-770728
-770730
-770601
-770193
-770502
-770744
-770690
-770582
-770389
-770659
-770856
-770825
-770762
-770485
-770809
-770851
-770769
-770905
-770538
-770941
-771020
-770978
-770965
-770687
-770830
-770972
-771077
-770923
-770657
-770893
-771090
-771038
-771196
-770665
-770917
-771449
-771191
-770992
-770690
-771081
-771092
-771135
-771062
-770741
-770864
-770931
-771144
-771140
-770842
-771082
-771297
-771323
-771163
-770847
-771255
-771306
-771373
-771355
-771033
-771176
-771351
-771981
-771606
-771135
-771250
-771419
-771307
-771466
-771006
-771200
-771374
-771356
-771843
-771163
-771454
-771509
-771325
-771388
-771130
-771308
-771477
-771553
-771464
-771245
-771406
-771556
-771541
-771376
-771084
-771552
-771461
-771481
-771522
-771748
-771764
-771658
-771546
-771468
-771286
-771690
-771756
-771584
-771610
-771268
-771590
-771558
-771627
-771532
-771351
-771657
-771672
-771715
-771757
-771517
-771653
-771853
-771844
-771699
-771520
-771862
-771910
-771786
-771784
-771470
-771828
-771948
-771828
-771806
-771463
-771739
-771982
-772003
-771811
-771579
-771980
-772066
-772028
-771837
-771592
-772122
-772207
-772353
-772109
-771777
-772161
-772244
-772232
-772133
-771811
-772204
-772259
-772311
-772164
-771861
-772267
-772425
-772443
-772370
-771937
-772381
-772347
-772332
-772343
-772054
-772499
-772501
-772455
-772321
-772069
-772385
-772526
-772616
-772590
-772339
-772484
-772630
-772607
-772438
-772284
-772653
-772675
-772698
-772462
-772142
-772398
-772461
-772456
-772364
-771858
-772004
-771979
-772279
-771673
-771240
-771303
-771351
-771197
-770884
-770593
-770771
-770600
-770392
-770182
-769687
-769853
-769735
-769680
-769392
-768919
-768993
-768634
-768776
-768601
-768075
-768198
-768188
-768081
-767829
-767405
-767602
-767560
-767427
-767315
-766962
-767056
-767072
-767138
-766917
-766541
-766683
-766761
-766734
-766610
-766276
-766520
-766554
-766690
-766526
-766150
-766334
-766454
-766438
-766500
-766165
-766316
-766474
-766656
-766477
-766180
-766337
-766567
-766618
-766541
-766211
-766444
-766683
-766728
-766614
-766276
-766425
-766629
-766681
-766575
-766444
-766438
-766640
-766694
-766625
-766335
-766396
-766693
-766745
-766786
-766328
-766465
-766680
-766684
-766592
-766349
-766408
-766674
-766731
-766854
-766381
-766483
-766784
-766850
-766635
-767137
-766682
-766828
-766881
-766750
-766425
-766478
-766766
-766810
-766868
-766541
-766517
-766723
-766744
-766831
-766605
-766552
-766946
-766959
-766986
-766764
-766660
-766871
-767063
-767076
-766824
-766721
-767118
-767151
-767184
-766805
-766738
-767090
-767259
-767294
-766965
-766937
-767237
-767327
-767107
-766903
-766875
-767251
-767320
-767462
-767167
-767003
-767239
-767349
-767355
-767029
-766802
-767595
-767369
-767309
-767035
-766829
-767187
-767347
-767408
-767013
-766799
-767198
-767275
-767186
-766911
-766689
-767100
-767215
-767159
-766845
-766576
-766987
-767080
-767125
-766854
-766513
-766843
-767012
-767095
-766726
-766502
-766732
-766783
-766747
-766567
-766398
-766799
-766843
-766930
-766767
-766335
-766664
-766748
-766723
-766684
-766354
-766763
-766828
-766852
-766765
-766477
-766744
-766805
-766972
-766763
-766279
-766687
-766885
-766937
-766820
-766440
-766811
-766927
-766826
-766802
-766611
-766959
-767115
-767063
-766986
-766726
-766979
-767186
-767202
-767101
-766810
-767067
-767296
-767210
-767212
-766877
-767224
-767064
-767175
-767277
-767022
-767421
-767437
-767267
-767346
-767042
-767435
-767542
-767560
-767483
-767191
-767564
-767667
-767484
-767552
-767286
-767573
-767652
-767696
-767780
-767415
-767719
-767868
-767931
-767745
-767439
-767733
-767900
-768017
-767878
-767690
-767960
-768088
-768073
-767946
-767534
-767882
-768075
-768076
-768034
-767701
-768123
-768277
-768379
-768298
-767928
-768206
-768308
-768301
-768361
-768011
-768362
-768409
-768407
-768556
-768138
-768514
-768592
-768492
-768631
-768163
-768574
-768756
-768691
-768682
-768402
-768813
-768876
-768874
-768882
-768485
-768855
-769047
-768986
-768923
-768649
-768936
-769211
-769017
-769233
-768867
-769416
-769034
-769423
-769496
-769652
-769640
-769181
-769544
-769653
-769728
-769714
-769338
-769685
-769775
-769817
-769901
-769576
-769866
-769973
-770099
-770032
-769565
-769915
-770189
-770230
-770243
-769850
-770203
-770232
-770208
-770328
-769998
-770340
-770561
-770648
-770669
-770314
-770671
-770727
-770483
-770638
-770357
-770745
-770924
-770706
-770822
-770603
-770852
-771072
-770993
-771110
-770727
-770960
-771197
-771215
-771431
-771001
-771388
-771450
-771554
-771529
-771203
-771564
-771711
-771603
-771694
-771420
-771741
-771936
-771912
-771753
-771430
-771767
-772027
-771962
-771987
-771611
-771780
-771892
-771884
-771813
-771463
-771485
-771649
-771614
-771581
-771124
-771140
-771215
-771152
-770927
-770464
-770714
-770544
-770553
-770317
-769882
-769848
-769964
-769578
-769591
-769180
-769444
-769338
-769147
-769067
-768595
-768735
-768737
-768564
-768412
-767987
-768582
-768439
-768113
-768086
-767757
-767836
-768003
-767832
-767714
-767489
-767827
-767867
-767797
-767593
-767296
-767792
-767772
-767903
-767887
-767433
-768197
-767825
-767808
-767818
-767506
-767747
-767974
-768167
-768156
-767706
-768141
-768262
-768378
-768277
-767884
-768316
-768286
-768190
-768325
-767988
-768251
-768508
-768594
-768604
-768201
-768550
-768693
-768620
-768589
-768448
-768543
-768867
-768959
-768904
-768660
-769003
-768994
-769038
-769026
-768758
-769026
-769124
-769141
-769050
-768837
-769152
-769303
-769293
-769223
-768978
-769081
-769342
-769495
-769366
-769028
-769377
-769546
-769528
-769711
-769394
-769758
-769856
-769975
-769883
-769458
-769714
-769964
-769909
-769856
-769673
-770003
-770221
-770206
-770021
-769814
-770275
-770460
-770532
-770310
-770106
-770511
-770636
-770539
-770339
-770210
-770700
-770646
-770657
-770619
-770299
-770735
-770866
-770907
-770909
-770562
-770725
-770851
-770973
-770689
-770465
-770777
-770869
-770974
-770844
-770261
-770748
-770989
-771032
-770846
-770468
-770945
-771044
-771003
-770840
-770576
-770858
-770944
-771059
-770857
-770481
-770735
-770867
-770967
-770675
-770427
-770871
-770998
-770872
-770908
-770537
-770783
-771010
-770984
-770804
-770559
-770888
-771049
-771112
-770872
-770595
-770903
-771086
-771091
-771103
-770754
-771093
-771273
-771285
-771078
-770692
-771022
-771354
-771483
-771306
-771099
-771336
-771450
-771500
-771676
-771199
-771431
-771624
-771651
-771432
-771270
-771641
-771720
-771797
-771604
-771340
-771511
-771842
-771914
-771929
-771572
-771834
-772011
-772114
-772101
-771727
-772028
-772052
-772231
-772141
-771910
-772083
-772399
-772481
-772449
-772086
-772282
-772449
-772610
-772557
-772255
-772360
-772631
-772688
-772632
-772371
-772579
-772662
-772767
-772658
-772325
-772641
-772828
-772851
-773017
-772695
-772751
-772988
-773080
-773047
-772815
-772833
-773738
-773336
-773311
-772911
-772894
-773231
-773280
-773240
-772994
-773138
-773387
-773498
-773296
-773054
-773206
-773431
-773468
-773494
-773253
-773313
-773674
-773759
-773822
-773423
-773478
-773747
-773921
-773862
-773581
-773602
-773916
-774004
-774016
-773607
-773587
-774033
-774125
-774076
-773792
-773816
-774084
-774251
-774350
-773981
-773914
-774235
-774275
-774332
-773961
-773984
-774237
-774429
-774449
-773940
-773969
-774334
-774559
-774579
-774274
-774213
-774580
-774716
-774680
-774332
-774246
-774691
-774681
-774723
-774573
-774371
-774756
-774831
-774742
-774583
-774436
-774777
-774845
-774940
-774746
-774485
-774820
-775006
-774913
-774833
-774606
-775027
-775161
-775158
-774908
-774710
-775083
-775227
-775640
-775223
-774872
-775161
-775285
-775361
-775220
-775055
-775286
-775327
-775360
-775195
-774948
-775397
-775422
-775423
-775287
-775049
-775350
-775453
-775484
-775362
-775015
-775513
-775673
-775586
-775479
-775221
-775527
-775659
-775630
-775596
-775343
-775696
-775824
-775962
-775816
-775418
-775844
-776031
-775942
-776048
-776050
-775912
-775687
-776053
-776123
-776181
-775973
-775595
-775881
-776022
-775869
-775654
-775403
-775792
-775714
-775466
-775340
-774901
-775076
-775089
-774851
-774692
-774334
-774507
-774370
-774211
-774019
-773512
-773600
-773551
-773450
-773116
-772599
-772831
-772740
-772377
-772239
-772165
-772101
-771904
-771867
-771573
-771081
-771299
-771315
-771050
-770919
-770552
-770789
-770854
-770634
-770563
-770169
-770445
-770344
-770263
-770304
-769897
-770204
-770276
-770187
-770211
-769832
-770135
-770307
-769757
-770291
-770279
-769962
-770233
-770303
-770395
-770298
-769909
-770306
-770249
-770392
-770275
-769958
-770377
-770376
-770562
-770526
-770019
-770333
-770465
-770390
-770466
-770175
-770500
-770598
-770475
-770646
-770301
-770622
-770743
-770778
-771260
-770510
-770640
-770616
-770684
-770767
-770300
-770536
-770764
-770753
-770772
-770381
-770649
-770679
-770844
-770821
-770434
-770684
-770803
-770781
-770768
-770416
-770798
-770857
-770862
-771513
-770669
-770838
-770930
-771032
-771085
-770693
-771073
-771093
-771094
-771207
-770805
-771003
-771129
-771072
-771317
-770822
-771037
-771259
-771313
-771291
-770902
-771210
-771191
-771401
-771374
-771105
-771302
-771387
-771382
-771405
-771005
-771272
-771457
-771484
-771566
-771190
-771316
-771457
-771494
-771493
-771078
-771286
-771522
-771460
-771396
-770999
-771116
-771263
-771358
-771261
-770858
-771124
-771230
-771195
-771215
-770886
-771177
-771269
-771321
-771122
-770776
-771057
-771098
-771187
-771047
-770823
-771027
-771108
-771021
-771018
-770704
-770935
-771116
-771178
-771124
-770777
-771142
-771144
-771147
-771111
-770645
-770974
-771111
-771198
-771150
-770798
-771134
-771255
-771135
-771249
-770895
-771141
-771273
-771131
-771037
-770826
-771341
-771402
-771242
-771349
-771011
-771296
-771379
-771374
-771426
-771029
-771359
-771547
-771597
-771450
-771153
-771646
-771680
-771730
-771704
-771405
-771837
-771884
-771880
-771659
-771508
-771905
-771917
-771930
-771678
-771421
-771471
-771792
-771955
-771905
-771560
-771712
-771983
-772149
-772177
-771834
-772157
-772186
-772105
-772186
-771846
-772081
-772149
-772221
-772047
-771864
-772092
-772318
-772221
-772181
-771976
-772322
-772377
-772178
-772266
-772075
-772274
-772445
-772497
-772526
-772118
-772492
-773064
-772733
-772511
-772067
-772639
-772650
-772700
-772563
-772254
-772563
-772727
-772744
-772628
-772346
-772714
-772753
-772748
-772546
-772324
-773479
-773086
-772868
-772529
-772436
-772718
-772957
-772889
-772801
-772482
-772970
-772984
-772956
-773355
-772837
-773535
-773253
-773042
-772787
-772958
-773312
-773107
-773065
-772738
-773114
-773190
-773197
-773129
-772808
-772829
-773151
-773205
-773106
-772888
-773114
-773211
-773368
-773044
-772782
-773230
-773283
-773359
-773282
-773053
-773395
-773370
-773479
-773482
-772996
-773483
-773461
-773565
-773464
-773225
-773585
-773668
-773582
-773439
-773176
-773516
-773606
-773702
-773409
-773266
-773564
-773650
-773755
-773658
-773351
-773622
-773744
-773710
-773639
-773392
-773702
-773830
-773859
-773789
-773481
-773694
-773795
-773803
-773669
-773460
-773731
-773921
-773731
-773812
-773498
-773835
-773869
-773854
-773776
-773536
-773956
-774097
-774129
-774030
-773726
-773947
-774046
-774191
-774154
-773914
-774174
-774250
-774245
-774297
-773976
-774179
-774280
-774303
-774260
-774029
-774273
-774444
-774533
-774464
-774088
-774318
-774393
-774404
-774355
-774111
-774191
-774427
-774526
-774509
-774189
-774343
-774556
-774576
-774403
-774113
-774255
-774478
-774420
-774400
-773999
-774112
-774186
-774163
-774161
-773602
-773481
-773668
-773701
-773588
-773060
-773016
-772959
-772949
-772792
-772287
-772190
-772289
-772270
-771857
-771455
-771391
-771451
-771365
-771103
-770724
-770622
-770701
-770673
-770598
-770137
-770071
-770142
-770026
-769931
-769543
-769452
-769581
-769576
-769508
-769115
-769133
-769307
-769292
-769304
-768961
-768958
-769196
-769275
-768723
-768827
-769004
-769144
-769007
-768764
-768820
-769024
-769104
-769123
-768712
-768751
-769051
-769135
-769192
-768822
-768919
-769080
-769230
-769284
-768994
-768814
-769123
-769241
-769349
-769055
-769053
-769338
-769366
-769328
-769019
-768916
-769383
-769426
-769527
-769223
-769189
-769442
-769547
-769560
-769268
-769097
-769451
-769553
-769640
-769367
-769238
-769481
-769651
-769632
-770123
-769518
-769535
-769632
-769661
-769409
-769259
-769624
-769729
-769856
-769577
-769393
-769757
-769820
-769815
-769691
-769515
-769866
-769911
-769865
-769647
-769481
-769851
-769962
-770036
-769833
-769684
-769786
-770107
-769984
-769854
-769682
-770062
-770112
-770354
-770068
-769839
-770236
-770382
-770232
-770121
-769914
-770264
-770242
-770441
-770228
-769957
-770376
-770411
-770467
-770154
-769862
-770281
-770269
-770400
-770226
-770005
-770281
-770377
-770325
-770137
-769866
-770497
-770417
-770175
-770077
-769751
-770128
-770138
-770174
-769975
-769737
-770052
-770064
-770059
-769951
-769664
-769991
-770070
-769889
-769785
-769496
-769832
-769868
-769932
-769849
-769509
-769860
-769903
-770001
-769864
-769532
-769752
-769849
-769806
-769730
-769435
-769884
-770039
-769840
-769802
-769498
-769857
-769983
-769979
-769901
-769704
-769923
-770089
-770152
-770024
-769650
-769998
-770158
-770162
-770099
-769701
-770139
-770330
-770175
-770210
-769821
-770185
-770260
-770226
-770322
-770008
-770309
-770436
-770349
-770446
-770028
-770457
-770497
-770699
-770432
-770597
-770194
-770557
-770707
-770711
-770804
-770411
-770724
-770738
-770661
-770753
-770421
-770884
-770965
-770983
-770532
-770832
-771068
-771106
-771107
-770705
-771027
-771133
-771096
-771127
-770790
-771077
-771197
-771301
-771227
-770755
-771065
-771195
-771159
-771153
-770897
-771137
-771255
-771298
-770949
-771272
-771362
-771194
-771388
-771030
-771365
-771470
-771405
-771466
-771075
-771362
-771518
-771494
-771450
-771103
-771540
-771621
-771665
-771562
-771226
-771558
-771508
-771444
-771431
-771238
-771508
-771744
-771731
-771669
-771337
-771678
-771793
-771794
-771740
-771362
-771700
-771785
-771868
-771929
-771499
-771834
-771754
-771877
-771916
-771545
-771888
-771946
-771943
-772103
-771652
-771776
-771893
-772065
-772084
-771681
-772035
-772137
-772001
-772817
-771935
-771825
-772011
-772084
-772154
-771550
-771883
-772118
-772017
-772148
-771837
-772136
-772269
-772360
-772257
-772235
-772348
-772408
-772346
-772397
-772019
-772234
-772413
-772387
-772480
-772051
-772371
-772481
-772562
-772443
-772115
-772308
-772342
-772411
-772318
-771860
-772654
-772346
-772220
-771984
-771567
-771757
-771713
-771586
-771436
-771100
-771271
-771308
-771207
-770973
-770458
-770271
-770448
-770437
-770112
-769703
-769740
-769911
-769599
-769351
-768982
-769048
-769053
-768885
-768751
-768353
-768465
-768502
-768510
-768261
-767729
-767992
-768115
-767885
-767883
-767409
-767641
-767452
-767508
-767416
-767031
-767189
-768075
-767905
-767429
-766940
-767337
-767161
-767156
-767234
-766917
-767907
-767610
-767412
-767186
-766858
-767255
-767420
-767225
-767211
-766993
-767296
-767462
-767447
-767305
-767050
-767268
-768044
-767575
-767432
-767178
-767533
-767512
-767458
-767485
-767199
-767632
-768049
-767627
-767514
-767873
-767796
-767793
-767798
-767407
-767273
-767588
-767719
-767483
-767663
-767345
-767646
-767719
-767677
-767582
-767447
-767713
-768453
-768041
-767844
-767308
-767774
-767766
-767969
-767735
-767543
-768021
-768051
-768091
-767908
-767542
-768041
-768151
-768123
-768522
-767926
-767601
-768161
-768295
-768156
-767864
-768226
-768729
-768443
-768387
-768126
-768267
-768535
-769296
-768651
-768797
-768540
-768666
-768770
-768508
-768824
-768666
-768657
-768743
-768466
-768206
-768627
-768608
-768644
-768446
-768270
-768723
-768688
-768747
-768618
-768014
-768440
-768581
-768573
-768378
-768057
-768420
-768550
-768534
-768401
-768740
-768631
-768624
-768572
-768462
-768181
-768450
-768575
-768516
-768309
-768052
-768355
-768333
-768360
-768192
-767805
-768312
-768162
-768387
-768205
-768069
-768324
-768410
-768215
-768273
-768025
-768219
-768453
-768456
-768085
-767942
-768354
-768477
-768879
-768567
-768130
-768553
-768660
-768700
-768552
-768176
-768492
-768592
-768686
-768330
-768467
-768457
-768487
-768755
-768522
-768322
-768609
-769281
-768909
-769124
-768354
-768707
-768888
-768928
-768665
-768384
-768764
-768843
-768916
-768724
-768623
-768995
-769113
-769167
-768962
-768735
-768979
-769087
-769169
-769379
-768854
-769258
-769241
-769246
-769122
-768849
-769182
-769339
-769357
-769363
-769112
-769378
-769506
-769469
-769404
-769187
-769413
-769614
-769563
-769549
-769290
-769566
-769715
-769717
-769578
-769296
-769522
-769725
-769784
-769726
-769401
-769634
-769882
-769948
-769929
-769564
-769673
-769864
-769970
-769990
-769646
-769784
-769914
-770001
-769943
-769674
-769830
-769990
-770088
-770002
-769750
-769950
-770148
-770120
-770075
-769879
-769986
-770133
-770193
-770187
-769992
-770075
-770232
-770335
-770331
-769992
-770123
-770386
-770427
-770364
-770090
-770260
-770475
-770551
-770430
-770084
-770317
-770484
-770562
-770739
-770274
-770345
-770563
-770546
-770561
-770329
-770420
-770668
-770652
-770670
-770338
-770452
-770650
-770750
-770698
-770436
-770500
-770647
-770825
-770837
-770535
-770622
-770891
-770937
-770872
-770560
-770604
-770842
-770876
-770906
-770638
-770629
-770962
-771066
-771045
-770721
-770601
-770914
-771025
-771115
-770745
-770754
-771110
-771065
-771099
-770754
-770764
-771062
-771229
-771192
-770967
-770891
-771179
-771329
-771306
-771014
-770936
-771244
-771359
-771429
-771090
-771005
-771251
-771371
-771469
-771091
-771007
-771169
-771311
-771284
-770944
-770737
-770938
-771022
-770844
-770610
-770273
-770446
-770509
-770270
-769901
-769598
-769716
-769698
-769613
-769241
-768956
-769185
-769053
-768862
-768449
-768160
-768392
-768335
-768213
-767691
-767375
-767552
-767595
-767378
-767108
-766725
-766897
-766997
-766774
-766449
-766213
-766413
-766558
-766288
-766153
-765991
-766181
-766244
-766169
-765995
-765747
-766091
-766106
-766092
-765800
-765571
-765831
-765966
-766130
-765816
-765667
-765944
-765995
-765958
-765841
-765599
-765935
-766048
-766163
-765901
-765682
-765983
-766155
-766208
-766058
-765800
-766099
-766180
-766046
-765976
-765824
-766143
-766261
-766146
-766125
-765916
-766259
-766415
-766286
-766115
-765870
-766343
-766437
-766508
-766340
-765979
-766299
-766365
-766245
-766269
-765938
-766317
-766415
-766515
-766308
-766082
-766457
-766515
-766324
-766350
-766114
-766399
-766608
-766479
-766476
-766206
-766568
-766686
-766397
-766414
-766213
-766594
-766677
-766661
-766688
-766416
-766698
-766886
-766982
-766811
-766455
-766822
-766944
-767063
-766963
-766632
-767074
-767161
-766954
-767155
-766727
-767021
-767103
-767169
-767232
-766877
-767203
-767315
-767259
-767266
-766877
-767203
-767296
-767323
-767249
-766987
-767234
-767323
-767403
-767189
-766889
-767176
-767223
-767376
-767195
-766887
-767143
-767179
-767256
-767251
-766796
-767088
-767156
-767314
-767174
-766790
-767056
-767109
-767120
-767025
-766662
-767003
-767147
-767120
-767033
-766666
-766795
-767035
-767030
-767156
-766648
-766970
-767084
-767056
-766933
-766611
-767005
-767092
-767123
-767021
-766649
-767056
-767075
-767121
-767127
-766775
-767040
-767205
-767247
-767334
-766848
-767120
-767132
-767294
-767330
-766849
-767202
-767366
-767456
-767501
-767011
-767295
-767394
-767261
-767505
-767033
-767304
-767409
-767450
-767416
-767144
-767581
-767545
-767548
-767597
-767220
-767666
-767696
-767610
-767691
-767279
-767610
-767670
-767786
-767761
-767522
-767705
-767887
-767884
-767925
-767491
-767735
-767984
-768077
-768082
-767683
-767951
-768144
-768297
-768311
-767801
-768044
-768284
-768292
-768218
-767844
-768200
-768292
-768352
-768252
-767956
-768350
-768520
-768409
-768322
-768173
-768443
-768594
-768496
-768413
-768130
-768398
-768582
-768661
-768654
-768231
-768557
-768623
-768607
-768765
-768410
-768701
-768935
-768898
-768781
-768507
-768911
-769043
-768976
-768970
-768602
-768939
-769069
-769113
-769014
-768826
-769254
-769321
-769232
-769113
-768963
-769182
-769311
-769391
-769360
-769024
-769189
-769356
-769411
-769354
-769114
-769253
-769467
-769366
-769617
-769166
-769580
-769601
-769554
-769440
-769245
-769451
-769694
-769665
-769712
-769357
-769720
-769821
-769629
-769539
-769304
-769731
-769856
-769865
-769778
-769491
-769680
-769847
-769967
-769798
-769589
-769784
-769931
-770035
-769928
-769679
-769934
-770036
-770124
-769864
-769702
-769890
-769989
-770038
-770017
-769711
-769958
-770129
-770082
-770084
-769823
-769963
-770185
-770088
-770101
-769787
-770061
-770127
-770147
-770204
-769792
-769983
-770174
-769999
-770168
-769742
-770082
-770272
-770294
-770246
-769827
-769984
-770121
-770021
-770057
-769761
-770015
-770140
-770059
-770028
-769709
-769931
-770212
-770252
-770164
-769833
-770065
-770085
-770160
-769950
-769640
-770157
-770188
-770295
-770254
-769786
-769922
-770125
-770062
-770014
-769737
-770102
-770135
-770256
-770281
-769897
-770138
-770193
-770069
-770083
-769849
-770138
-770155
-770112
-769990
-769700
-770030
-770120
-770043
-769767
-769410
-769685
-769635
-769399
-769441
-768848
-769150
-769147
-768864
-768827
-768339
-768401
-768320
-768251
-767908
-767476
-767707
-767563
-767381
-767334
-766728
-766932
-766913
-766822
-766489
-766052
-766316
-766232
-766277
-766092
-765547
-765889
-765799
-765716
-765465
-765117
-765355
-765437
-765314
-765308
-764984
-765167
-765249
-765306
-765101
-764813
-765150
-765156
-765185
-765003
-764758
-765072
-765077
-765123
-765199
-764752
-765094
-765144
-765121
-764957
-764767
-765169
-765245
-765236
-765284
-764958
-765305
-765360
-765296
-765152
-764883
-765250
-765369
-765357
-765329
-764978
-765430
-765434
-765448
-765409
-765131
-765425
-765509
-765535
-765341
-765150
-765515
-765733
-765639
-765495
-765253
-765564
-765655
-765717
-765715
-765427
-765698
-765867
-765860
-765704
-765418
-765677
-765751
-765835
-765845
-765533
-765765
-765887
-765943
-765770
-765561
-765868
-765947
-766046
-765902
-765646
-765964
-766101
-766219
-766124
-765807
-766027
-766239
-766260
-766154
-765933
-766049
-766329
-766331
-766308
-765919
-766198
-766279
-766404
-766246
-765894
-766163
-766348
-766417
-766276
-766118
-766265
-766390
-766401
-766323
-766038
-766245
-766325
-766331
-766243
-765948
-766217
-766397
-766382
-766138
-765879
-766069
-766315
-766203
-765854
-766079
-766142
-766100
-766038
-765692
-766000
-766092
-766201
-766010
-765569
-765756
-766029
-765977
-765874
-765607
-765916
-766129
-766046
-765993
-765624
-765840
-765958
-766047
-765970
-765670
-765875
-766046
-766097
-766015
-765581
-765777
-765988
-766090
-765965
-765738
-765970
-766113
-766154
-766297
-765843
-765989
-766150
-766175
-766274
-765935
-766055
-766298
-766336
-766326
-765984
-766097
-766399
-766483
-766351
-766046
-766123
-766411
-766447
-766489
-766182
-766297
-766566
-766559
-766697
-766300
-766422
-766630
-766732
-766575
-766315
-766374
-766710
-766769
-766779
-766557
-766542
-766870
-766861
-766775
-766487
-766607
-766848
-766957
-766946
-766636
-766756
-766980
-767048
-767095
-766737
-766750
-766953
-767091
-766928
-766728
-766840
-767127
-767221
-767109
-766844
-766752
-767192
-767308
-767134
-766847
-766850
-767173
-767254
-767312
-766961
-766911
-767311
-767322
-767374
-767082
-767345
-767507
-767562
-767116
-767191
-767397
-767526
-767375
-767148
-767162
-767451
-767632
-767624
-767280
-767162
-767463
-767546
-767570
-767291
-767279
-767594
-767648
-767763
-767461
-767259
-767530
-767711
-767481
-767425
-767374
-767650
-767788
-767866
-767519
-767336
-767700
-767771
-767597
-767490
-767461
-767766
-767981
-767903
-767681
-767507
-767975
-768032
-768131
-767780
-767670
-768005
-768029
-768132
-767790
-767561
-767860
-767973
-768115
-767893
-767724
-767995
-768106
-768250
-767840
-767644
-767963
-768178
-768187
-767969
-767784
-768131
-768201
-768165
-768011
-767817
-768233
-768333
-768307
-768072
-767972
-768291
-768404
-768313
-768120
-767867
-768178
-768261
-768365
-768251
-768003
-768185
-768380
-768490
-768235
-767987
-768394
-768439
-768534
-768402
-768039
-768403
-768638
-768641
-768392
-768095
-768518
-768473
-768669
-768448
-768197
-768593
-768697
-768527
-768577
-768337
-768745
-768740
-768769
-768626
-768418
-768810
-768640
-768708
-768418
-768178
-768469
-768424
-768292
-768215
-767708
-767979
-767988
-767936
-767590
-767165
-767278
-767286
-767088
-766812
-766403
-766484
-766449
-766196
-765967
-765587
-765757
-765624
-765301
-765186
-764761
-764985
-764894
-764804
-764502
-764058
-764259
-764243
-764076
-763814
-763481
-763684
-763736
-763612
-763506
-763078
-763371
-763256
-763354
-763179
-762857
-763081
-763123
-763060
-762919
-762752
-762949
-763133
-763127
-763029
-762733
-763031
-763093
-763178
-762959
-762665
-762976
-763047
-763052
-763114
-762719
-762989
-763147
-763150
-763096
-762752
-763066
-763179
-763139
-763066
-762700
-762861
-763145
-763202
-763106
-762780
-763020
-763123
-763017
-763188
-762745
-763050
-763209
-763362
-763166
-762780
-763099
-763282
-763335
-763235
-762869
-763145
-763296
-763135
-763228
-762860
-763156
-763284
-763260
-763377
-762891
-763226
-763377
-762958
-763304
-762901
-763074
-763274
-763347
-763184
-762806
-763149
-763354
-763427
-763278
-762934
-763291
-763351
-763400
-763525
-763056
-763422
-763502
-763387
-763512
-763149
-763498
-763657
-763674
-763592
-763315
-763526
-763653
-763735
-763366
-763522
-763666
-763815
-763892
-763419
-763690
-763751
-763787
-763675
-763326
-763626
-763765
-763683
-763605
-763284
-763748
-763830
-763744
-763663
-763288
-763572
-763707
-763661
-763592
-763218
-763629
-763650
-763492
-763505
-763176
-763563
-764054
-763813
-763709
-763243
-763504
-763507
-763446
-763378
-763055
-763429
-763535
-763568
-763462
-763111
-763396
-763479
-763445
-763351
-763056
-763243
-763383
-763548
-763444
-763103
-763386
-763518
-763378
-763572
-763158
-763415
-763565
-763559
-763510
-763309
-763640
-763782
-763625
-763646
-763323
-763536
-763798
-764234
-763891
-763549
-763700
-763936
-763914
-763797
-763507
-763983
-763969
-763841
-763881
-763632
-763932
-764152
-764158
-764038
-763740
-764103
-764123
-764209
-764285
-764013
-764288
-764351
-764348
-764363
-764031
-764292
-764397
-764582
-764578
-764184
-764511
-764530
-764300
-764290
-764034
-764331
-764542
-764524
-764456
-764224
-764513
-764644
-764521
-764772
-764353
-764667
-764845
-764792
-764776
-764565
-764741
-764909
-764952
-764901
-764510
-764686
-764930
-764854
-764713
-764617
-764911
-765043
-764952
-764938
-764717
-764884
-765131
-765201
-765161
-764894
-765294
-765381
-765214
-765182
-764780
-765088
-765307
-765164
-765316
-764924
-765274
-765386
-765427
-765343
-765103
-765404
-765524
-765526
-765608
-765210
-765357
-765565
-765638
-765523
-765223
-765596
-765713
-765568
-765705
-765310
-765484
-765700
-765563
-765386
-765643
-765730
-765793
-765693
-765407
-765727
-765824
-765776
-765893
-765620
-765891
-766031
-766070
-765894
-765579
-765903
-766024
-766201
-765945
-765725
-766021
-766171
-766180
-766063
-765863
-766237
-766265
-766411
-766370
-765991
-766242
-766458
-766271
-766215
-766057
-766819
-766654
-766577
-766505
-766271
-766456
-766948
-766734
-766543
-766677
-766614
-766716
-766802
-766740
-766428
-766790
-766936
-766857
-766776
-766407
-766783
-766788
-766919
-766574
-766353
-766652
-766808
-766645
-766421
-766157
-766323
-766328
-766215
-766053
-765512
-765888
-765788
-765666
-765375
-764941
-765120
-765053
-764809
-764635
-764171
-764148
-763957
-763876
-763581
-763266
-763362
-763241
-763076
-762809
-762408
-762502
-762496
-762270
-762181
-761716
-761991
-761937
-761762
-761504
-761272
-761541
-761531
-761414
-761181
-760910
-761188
-761305
-761025
-761055
-760790
-760974
-761067
-761052
-760858
-760630
-761011
-761110
-761021
-760890
-760647
-761056
-761107
-761101
-760843
-760625
-761040
-761111
-761097
-760865
-760677
-760993
-761189
-761228
-760838
-760710
-761155
-761231
-761258
-761112
-760865
-761261
-761366
-761349
-761215
-760946
-761017
-761368
-761391
-761230
-761030
-761389
-761440
-761453
-761284
-761044
-761321
-761443
-761533
-761479
-761086
-761472
-761518
-761656
-761475
-761169
-761444
-761348
-761539
-761544
-761258
-761625
-761623
-761477
-761425
-761313
-761572
-761778
-761840
-761729
-761469
-761826
-761922
-761966
-761796
-761504
-761864
-762049
-762683
-762063
-761745
-762060
-762139
-762196
-762111
-761869
-762120
-762216
-762082
-762001
-761855
-762089
-762348
-762259
-762124
-761921
-762208
-762198
-762262
-762069
-761843
-762115
-762234
-762207
-762002
-761750
-761997
-762059
-762116
-761927
-761710
-762089
-762057
-762111
-762009
-761690
-761887
-762023
-762058
-761787
-761524
-761809
-761947
-761973
-761872
-761489
-761658
-761826
-761876
-761614
-761494
-761683
-761832
-761836
-761715
-761519
-761664
-761622
-761778
-761846
-761548
-761837
-761838
-761828
-761778
-761397
-761708
-761855
-761883
-761870
-761648
-761838
-762357
-762159
-761995
-761622
-761915
-762155
-762228
-762071
-761775
-762066
-762143
-762195
-762231
-761880
-762131
-762289
-762257
-762375
-761962
-762326
-762405
-762498
-762365
-762126
-762405
-762497
-762595
-762450
-762158
-762474
-762554
-762703
-762535
-762238
-762434
-762657
-762689
-762616
-762276
-762681
-762882
-762912
-762893
-762517
-762755
-762915
-762910
-762887
-762614
-762873
-763137
-763181
-763103
-762782
-762909
-763183
-763217
-763173
-762919
-763179
-763351
-763337
-763540
-763058
-763175
-763330
-763500
-763525
-763114
-763279
-763363
-763640
-763587
-763310
-763349
-763583
-763676
-763760
-763459
-763481
-763819
-763975
-763868
-763488
-763687
-763793
-763991
-764107
-763717
-763842
-763967
-764094
-763858
-763782
-763788
-764087
-764172
-764132
-763797
-763893
-764204
-764311
-764319
-763951
-764024
-764345
-764496
-764404
-764210
-764200
-764408
-764580
-764548
-764063
-764270
-764541
-764668
-764665
-764426
-764499
-764728
-764848
-764878
-764604
-764555
-764734
-764831
-765004
-765052
-764830
-764855
-765037
-765056
-764763
-764810
-765173
-765180
-765194
-764905
-764873
-765236
-765296
-765408
-765111
-764988
-765419
-765433
-765562
-765228
-765164
-765565
-765691
-765560
-765386
-765322
-765595
-765762
-765715
-765338
-765410
-765702
-765760
-765711
-765364
-765324
-765614
-765710
-765668
-765345
-765226
-765418
-765485
-765482
-764993
-764645
-764958
-764861
-764784
-764444
-764227
-764338
-764280
-764145
-763737
-763442
-763595
-763548
-763406
-762959
-762704
-762797
-762813
-762671
-762350
-762079
-762349
-762296
-761982
-761828
-761633
-761903
-761855
-761801
-761339
-761046
-761475
-761459
-761474
-761168
-760852
-761283
-761335
-761282
-761113
-760896
-761182
-761274
-761307
-761050
-760992
-761314
-761468
-761400
-761142
-761041
-761381
-761482
-761453
-761278
-761094
-761559
-761618
-761596
-761407
-761331
-761466
-761816
-761931
-761620
-761509
-761933
-762019
-762052
-761885
-761654
-762031
-762152
-762184
-761935
-761707
-762070
-762144
-762207
-762086
-761798
-762201
-762238
-762319
-762147
-761920
-762250
-762424
-762508
-762327
-762059
-762387
-762404
-762422
-762449
-762246
-762548
-762681
-762794
-762631
-762210
-762724
-762748
-762970
-762651
-762467
-762905
-763004
-762956
-762840
-762660
-763032
-763186
-763124
-763044
-762882
-763265
-763372
-763526
-763297
-763029
-763462
-763596
-763517
-763386
-763216
-763521
-763641
-763723
-763635
-763368
-763768
-763782
-763907
-763786
-763488
-763804
-763884
-763908
-763842
-763500
-763828
-763901
-763936
-763923
-763572
-763836
-764003
-764059
-764560
-763805
-764003
-763977
-764014
-764062
-763695
-764087
-764035
-763974
-763884
-763610
-763964
-764141
-763963
-763915
-763662
-763928
-764046
-763965
-764140
-763668
-763993
-764122
-764136
-764182
-763824
-764034
-764164
-763995
-763990
-763744
-764067
-764267
-764321
-764309
-763860
-764127
-764314
-764180
-764234
-763834
-764157
-764365
-764453
-764505
-764086
-764489
-764476
-764557
-764488
-764114
-764523
-764651
-764611
-764733
-764350
-764611
-764838
-764860
-764966
-764530
-764836
-764918
-764894
-764907
-764617
-764919
-765095
-764966
-765076
-764690
-765008
-765204
-765106
-765256
-764940
-765350
-765394
-765359
-765460
-765146
-765488
-765502
-765533
-765611
-765209
-765503
-765651
-765698
-765743
-765438
-765719
-765793
-765725
-765833
-765553
-765843
-766029
-766032
-766072
-765707
-765880
-766137
-766149
-766223
-765726
-766077
-766265
-766259
-766294
-765914
-766084
-766301
-766324
-766448
-765981
-766359
-766483
-766492
-766563
-766079
-766456
-766511
-766599
-766698
-766209
-766534
-766648
-766839
-766791
-766355
-766616
-766777
-767309
-767039
-766545
-766749
-766929
-766806
-766847
-766442
-766786
-767031
-767027
-767036
-766632
-767038
-767119
-766957
-767069
-766793
-766973
-767181
-767116
-767290
-766897
-767218
-767262
-767293
-767258
-766835
-767275
-767382
-767213
-767236
-766970
-767447
-767469
-767539
-767615
-767075
-767325
-767515
-767434
-767511
-767294
-767669
-767812
-767526
-767705
-767361
-767638
-767735
-767825
-767804
-767485
-767679
-767831
-767905
-767975
-767620
-767945
-768003
-768098
-768223
-767749
-768056
-768178
-768160
-768075
-767791
-768011
-768092
-768139
-768059
-767850
-768038
-768240
-768117
-768208
-767639
-767826
-767860
-767924
-767983
-767473
-767551
-767531
-767464
-767320
-766775
-766919
-766837
-766810
-766707
-766109
-766192
-766119
-765970
-765666
-765323
-765387
-765418
-765101
-764999
-764651
-764748
-764670
-764540
-764428
-764032
-764255
-764247
-764029
-764064
-763582
-763782
-763786
-763855
-763705
-763298
-763484
-763658
-763569
-763474
-763171
-763433
-763535
-763483
-763424
-763172
-763535
-763653
-763601
-763639
-763220
-763531
-763681
-763523
-763639
-763291
-763572
-763694
-763577
-763623
-763301
-763602
-763775
-763804
-763822
-763490
-763693
-763907
-763849
-763858
-763640
-764133
-764101
-764157
-764003
-763755
-764030
-764170
-764163
-764120
-763857
-764232
-764321
-764317
-764171
-763925
-764242
-764375
-764282
-764367
-764092
-764350
-764460
-764491
-764368
-764167
-764301
-764625
-764645
-764627
-764317
-764453
-764630
-764752
-764741
-764446
-764644
-764834
-764728
-764815
-764628
-764860
-765011
-764989
-765128
-764772
-765100
-765243
-765221
-765364
-765057
-765265
-765500
-765408
-765492
-765201
-765445
-765530
-765484
-765543
-765259
-765506
-765579
-765778
-765840
-765366
-765557
-765749
-765770
-765787
-765472
-765812
-765859
-765944
-765892
-765417
-765682
-765728
-765771
-765693
-765444
-765645
-765753
-765811
-765592
-765413
-765705
-765718
-765736
-765646
-765263
-765562
-765788
-765632
-765623
-765258
-765648
-765614
-765706
-765511
-765246
-765696
-765663
-765750
-765463
-765270
-765629
-765667
-765730
-765660
-765379
-765745
-765837
-765890
-765761
-765465
-765797
-765838
-765911
-765788
-765561
-765863
-765926
-765958
-765828
-765597
-765938
-766056
-765940
-765929
-765703
-766072
-766225
-766297
-765980
-765706
-765982
-766251
-766272
-766045
-765928
-766423
-766522
-766662
-766530
-766212
-766357
-766557
-766594
-766475
-766267
-766592
-766708
-766776
-766755
-766383
-766690
-766858
-766963
-766837
-766562
-766923
-767059
-767062
-767050
-766661
-766959
-767182
-767213
-767108
-766831
-767200
-767244
-767183
-766863
-766815
-767157
-767374
-767442
-767217
-767066
-767507
-767582
-767632
-767597
-767280
-767442
-767556
-767610
-767531
-767314
-767658
-767797
-767699
-767678
-767295
-767797
-767902
-767925
-767758
-767493
-767979
-768034
-767831
-767649
-768004
-768037
-768063
-768024
-767677
-768147
-768162
-768266
-768013
-767821
-768137
-768295
-768309
-768265
-767925
-768403
-768370
-768538
-768382
-768121
-768127
-768467
-768557
-768551
-768750
-768588
-768653
-768638
-768445
-768204
-768513
-768616
-768634
-768585
-768399
-768632
-768769
-768854
-768728
-768416
-768771
-768811
-768806
-768660
-768415
-768889
-769067
-769029
-769065
-768623
-768945
-769056
-769063
-769014
-768800
-769107
-769235
-769191
-768985
-768717
-769062
-769240
-769314
-769147
-768833
-769229
-769274
-769360
-769106
-768870
-769246
-769304
-769328
-769068
-768658
-769030
-769080
-769146
-768807
-768414
-768823
-768798
-768708
-768378
-767995
-768294
-768223
-768083
-767936
-767355
-767466
-767505
-767406
-767113
-766641
-766813
-766747
-766618
-766291
-765965
-766056
-766080
-765957
-765566
-765243
-765515
-765549
-765423
-765256
-764923
-765057
-765100
-765057
-764972
-764497
-764716
-764769
-764748
-764583
-764274
-764566
-764792
-764674
-764505
-764047
-764544
-764633
-764647
-764476
-764341
-764606
-764756
-764739
-764711
-764415
-764679
-764697
-764848
-764829
-764536
-764720
-765367
-764990
-764883
-764640
-764877
-765137
-765129
-765056
-764698
-764882
-765146
-765144
-765088
-764799
-765176
-765373
-765363
-765307
-764772
-765255
-765460
-765438
-765377
-765053
-765370
-765552
-765502
-765469
-765141
-765411
-765536
-765690
-765643
-765229
-765493
-765657
-765684
-765685
-765340
-765556
-765732
-765840
-765836
-765586
-765817
-766094
-766125
-766112
-765847
-766035
-766174
-766279
-766238
-766032
-766080
-766401
-766552
-766490
-766196
-766303
-766536
-766630
-766465
-766264
-766483
-766584
-766471
-766788
-766302
-766502
-766576
-766728
-766750
-766472
-766494
-766674
-766782
-766780
-766492
-766541
-766759
-766792
-766715
-766468
-766627
-766764
-766780
-766792
-766376
-766533
-766649
-766689
-766599
-766348
-766439
-766648
-766667
-766676
-766252
-766590
-766640
-766638
-766219
-766286
-766510
-766623
-766441
-766166
-766232
-766410
-766522
-766352
-766108
-766280
-766389
-766456
-766579
-766099
-766039
-766360
-766451
-766303
-766065
-766114
-766345
-766491
-766581
-766162
-766117
-766405
-766433
-766524
-766300
-766315
-766581
-766629
-766569
-766244
-766197
-766551
-766743
-766647
-766343
-766299
-766614
-766722
-766683
-766389
-766438
-766822
-766830
-766920
-766666
-766649
-766843
-767048
-767179
-766772
-766737
-766932
-767112
-767108
-766885
-766909
-767216
-767325
-767232
-766949
-766834
-767182
-767300
-767472
-767168
-767311
-767506
-767520
-767524
-767280
-767142
-767478
-767622
-767738
-767418
-767269
-767576
-767667
-767835
-767517
-767279
-767742
-767783
-767749
-767540
-767393
-767757
-767856
-768046
-767685
-767532
-767864
-768072
-768140
-767955
-767853
-768197
-768343
-768373
-768055
-767897
-768192
-768240
-768292
-768162
-768025
-768347
-768430
-768477
-768304
-768010
-768337
-768437
-768543
-768214
-768076
-768498
-768652
-768743
-768492
-768225
-768563
-768675
-768503
-768373
-768322
-768676
-768861
-768533
-768451
-768339
-768686
-768909
-768992
-768679
-768551
-768843
-768902
-768925
-768720
-768597
-769007
-769051
-769123
-768850
-768716
-769038
-769203
-769228
-769015
-768739
-769149
-769269
-769297
-769072
-768946
-769988
-769539
-769359
-769140
-768897
-769246
-769374
-769371
-769237
-769028
-769403
-769480
-769413
-769289
-769094
-769376
-769358
-769676
-769569
-769246
-769590
-769805
-769673
-769583
-769368
-769733
-769797
-769803
-769636
-769425
-769795
-769934
-769787
-769710
-769451
-769932
-769851
-769724
-769618
-769416
-769707
-769735
-769543
-769372
-769043
-769302
-769274
-769121
-768828
-768533
-768757
-768676
-768468
-768161
-767772
-768096
-767973
-767906
-767592
-767218
-767364
-767229
-767178
-766793
-766364
-766483
-766561
-766279
-766092
-765686
-765896
-765884
-765829
-765498
-765055
-765313
-765369
-765268
-765028
-764766
-765018
-764850
-764778
-764365
-764734
-764909
-764997
-764850
-764442
-764792
-764885
-764756
-764611
-764402
-764715
-764803
-764951
-764830
-764455
-764866
-764877
-765004
-764858
-764553
-764882
-765025
-765083
-764795
-764572
-764970
-765124
-764932
-764973
-764480
-764974
-765108
-764907
-765001
-764605
-764995
-765083
-765050
-764920
-764683
-765053
-765158
-765153
-765138
-764753
-765151
-765199
-765271
-765261
-764796
-765128
-765304
-765352
-765276
-764690
-765155
-765298
-765374
-765789
-764991
-765694
-765530
-765435
-765246
-765034
-765481
-765505
-765476
-765466
-765099
-765548
-765693
-765743
-765583
-765736
-765797
-765876
-765786
-765782
-765247
-765671
-765929
-766035
-766072
-765649
-765887
-766000
-765988
-766130
-765575
-765903
-766006
-766120
-766079
-765706
-766100
-766237
-766045
-766143
-765841
-766117
-766133
-766102
-766230
-765914
-766059
-766146
-766178
-766254
-765742
-766084
-766203
-766128
-766078
-765778
-765976
-766086
-766144
-766102
-765724
-765989
-766091
-766084
-766021
-765707
-766073
-766029
-766061
-766114
-765680
-765976
-766032
-765978
-766151
-765609
-765880
-766021
-766015
-765574
-765913
-766083
-766120
-766188
-765693
-765981
-766104
-766197
-766082
-765730
-766131
-766246
-766250
-766200
-765926
-766218
-766257
-766221
-766341
-765882
-766250
-766305
-766396
-766557
-766068
-766342
-766441
-766371
-766442
-766084
-766539
-766593
-766618
-766665
-766210
-766571
-766629
-766750
-766805
-766251
-766657
-766712
-766805
-766818
-766386
-766842
-766921
-767017
-767023
-766373
-766682
-766798
-766878
-767058
-766560
-766920
-767076
-767071
-766990
-766639
-766985
-767004
-766986
-767080
-766680
-767199
-767247
-767142
-767172
-766790
-767133
-767229
-767251
-767199
-766939
-767225
-767371
-767380
-767365
-767020
-767287
-767409
-767280
-767400
-767105
-767357
-767564
-767605
-767506
-767202
-767501
-767711
-767678
-767591
-767361
-767936
-767812
-767739
-767843
-767410
-767892
-767863
-767857
-767833
-767391
-767546
-767773
-767844
-768021
-767596
-767830
-767906
-768046
-767895
-767583
-767884
-767998
-767764
-767980
-767584
-768004
-768126
-768071
-768240
-767830
-768115
-768230
-768058
-768022
-767672
-768471
-768242
-768246
-768227
-767842
-768052
-768265
-768285
-768297
-767863
-768163
-768336
-768129
-768345
-767918
-768235
-768405
-768352
-768515
-768073
-768426
-768434
-768501
-768462
-768124
-768534
-768594
-768590
-768539
-768098
-768384
-768584
-768518
-768576
-768192
-768324
-768629
-768471
-768602
-768177
-768967
-768765
-768673
-768642
-768270
-768568
-768758
-768844
-768804
-768375
-768626
-768841
-768877
-768885
-768413
-768845
-768871
-768872
-768649
-768472
-768723
-768862
-768980
-768990
-768557
-768893
-769037
-769029
-768942
-768584
-768904
-769099
-769093
-768876
-768707
-768929
-769167
-769063
-769211
-768724
-768934
-769134
-769046
-769042
-768644
-768896
-769000
-768803
-768854
-768239
-768483
-768397
-768395
-768260
-767659
-767837
-767819
-767364
-767236
-766800
-766998
-766951
-766656
-766538
-766115
-766372
-766145
-765897
-765856
-765390
-765497
-765395
-765398
-765203
-764688
-764697
-764843
-764642
-764565
-764086
-764349
-764352
-764161
-764011
-763638
-764018
-763951
-763930
-763756
-763394
-763634
-763747
-763564
-763403
-763220
-763450
-763697
-763527
-763595
-763192
-763452
-763589
-763449
-763505
-763302
-763602
-763649
-763713
-763754
-763367
-763523
-763680
-763633
-763644
-763371
-763709
-763909
-763759
-763771
-763599
-763958
-763742
-763929
-763978
-763632
-763856
-764012
-763855
-763908
-763617
-763860
-764021
-764069
-763914
-763655
-763900
-763991
-763927
-763828
-763565
-763596
-763922
-763884
-763926
-763617
-763798
-764020
-764140
-764026
-763636
-763940
-764099
-764066
-764100
-763787
-764084
-764264
-764295
-764202
-763934
-764200
-764333
-764395
-764422
-764092
-764567
-764650
-764642
-764531
-764155
-764387
-764628
-764640
-765010
-764487
-764800
-764863
-764548
-764699
-764378
-764685
-764830
-764868
-764635
-764384
-764870
-764905
-764854
-764797
-764520
-764960
-764937
-764718
-764684
-764482
-764745
-764925
-764745
-764703
-764431
-764568
-764694
-764784
-764624
-764351
-764793
-764845
-764756
-764615
-764277
-764581
-764714
-764390
-764530
-764220
-764555
-764515
-764549
-764266
-764127
-764308
-764393
-764435
-764135
-763991
-764317
-764365
-764403
-764170
-763880
-764208
-764409
-764343
-764151
-763865
-764351
-764366
-764392
-764159
-763854
-764176
-764380
-764217
-764140
-763969
-764205
-764356
-764407
-764220
-763850
-764331
-764326
-764409
-764333
-763913
-764287
-764320
-764366
-764259
-764001
-764377
-764369
-764488
-764288
-764078
-764500
-764567
-764644
-764509
-764157
-764517
-764495
-764597
-764496
-764291
-764653
-764760
-764718
-764644
-764350
-764694
-764879
-764881
-764775
-764453
-764902
-764888
-764851
-764955
-765154
-765070
-765043
-764868
-764730
-764578
-764983
-765083
-765188
-765010
-764764
-765057
-765093
-765106
-764949
-764771
-765040
-765127
-765186
-765096
-764619
-765053
-765206
-765241
-765151
-764873
-765197
-765285
-765351
-765126
-764810
-765233
-765365
-765292
-765140
-765017
-765279
-765486
-765459
-765193
-764983
-765370
-765373
-765457
-765301
-765012
-765377
-765480
-765523
-765526
-765196
-765477
-765539
-765643
-765517
-765197
-765287
-765494
-765663
-765373
-765153
-765540
-765654
-765638
-765645
-765351
-765748
-765804
-765749
-765669
-765272
-765602
-765759
-765822
-765550
-765449
-765703
-765814
-765801
-765706
-765401
-765793
-765828
-765818
-765672
-765515
-765718
-765777
-765821
-765787
-765521
-765647
-765796
-765834
-765955
-765622
-765765
-765986
-765984
-765957
-765548
-765818
-765983
-765965
-765799
-765550
-765939
-766085
-765914
-765805
-765657
-765872
-766000
-766202
-765982
-766053
-766031
-766157
-765966
-766085
-765797
-766080
-766199
-766154
-766063
-765844
-766082
-766321
-766371
-766172
-765846
-766143
-766240
-766235
-766160
-765977
-766151
-766341
-766355
-766297
-766035
-766333
-766500
-766519
-766305
-766112
-766426
-766251
-766407
-766525
-766226
-766227
-766424
-766607
-766496
-766174
-766346
-766569
-766547
-766432
-765974
-766107
-766209
-766247
-766094
-765708
-765884
-765855
-765770
-765565
-765105
-765137
-765130
-765109
-764852
-764384
-764481
-764470
-764383
-764100
-763601
-763625
-763690
-763512
-763271
-762904
-762922
-762962
-762833
-762706
-762158
-762226
-762181
-762116
-761878
-761535
-761613
-761775
-761727
-761584
-761163
-761218
-761340
-761353
-761302
-761019
-761058
-761277
-761260
-761315
-760818
-760895
-761169
-761190
-761202
-760912
-761040
-761145
-761142
-761236
-760893
-761021
-761192
-761274
-761153
-760875
-761002
-761238
-761250
-761412
-761019
-760906
-761217
-761368
-761247
-760966
-761160
-761421
-761450
-761364
-761025
-761163
-761442
-761461
-761436
-761164
-761247
-761590
-761564
-761169
-761163
-761487
-761616
-761580
-761300
-761304
-761586
-761618
-761571
-761305
-762006
-761736
-761645
-761691
-761337
-761313
-761548
-761640
-761689
-761394
-761382
-761687
-761721
-761655
-761444
-761486
-761732
-761852
-761850
-761563
-761612
-761901
-762053
-762081
-761832
-761842
-762026
-762167
-762155
-761912
-761926
-762151
-762420
-762417
-762059
-762389
-762408
-762496
-762054
-761971
-762361
-762456
-762459
-762093
-762090
-762389
-762530
-762527
-762200
-762123
-762475
-762444
-762565
-762200
-762081
-762379
-762521
-762576
-762183
-762091
-762305
-762414
-762527
-762104
-762046
-762333
-762294
-762354
-762060
-761987
-762281
-762347
-762310
-762045
-761951
-762230
-762333
-762441
-762036
-761975
-762212
-762263
-762774
-762568
-762138
-762281
-762296
-762252
-761967
-761841
-762242
-762384
-762463
-762090
-762075
-762323
-762483
-762554
-762246
-762057
-762474
-762608
-763169
-762531
-762273
-763053
-762800
-762803
-762462
-762223
-762611
-762613
-762787
-762474
-762406
-762676
-762651
-762744
-762486
-762469
-762789
-762852
-763052
-762701
-762969
-762974
-762997
-763094
-762847
-762612
-763022
-763079
-763186
-763590
-762995
-763971
-763525
-763301
-763020
-762875
-763214
-763283
-763470
-763267
-762993
-763351
-763513
-763517
-763348
-763046
-763332
-763568
-763471
-763391
-763089
-763576
-763618
-763761
-763448
-763345
-763640
-763757
-763621
-763587
-763438
-763764
-763830
-763776
-763602
-763423
-763822
-763875
-764427
-763894
-763558
-763914
-763960
-764019
-763774
-763478
-763927
-764097
-764065
-763911
-763739
-764093
-764162
-764150
-763950
-763741
-763966
-764065
-764247
-764153
-763890
-764188
-764307
-764310
-764223
-763858
-764222
-764352
-764417
-764332
-764077
-764307
-764478
-764524
-764327
-764062
-764444
-764626
-764694
-764439
-764196
-764583
-764652
-764588
-764430
-764141
-764596
-764733
-764793
-764703
-764359
-764675
-764758
-764587
-764641
-764343
-764744
-764882
-764770
-764714
-764424
-764892
-765020
-764777
-764788
-764485
-764891
-765000
-764925
-764821
-764622
-764947
-765023
-765073
-764972
-764604
-764942
-765114
-765034
-765000
-764741
-765154
-765224
-765055
-765045
-764699
-765135
-765275
-765202
-765162
-764887
-765245
-765300
-765462
-765245
-764883
-765323
-765338
-765521
-765377
-765097
-765319
-765428
-765404
-765367
-765057
-765408
-765567
-765622
-765495
-765266
-765571
-765606
-765667
-765645
-765335
-765571
-765642
-765719
-765636
-765275
-765665
-765770
-765724
-765654
-765438
-765836
-765982
-765820
-765784
-765578
-765930
-766006
-766011
-765971
-765674
-765946
-766063
-766017
-766059
-765761
-766147
-766229
-766261
-766232
-765855
-766067
-766152
-766178
-766110
-765733
-765980
-766014
-765804
-765750
-765380
-765552
-765583
-765460
-765180
-764789
-765001
-764928
-764748
-764605
-764034
-764075
-764195
-764078
-763816
-763321
-763574
-763501
-763246
-763075
-762493
-762668
-762679
-762449
-762471
-761874
-761970
-761982
-761797
-761579
-761178
-761474
-761423
-761335
-761342
-760841
-761079
-761049
-760895
-760949
-760454
-760697
-760796
-760856
-760740
-760367
-760690
-760791
-760996
-760847
-760461
-760769
-760807
-760769
-760892
-760519
-760797
-760987
-760791
-760825
-760498
-760831
-760951
-760784
-760765
-760500
-760821
-761027
-761044
-761109
-760660
-761027
-761153
-761036
-761143
-760820
-761045
-761181
-761086
-761145
-760894
-761227
-761264
-761304
-761238
-760806
-761144
-761281
-761277
-761336
-760891
-761291
-761273
-761182
-761265
-760895
-761219
-761338
-761485
-761410
-760988
-761264
-761504
-761539
-761440
-761144
-761503
-761631
-761576
-761470
-761257
-761451
-761596
-761591
-761830
-761355
-761585
-761689
-761875
-761786
-761531
-761748
-761874
-761863
-761858
-761910
-762080
-762173
-762217
-762203
-761830
-762159
-762206
-762209
-762224
-761875
-762248
-762273
-762299
-762247
-761914
-762183
-762366
-762374
-762301
-762015
-762178
-762337
-762352
-762412
-761795
-762225
-762310
-762244
-762219
-761990
-762183
-762242
-762294
-762342
-761875
-762122
-762193
-762330
-762389
-761844
-762067
-762268
-762081
-762029
-761744
-762051
-762291
-762275
-762298
-761821
-762138
-762265
-762278
-762117
-761817
-762170
-762233
-762255
-762167
-762484
-762411
-762280
-762367
-762387
-761740
-762162
-762227
-762154
-762285
-762070
-762381
-762350
-762256
-762211
-762022
-762330
-762459
-762514
-762666
-762284
-762498
-762588
-762633
-762741
-762200
-762558
-762650
-762662
-762751
-762308
-762680
-762800
-762619
-762656
-762403
-762425
-762792
-762986
-762866
-762544
-762826
-762996
-763125
-763169
-762706
-762925
-763097
-763096
-763073
-762783
-763111
-763312
-763220
-763333
-762910
-763165
-763363
-763353
-763354
-763053
-763271
-763479
-763323
-763429
-763057
-763453
-763526
-763637
-763609
-763278
-763459
-763715
-763722
-763792
-763270
-763587
-763766
-763711
-763742
-763433
-763711
-763869
-763735
-763689
-763444
-763712
-763903
-763905
-763889
-763653
-763814
-763998
-764078
-763762
-763642
-763773
-764063
-764207
-764195
-763808
-763965
-764673
-764314
-764239
-763759
-764053
-764142
-764206
-764090
-763753
-764105
-764264
-764243
-764346
-763898
-764305
-764443
-764405
-764318
-763991
-764118
-764367
-764297
-764288
-764036
-764409
-764482
-764564
-764638
-764224
-764411
-764530
-764584
-764576
-764201
-764525
-764424
-764478
-764461
-764305
-764598
-764722
-764707
-764795
-764268
-764439
-764747
-764853
-764779
-764414
-764642
-764838
-764767
-764848
-764480
-764716
-764843
-764869
-764829
-764520
-764852
-765024
-764810
-764781
-764471
-764786
-765060
-765016
-765072
-764728
-764938
-765133
-764976
-765112
-764642
-765086
-765135
-765093
-765125
-764784
-765053
-765172
-765073
-765167
-764896
-765156
-765226
-765262
-765097
-764826
-765139
-765298
-765208
-765204
-764880
-765160
-765350
-765452
-765390
-764892
-765190
-765432
-765397
-765360
-764986
-765265
-765510
-765416
-765323
-765067
-765484
-765612
-765615
-765469
-765117
-765535
-765691
-765710
-765708
-765315
-765667
-765751
-765723
-765410
-765198
-765352
-765582
-765714
-765722
-765390
-765731
-765891
-765845
-765725
-765369
-765862
-765838
-765818
-765817
-765431
-765642
-765857
-765713
-765600
-765258
-765403
-765487
-765497
-765297
-764829
-764871
-764964
-764719
-764632
-764113
-764224
-764261
-764059
-763800
-763463
-763664
-763547
-763328
-763264
-762627
-762777
-762700
-762662
-762321
-761947
-762091
-761985
-761756
-761555
-761164
-761368
-761308
-761185
-761014
-760605
-760933
-760875
-760773
-760601
-760248
-760504
-760556
-760463
-760266
-759964
-760247
-760342
-760341
-760246
-759965
-760249
-760300
-760278
-760204
-759798
-760019
-760268
-760165
-760140
-759840
-760292
-760272
-760257
-760098
-759852
-760343
-760393
-760367
-760274
-760017
-760266
-760412
-760307
-760254
-760103
-760259
-760447
-760413
-760354
-760088
-760267
-760490
-760382
-760073
-760020
-760514
-760477
-760410
-760567
-760126
-760367
-760511
-760560
-760494
-760162
-760580
-760643
-760626
-760388
-760164
-760512
-760636
-760702
-760478
-760233
-760442
-760673
-760538
-760498
-760183
-760493
-760654
-760766
-760655
-760481
-760929
-760938
-760862
-760736
-760504
-760946
-761063
-761112
-761056
-760675
-761009
-761133
-761150
-761166
-760766
-761130
-761209
-761263
-761072
-760903
-761175
-761324
-761371
-761341
-760912
-761018
-761336
-761349
-761306
-760954
-761383
-761519
-761465
-761158
-760968
-761300
-761356
-761306
-761298
-760888
-761217
-761288
-761328
-761193
-760917
-761128
-761243
-761323
-761048
-760854
-761199
-761204
-761306
-761025
-760819
-761101
-761148
-761150
-761000
-760669
-761017
-761168
-761099
-760877
-760618
-761025
-760994
-761062
-760984
-760616
-761034
-761108
-761114
-760938
-760630
-760948
-761084
-761159
-760948
-760664
-761000
-761131
-761151
-761040
-760805
-761135
-761322
-761299
-760992
-760848
-761246
-761402
-761321
-761185
-760869
-761218
-761329
-761467
-761352
-761092
-761424
-761511
-761531
-761336
-761043
-761438
-761605
-761622
-761189
-761520
-761696
-761721
-761603
-761402
-761715
-761838
-761781
-761823
-761541
-761726
-761892
-761985
-761824
-761565
-761785
-761995
-762030
-761849
-761652
-761988
-762116
-762133
-761944
-761477
-761969
-762106
-762213
-762039
-761851
-762223
-762315
-762364
-762192
-761984
-762156
-762383
-762338
-762053
-762314
-762482
-762514
-762361
-762034
-762299
-762455
-762525
-762521
-762194
-762465
-762672
-762753
-762595
-762275
-762544
-762604
-762766
-762669
-762415
-762652
-762824
-762804
-762755
-762456
-762565
-762762
-762813
-762766
-762442
-762718
-762952
-762884
-762777
-762482
-762645
-762910
-762916
-762805
-762552
-762776
-762973
-762972
-762865
-762559
-762849
-762939
-762964
-762878
-762769
-763017
-763123
-763215
-763015
-762749
-762973
-763148
-763277
-763113
-762919
-763103
-763243
-763334
-763280
-762883
-763106
-763314
-763368
-763359
-763099
-763168
-763408
-763491
-763348
-763058
-763239
-763396
-763549
-763527
-763236
-763372
-763497
-763618
-763501
-763172
-763360
-763574
-763721
-763513
-763267
-763492
-763634
-763644
-763698
-763404
-763596
-763711
-763796
-763706
-763454
-763670
-763851
-763915
-764028
-763668
-763713
-763842
-763973
-763991
-763754
-763769
-764017
-764031
-763884
-763668
-763832
-763973
-764070
-764068
-763934
-763993
-764226
-764210
-764062
-763840
-764026
-764286
-764317
-764371
-763975
-764121
-764414
-764412
-764438
-764087
-764227
-764474
-764464
-764530
-764129
-764225
-764525
-764627
-764543
-764247
-764368
-764669
-764696
-764959
-764448
-764580
-764760
-764832
-764913
-764453
-764451
-764691
-764901
-764871
-764593
-764544
-764676
-764836
-764656
-764268
-764349
-764544
-764615
-764332
-764025
-763986
-764253
-764123
-764053
-763555
-763472
-763574
-763564
-763288
-762860
-762794
-762973
-762810
-762602
-762161
-762058
-762020
-762033
-761929
-761390
-761325
-761427
-761256
-761073
-760640
-760509
-760634
-760515
-760405
-760036
-760015
-760203
-760115
-760064
-760212
-759728
-759777
-759767
-759810
-759436
-759295
-759586
-759683
-759323
-759221
-759505
-759513
-759518
-759250
-759130
-759448
-759518
-759608
-759296
-759227
-759462
-759603
-759699
-759319
-759343
-759588
-759662
-759761
-759373
-759320
-759629
-759694
-759738
-759482
-759500
-759745
-759796
-759797
-759643
-759451
-759799
-760020
-760014
-759810
-759688
-759965
-760068
-760155
-759776
-759648
-759965
-759993
-759896
-759746
-760148
-760205
-760204
-760083
-759846
-759661
-759952
-760009
-760114
-759958
-759885
-760181
-760256
-760314
-759994
-759870
-760151
-760325
-760418
-760139
-759987
-760267
-760502
-760546
-760253
-759997
-760404
-760572
-760505
-760395
-760226
-760530
-760738
-760778
-760498
-760296
-760655
-760688
-760751
-760431
-760275
-760707
-760789
-760875
-760597
-760448
-760640
-760723
-760872
-760653
-760539
-760827
-760946
-760826
-760660
-760504
-760893
-760939
-760813
-760748
-760568
-760993
-761036
-761143
-760847
-760589
-760907
-761113
-761184
-760886
-760721
-760989
-760985
-761098
-760852
-760505
-760917
-761042
-760925
-760819
-760517
-760827
-760973
-760937
-760746
-760488
-760903
-760948
-760995
-760756
-760557
-760842
-761032
-760956
-760687
-760465
-760856
-761522
-761299
-760937
-760592
-761001
-761095
-761035
-760865
-760612
-761091
-761141
-761125
-760960
-760702
-761121
-761274
-761251
-761022
-760774
-761135
-761332
-761245
-761227
-760917
-761354
-761367
-761288
-761179
-760975
-761296
-761460
-761641
-761322
-761002
-761531
-761560
-761581
-761449
-761155
-761527
-761710
-761621
-761551
-761418
-761728
-761918
-761970
-761807
-761519
-761891
-762024
-762004
-761929
-761645
-762067
-762218
-762076
-762139
-761698
-762074
-762238
-762154
-762233
-761991
-762321
-762452
-762353
-762243
-762062
-762456
-762610
-762568
-762510
-762117
-762577
-762695
-762630
-762498
-762302
-762634
-762807
-762705
-762652
-762475
-762837
-762940
-762868
-762910
-762544
-762935
-763022
-763058
-762987
-762637
-762963
-763095
-762987
-763003
-762693
-763075
-763207
-763149
-762973
-762785
-763157
-763361
-763256
-763202
-762874
-763239
-763337
-763232
-763342
-763045
-763446
-763459
-763402
-763396
-763157
-763532
-763655
-763700
-763573
-763336
-763589
-763723
-763666
-763655
-763397
-763708
-763814
-763880
-763756
-763417
-763723
-763878
-763954
-763999
-763570
-763969
-763981
-763958
-763992
-763642
-763961
-764165
-764157
-764141
-763765
-764092
-764223
-764102
-764184
-763619
-764221
-764258
-764201
-764272
-763914
-764392
-764449
-764524
-764566
-764133
-764410
-764592
-764550
-764545
-764201
-764462
-764542
-764619
-764642
-764201
-764638
-764656
-764478
-764600
-764310
-764667
-764761
-764763
-764688
-764469
-764852
-764941
-764821
-764938
-764520
-764875
-764919
-764873
-764941
-764663
-764991
-765174
-765040
-765185
-764713
-764963
-765148
-765188
-765277
-764828
-765201
-765083
-765282
-765134
-764781
-765214
-765291
-765189
-765302
-765003
-765281
-765387
-765404
-765385
-765027
-765316
-765472
-765408
-765426
-765121
-765376
-765550
-765622
-765630
-765274
-765450
-765564
-765636
-765765
-765374
-765646
-765784
-765696
-765796
-765345
-765679
-765740
-765711
-765663
-765362
-765720
-765685
-765705
-765592
-765220
-765488
-765539
-765345
-765368
-764888
-765073
-764946
-764798
-764208
-764301
-764367
-764186
-763980
-763484
-763826
-763627
-763312
-763394
-762797
-762962
-762992
-762803
-762724
-762204
-762178
-762217
-762048
-761975
-761520
-761630
-761615
-761620
-761506
-761076
-761223
-761230
-761172
-760995
-760578
-760933
-760921
-760846
-760908
-760433
-760700
-760757
-760665
-760740
-760354
-760598
-760639
-760701
-760752
-760345
-760644
-760729
-760682
-760686
-760100
-760578
-760809
-760860
-760786
-760421
-760823
-760923
-760891
-760928
-760558
-760824
-761041
-761029
-761095
-760741
-761001
-761141
-761152
-760936
-760672
-761026
-761196
-761249
-761360
-760813
-761245
-761939
-761466
-761472
-760927
-761120
-761314
-761322
-761261
-760960
-761403
-761438
-761281
-761423
-761027
-761149
-761306
-761482
-761322
-761066
-761470
-761472
-761518
-761540
-761200
-761238
-761465
-761684
-761753
-761315
-761553
-761533
-761694
-761759
-761366
-761536
-761780
-761852
-761872
-761572
-761868
-761999
-762066
-762005
-761589
-761931
-762066
-762133
-762111
-761834
-762046
-762285
-762337
-762365
-761964
-762221
-762359
-762292
-762481
-762062
-762322
-762388
-762269
-762342
-762051
-762400
-762513
-762409
-762442
-762123
-762373
-762478
-763092
-762714
-762567
-762576
-762628
-762374
-762275
-762113
-762343
-762400
-762455
-762561
-762183
-762195
-762464
-762377
-762513
-762113
-762279
-762441
-762344
-762316
-762079
-762420
-762399
-762369
-762347
-762043
-762301
-762417
-762277
-762516
-762020
-762246
-762512
-762451
-762547
-762102
-762243
-762562
-762524
-762386
-762114
-762442
-762681
-762682
-762634
-762240
-762595
-762748
-762890
-762898
-762469
-762585
-762751
-762936
-762832
-762498
-762929
-763005
-763114
-762967
-762578
-762998
-763149
-763191
-763183
-762817
-762996
-763169
-763231
-763292
-762920
-763064
-763302
-763370
-763269
-762906
-763274
-763505
-763642
-763635
-763217
-763431
-763627
-763747
-763607
-763359
-763555
-763740
-763797
-763768
-763466
-763708
-763773
-763776
-763813
-763472
-763997
-764131
-764099
-763958
-763664
-764009
-764157
-764196
-764121
-763851
-764265
-764275
-764323
-764208
-763892
-764308
-764325
-764436
-764369
-763967
-764479
-764622
-764404
-764479
-764136
-764524
-764609
-764686
-764500
-764252
-764553
-764688
-764838
-764612
-764393
-764523
-764742
-764717
-764935
-764599
-764812
-764984
-765072
-764955
-764643
-764911
-765006
-765071
-765156
-764753
-765097
-765190
-765019
-765105
-764816
-765236
-765251
-765297
-765293
-764900
-765207
-765433
-765462
-765279
-764980
-765349
-765488
-765492
-765327
-765197
-765673
-765636
-765571
-765570
-765209
-765505
-765640
-765617
-765515
-765373
-765556
-765703
-765770
-765755
-765416
-765654
-765788
-765774
-765647
-765561
-765907
-765964
-766061
-765877
-765560
-765804
-766031
-766066
-766014
-765710
-765996
-766147
-766193
-766127
-765794
-766208
-766146
-766240
-766245
-765897
-766231
-766337
-766325
-766279
-765920
-766157
-766430
-766433
-766306
-766039
-766477
-766626
-766532
-766477
-766208
-766326
-766619
-766607
-766606
-766260
-766618
-766627
-766706
-766524
-766270
-766692
-766868
-766807
-766862
-766478
-766792
-767471
-767178
-767020
-766649
-766854
-767088
-767169
-767064
-766813
-767177
-767239
-767313
-767070
-766818
-767106
-767220
-767389
-767098
-766949
-767383
-767405
-767415
-767352
-767074
-767974
-767695
-767568
-767533
-767162
-767507
-767581
-767601
-767520
-767263
-767730
-767780
-767796
-767723
-767342
-767645
-767832
-767762
-767740
-767397
-767776
-767791
-767756
-767667
-767347
-767518
-767582
-767457
-767178
-766828
-767040
-767083
-767072
-766691
-766365
-766602
-766568
-766356
-766082
-765718
-765928
-765878
-765733
-765493
-765138
-765188
-765221
-765037
-764662
-764331
-764626
-764550
-764358
-764081
-763697
-763911
-763876
-763849
-763407
-763030
-763422
-763384
-763397
-763013
-762739
-763041
-763158
-762972
-762669
-762473
-762885
-762879
-762844
-762750
-762498
-762814
-762872
-762858
-762747
-762493
-762613
-762780
-762752
-762679
-762422
-762797
-762883
-762938
-762669
-762417
-762765
-762853
-763004
-762740
-762479
-762787
-762883
-762968
-762807
-762619
-762827
-763005
-763014
-762989
-762649
-763127
-763155
-763101
-762977
-762858
-763052
-763164
-763198
-763070
-762834
-763218
-763346
-763399
-763270
-762800
-763118
-763222
-763325
-763209
-762943
-763361
-763369
-763350
-763225
-762939
-763226
-763402
-763487
-763366
-763138
-763381
-763552
-763566
-763455
-763169
-763431
-763637
-763623
-763566
-763357
-763696
-763759
-763837
-763798
-763518
-763780
-763856
-763991
-763928
-763638
-763933
-764146
-764236
-764065
-763892
-764146
-764236
-764260
-764248
-763958
-764253
-764379
-764522
-764294
-763922
-764237
-764409
-764511
-764449
-764049
-764323
-764473
-764563
-764395
-764159
-764363
-764525
-764554
-764446
-764151
-764409
-764579
-764564
-764461
-764176
-764356
-764498
-764451
-764594
-764218
-764461
-764513
-764595
-764452
-764103
-764297
-764451
-764469
-764354
-764089
-764388
-764504
-764498
-764383
-764064
-764346
-764428
-764542
-764585
-764210
-764473
-764601
-764602
-764560
-764362
-764469
-764617
-764772
-764756
-764445
-764633
-764820
-764906
-764682
-764571
-764792
-764894
-764951
-764921
-764735
-764955
-765084
-765219
-765179
-764846
-765074
-765163
-765216
-765240
-764956
-765231
-765352
-765393
-765375
-765038
-765197
-765487
-765533
-765488
-765203
-765392
-765714
-765788
-765706
-765315
-765541
-765724
-765846
-765821
-765591
-765636
-765940
-765870
-765807
-765631
-765778
-765948
-766102
-765988
-765735
-765901
-766025
-766021
-765991
-765698
-765861
-766091
-766032
-766068
-765760
-765948
-766079
-766233
-766013
-765806
-765834
-766067
-766175
-766110
-765877
-766038
-766319
-766392
-766303
-765976
-766118
-766277
-766503
-766405
-766107
-766285
-766502
-766644
-766653
-766268
-766332
-766558
-766614
-766730
-766343
-766381
-766688
-766742
-766712
-766350
-766433
-766588
-766780
-766836
-766403
-766468
-766739
-766862
-766833
-766464
-766572
-766784
-766943
-766910
-766622
-766633
-766854
-767066
-767040
-766567
-766727
-766903
-767091
-767120
-766802
-766776
-767033
-767210
-767055
-766828
-766794
-767109
-767167
-767188
-766886
-766879
-767240
-767291
-767334
-766936
-766938
-767226
-767363
-767461
-767055
-767044
-767348
-767441
-767511
-767131
-767123
-767513
-767508
-767442
-767309
-767290
-767582
-767673
-767656
-767319
-767344
-767578
-767693
-767931
-767556
-767425
-767688
-767840
-767795
-767515
-767458
-767716
-767784
-767908
-768360
-767753
-767859
-767902
-767944
-767628
-767527
-767746
-767861
-767868
-767557
-767467
-767858
-767807
-767934
-767615
-767502
-767764
-767847
-767848
-767673
-767510
-767839
-767974
-767840
-767638
-767482
-767795
-767882
-768047
-767648
-767486
-767900
-767979
-768002
-767689
-767549
-767825
-767936
-768040
-767695
-767577
-767891
-767932
-767984
-767643
-767412
-767701
-767754
-767690
-767375
-767194
-767406
-767449
-767325
-767008
-766638
-766966
-766848
-766628
-766262
-766044
-766276
-766253
-766155
-765659
-765358
-765580
-765345
-765128
-765551
-764807
-764862
-764881
-764745
-764309
-763982
-764083
-763975
-763780
-763308
-763029
-763453
-763572
-763500
-763185
-762711
-762997
-762939
-762842
-762683
-762397
-762686
-762737
-762786
-762201
-761420
-761638
-762015
-762229
-762204
-761969
-762206
-762374
-762409
-762765
-762088
-762331
-762364
-762277
-762186
-761966
-762384
-762535
-762776
-762559
-762349
-762724
-762940
-762955
-762976
-762921
-763283
-763369
-763438
-763185
-762941
-763347
-763400
-763522
-763446
-763133
-764083
-763734
-763683
-763515
-763074
-763532
-763588
-763543
-763405
-763070
-763423
-763642
-763595
-763405
-763090
-763360
-763466
-763475
-763423
-763057
-763515
-763729
-763610
-763519
-763175
-763593
-763753
-763700
-763577
-762995
-763452
-763596
-763820
-763512
-763246
-763576
-763728
-763635
-763808
-763451
-763810
-764024
-763909
-763889
-763577
-763850
-764323
-764152
-764024
-763731
-764009
-764210
-764254
-764117
-763731
-764111
-764342
-764334
-764104
-763850
-764181
-764230
-764341
-764294
-763860
-764225
-764253
-764196
-764123
-763755
-764054
-764161
-764195
-764093
-763725
-764019
-764130
-763912
-764042
-763635
-763981
-763971
-763896
-763888
-763427
-763834
-763977
-763800
-763643
-763283
-763660
-763705
-763591
-763578
-762996
-763451
-763555
-763585
-763559
-763075
-763474
-763499
-763378
-763449
-763070
-763344
-763394
-763300
-763377
-763018
-763281
-763447
-763342
-763253
-762898
-763295
-763419
-763405
-763458
-763022
-763276
-763493
-763313
-763328
-762970
-763382
-763492
-763585
-763474
-763066
-763339
-763501
-763595
-763534
-763046
-763520
-763639
-763622
-763632
-763304
-763656
-763837
-763625
-763639
-763282
-763705
-763811
-763709
-763771
-763465
-763819
-763857
-763956
-764001
-763611
-763862
-763968
-764010
-764012
-763595
-763952
-763925
-763913
-763857
-763657
-763970
-764086
-764028
-764151
-763749
-764093
-764180
-764100
-764292
-763912
-764275
-764372
-764151
-764333
-763760
-764236
-764366
-764383
-764489
-763932
-764299
-764456
-764454
-764491
-764076
-764421
-764609
-764628
-764455
-764114
-764531
-764639
-764614
-764469
-764134
-764630
-764751
-764820
-764831
-764341
-764619
-764770
-764762
-764776
-764511
-764781
-764805
-764828
-764830
-764506
-764623
-764837
-764965
-765057
-764628
-764926
-764987
-765010
-765016
-764565
-764857
-765015
-765128
-765148
-764674
-765015
-765152
-765298
-765162
-764721
-765072
-765246
-765277
-765140
-764811
-765293
-765375
-765417
-765430
-764912
-765221
-765316
-765280
-765455
-764939
-765297
-765287
-765289
-765363
-764921
-765349
-765348
-765463
-765564
-765143
-765342
-765392
-765387
-765570
-765077
-765359
-765453
-765401
-765606
-765147
-765390
-765434
-765458
-765328
-764972
-765360
-765418
-765426
-765369
-765080
-765180
-765435
-765429
-765338
-764883
-765293
-765307
-765369
-765253
-764953
-765270
-765327
-765278
-765380
