PPG
-1140611
-1140459
-1140288
-1140150
-1140502
-1140522
-1140349
-1140341
-1140336
-1140417
-1140615
-1140577
-1140506
-1140307
-1140671
-1140839
-1140962
-1140705
-1140568
-1140785
-1140835
-1140904
-1140832
-1140771
-1141103
-1141229
-1141192
-1140713
-1140907
-1141260
-1141399
-1141318
-1141278
-1141197
-1141381
-1141559
-1141539
-1141403
-1141338
-1141544
-1141561
-1141507
-1141557
-1141462
-1141530
-1141798
-1141735
-1141632
-1141399
-1141812
-1141929
-1141988
-1141800
-1141617
-1141842
-1142024
-1142034
-1141864
-1141728
-1142047
-1141847
-1142024
-1142105
-1141810
-1142124
-1142257
-1142474
-1142283
-1142097
-1142393
-1142548
-1142440
-1142332
-1142095
-1142465
-1142454
-1142475
-1142502
-1142165
-1142396
-1142513
-1142678
-1142612
-1142249
-1142415
-1142509
-1142620
-1142609
-1142184
-1142544
-1142514
-1142528
-1142294
-1142089
-1142326
-1142246
-1142121
-1142154
-1141745
-1141952
-1142052
-1141943
-1141902
-1141507
-1141773
-1141831
-1141768
-1141816
-1141384
-1141542
-1141619
-1141646
-1141628
-1141280
-1141557
-1141619
-1141410
-1141460
-1141184
-1141359
-1141367
-1141368
-1141465
-1141033
-1141382
-1141308
-1141335
-1141356
-1141021
-1141353
-1141314
-1141384
-1141284
-1141003
-1141350
-1141307
-1141240
-1141280
-1141098
-1141406
-1141424
-1141573
-1141035
-1141498
-1141580
-1141587
-1141569
-1141344
-1141706
-1141752
-1141851
-1141817
-1141367
-1141644
-1141822
-1141768
-1141868
-1141610
-1141846
-1141824
-1141779
-1141862
-1141706
-1141919
-1141918
-1141880
-1141858
-1141615
-1141970
-1142138
-1142112
-1141811
-1141642
-1142122
-1142268
-1142232
-1142210
-1141896
-1142149
-1142219
-1142225
-1142100
-1141801
-1142101
-1142268
-1142168
-1142377
-1142166
-1142441
-1142370
-1142219
-1142331
-1141971
-1142153
-1142461
-1142322
-1142280
-1142166
-1142307
-1142533
-1142502
-1142588
-1142172
-1142326
-1142567
-1142492
-1142496
-1142269
-1143234
-1142726
-1142598
-1142682
-1142383
-1142635
-1142660
-1142626
-1142547
-1142332
-1142546
-1142840
-1142786
-1142893
-1142527
-1142788
-1142769
-1142754
-1142740
-1142622
-1142815
-1142928
-1142878
-1142851
-1142518
-1142866
-1142931
-1142885
-1143000
-1142645
-1143025
-1143109
-1143190
-1143197
-1142961
-1143196
-1143188
-1143215
-1143097
-1142803
-1143145
-1143301
-1143136
-1143111
-1142876
-1143016
-1143179
-1143410
-1143268
-1142584
-1142985
-1143093
-1143091
-1143039
-1142592
-1142741
-1142685
-1142672
-1142661
-1142147
-1142194
-1142121
-1141893
-1141506
-1141030
-1141123
-1140984
-1140657
-1140382
-1139963
-1139989
-1139757
-1139588
-1139242
-1138874
-1138643
-1138669
-1138407
-1138343
-1137831
-1137892
-1137930
-1137684
-1137467
-1137138
-1137179
-1137295
-1137237
-1137161
-1136810
-1137063
-1136936
-1136915
-1136853
-1136570
-1136759
-1136601
-1136851
-1136723
-1136524
-1136785
-1136870
-1137100
-1136756
-1136457
-1136761
-1137047
-1136962
-1137088
-1136775
-1136935
-1137196
-1137307
-1137158
-1136959
-1137253
-1137284
-1137435
-1137415
-1137244
-1137512
-1137459
-1137595
-1137721
-1137457
-1137678
-1137758
-1137748
-1137412
-1137678
-1137800
-1137630
-1137837
-1137628
-1137830
-1137893
-1137820
-1137952
-1137705
-1138015
-1138012
-1138020
-1138114
-1137798
-1138081
-1138164
-1138214
-1138012
-1137819
-1138068
-1138163
-1137975
-1138161
-1137898
-1138177
-1138416
-1138236
-1138308
-1137988
-1138352
-1138492
-1138446
-1138405
-1138159
-1138363
-1138509
-1138559
-1138489
-1138279
-1138593
-1138608
-1138515
-1138484
-1138365
-1138587
-1138720
-1138576
-1138685
-1138155
-1138697
-1138606
-1139324
-1138792
-1138452
-1138422
-1138574
-1138453
-1138315
-1138208
-1138379
-1138457
-1138436
-1138232
-1137955
-1138109
-1138122
-1138070
-1137994
-1137792
-1138008
-1138156
-1138036
-1137973
-1137480
-1137498
-1137728
-1137708
-1137910
-1137530
-1137773
-1137839
-1137795
-1137678
-1137386
-1137656
-1137819
-1137713
-1137732
-1137210
-1137673
-1137613
-1137603
-1137492
-1137319
-1137562
-1137632
-1137744
-1137594
-1137379
-1137489
-1137574
-1137761
-1137496
-1137216
-1137539
-1137750
-1137721
-1137397
-1137193
-1137702
-1137945
-1137731
-1137953
-1137626
-1137791
-1137883
-1137836
-1137752
-1137608
-1138025
-1138132
-1138105
-1138052
-1137753
-1137944
-1138026
-1138044
-1138105
-1137837
-1138053
-1138236
-1138209
-1138107
-1137886
-1138029
-1138134
-1138229
-1138132
-1137869
-1138055
-1138185
-1138236
-1138128
-1137961
-1138245
-1138269
-1138180
-1138297
-1138096
-1138345
-1138395
-1138288
-1138303
-1138182
-1138458
-1138466
-1138352
-1138335
-1138007
-1138302
-1138472
-1138598
-1138429
-1138149
-1138413
-1138642
-1138149
-1138211
-1138229
-1138087
-1138512
-1138523
-1138504
-1138355
-1138634
-1138539
-1138484
-1138524
-1138275
-1138452
-1138421
-1138530
-1138403
-1138324
-1138578
-1138641
-1138653
-1138534
-1138315
-1138559
-1138723
-1138740
-1138715
-1138490
-1138725
-1138727
-1138708
-1138650
-1138519
-1138648
-1138711
-1138749
-1138731
-1138483
-1138772
-1138761
-1138863
-1138830
-1138608
-1138904
-1138911
-1138926
-1138793
-1138623
-1138797
-1138899
-1139698
-1139020
-1138766
-1138938
-1138853
-1138981
-1138863
-1138606
-1138898
-1138884
-1138789
-1138976
-1138811
-1138942
-1139130
-1139162
-1139022
-1138775
-1139008
-1139234
-1139250
-1139095
-1138977
-1139094
-1139126
-1139221
-1139004
-1138897
-1139019
-1139200
-1139297
-1138969
-1138770
-1138797
-1139013
-1139009
-1138727
-1138463
-1138544
-1138450
-1138385
-1138017
-1137637
-1137426
-1137256
-1136997
-1136487
-1136560
-1136244
-1136115
-1135895
-1135415
-1135243
-1135095
-1134948
-1134720
-1133846
-1134202
-1134053
-1133994
-1133611
-1133335
-1133480
-1133377
-1133175
-1133066
-1132779
-1132788
-1132787
-1132745
-1132546
-1132419
-1132472
-1132560
-1132594
-1132375
-1132263
-1132391
-1132582
-1132325
-1132382
-1132302
-1132616
-1132738
-1132790
-1132643
-1132421
-1132732
-1132820
-1132806
-1132797
-1132630
-1132991
-1133063
-1133001
-1132967
-1132715
-1132964
-1133061
-1133149
-1133208
-1133076
-1133074
-1133283
-1133305
-1133056
-1133286
-1133434
-1133225
-1133366
-1133462
-1133384
-1133279
-1133198
-1133262
-1133466
-1133263
-1133140
-1133448
-1133458
-1133461
-1133295
-1133301
-1133616
-1133666
-1133478
-1133347
-1133411
-1133613
-1133769
-1133764
-1133487
-1133592
-1133683
-1133751
-1133596
-1133397
-1133499
-1133633
-1133831
-1133862
-1133581
-1133537
-1133695
-1133751
-1133863
-1133619
-1133735
-1133832
-1133961
-1133780
-1133475
-1133455
-1133744
-1133859
-1133789
-1133482
-1133540
-1133746
-1133612
-1133676
-1133184
-1133349
-1133507
-1133505
-1133502
-1133231
-1133126
-1133297
-1133257
-1133319
-1132963
-1132908
-1133024
-1132995
-1133058
-1132628
-1132760
-1132813
-1132929
-1132905
-1132416
-1132445
-1132563
-1132681
-1132737
-1132173
-1132262
-1132598
-1132552
-1132580
-1132271
-1132197
-1132422
-1132477
-1132426
-1132212
-1132187
-1132221
-1132286
-1132179
-1131964
-1132156
-1132380
-1132304
-1132431
-1132125
-1132137
-1132421
-1132408
-1132405
-1132121
-1132193
-1132359
-1132371
-1132478
-1132363
-1132312
-1132451
-1132459
-1132343
-1132289
-1132247
-1132568
-1132656
-1132591
-1132313
-1132411
-1132552
-1132708
-1132596
-1132358
-1132405
-1132547
-1132631
-1132852
-1132537
-1132480
-1132349
-1132719
-1132702
-1133177
-1132636
-1132876
-1132943
-1132926
-1132697
-1132646
-1132822
-1132925
-1133030
-1132828
-1132582
-1132926
-1132907
-1133050
-1132779
-1132751
-1132951
-1132993
-1133093
-1132823
-1132672
-1132989
-1133114
-1133004
-1132903
-1132631
-1133041
-1133225
-1133174
-1132899
-1132873
-1133016
-1133131
-1133259
-1133043
-1132831
-1133143
-1133263
-1133264
-1133074
-1132964
-1133278
-1133181
-1133116
-1132993
-1132893
-1133166
-1133298
-1133259
-1133013
-1132930
-1133139
-1133342
-1133197
-1133176
-1133056
-1133279
-1133198
-1133414
-1133224
-1133016
-1133213
-1133292
-1133453
-1133283
-1133063
-1133172
-1133399
-1133315
-1133240
-1133048
-1133238
-1133423
-1133399
-1133303
-1133080
-1133387
-1133363
-1133350
-1133297
-1133004
-1133257
-1133436
-1133509
-1133283
-1133094
-1133309
-1133333
-1133432
-1133243
-1132708
-1133311
-1133432
-1133437
-1133347
-1133190
-1133408
-1133463
-1133536
-1133260
-1133020
-1133283
-1133314
-1133405
-1133205
-1133089
-1133442
-1133453
-1133334
-1133280
-1133175
-1133356
-1133486
-1133393
-1133417
-1133114
-1133461
-1133457
-1133561
-1133475
-1133372
-1133475
-1133572
-1133645
-1133552
-1133484
-1133841
-1133788
-1133748
-1133574
-1133325
-1133765
-1133825
-1133842
-1133778
-1133484
-1133760
-1133916
-1133986
-1133734
-1133518
-1133895
-1133926
-1134012
-1133896
-1133737
-1133857
-1133973
-1134094
-1133897
-1133680
-1133892
-1134111
-1133950
-1133956
-1133759
-1133906
-1133902
-1133692
-1133275
-1133433
-1133467
-1133366
-1133032
-1132716
-1132770
-1132592
-1132212
-1132049
-1131571
-1131432
-1131203
-1131136
-1130862
-1130274
-1130231
-1129993
-1129886
-1129547
-1129115
-1129200
-1128926
-1128710
-1128578
-1128262
-1128079
-1127718
-1127781
-1127406
-1127412
-1127338
-1127296
-1127132
-1126855
-1127159
-1127186
-1127014
-1126937
-1126555
-1126722
-1127026
-1127016
-1126941
-1126576
-1126941
-1126966
-1127048
-1126893
-1126564
-1126953
-1127067
-1126749
-1127049
-1126829
-1127178
-1127298
-1127357
-1127172
-1126939
-1127201
-1127277
-1127464
-1127427
-1127188
-1127384
-1127455
-1127559
-1127507
-1127005
-1127461
-1127514
-1127582
-1127450
-1127143
-1127433
-1127553
-1127505
-1127392
-1127112
-1127443
-1127584
-1127588
-1127621
-1127188
-1127528
-1127655
-1127595
-1127552
-1127200
-1127541
-1127576
-1127586
-1127467
-1127109
-1127410
-1127435
-1127587
-1127415
-1127172
-1127529
-1127596
-1127381
-1127380
-1127194
-1127408
-1127361
-1127522
-1127664
-1127349
-1127613
-1127739
-1127596
-1127575
-1127249
-1127619
-1127743
-1127546
-1127491
-1127220
-1127529
-1127593
-1127502
-1127509
-1127207
-1127487
-1127493
-1127480
-1127537
-1127124
-1127244
-1127334
-1127132
-1127145
-1126801
-1127017
-1127132
-1127091
-1127088
-1126741
-1126678
-1126765
-1126915
-1126753
-1126522
-1126623
-1126722
-1126705
-1126504
-1126314
-1126540
-1126486
-1126412
-1126547
-1126085
-1126325
-1126327
-1126298
-1126344
-1126009
-1126222
-1126372
-1126440
-1126329
-1125865
-1126193
-1126292
-1126195
-1126208
-1125774
-1126030
-1126084
-1126196
-1126286
-1125907
-1125955
-1126066
-1126082
-1126024
-1125888
-1125947
-1126246
-1126107
-1126069
-1125959
-1126291
-1126344
-1126369
-1126276
-1125834
-1126035
-1126212
-1126230
-1126140
-1125935
-1126235
-1126309
-1126394
-1126464
-1125747
-1126278
-1126290
-1126453
-1126420
-1126094
-1126354
-1126505
-1126462
-1126456
-1126231
-1126373
-1126430
-1126420
-1126461
-1126288
-1126480
-1126632
-1126587
-1126729
-1126417
-1126489
-1126487
-1126546
-1126674
-1126413
-1126468
-1126578
-1126650
-1126644
-1126322
-1126470
-1126649
-1126559
-1126621
-1126335
-1126731
-1126617
-1126802
-1126844
-1127303
-1126967
-1126655
-1126693
-1126658
-1126401
-1126641
-1126762
-1126674
-1126661
-1126372
-1126818
-1126836
-1126796
-1126804
-1126423
-1126850
-1126816
-1126837
-1126836
-1126461
-1126773
-1126926
-1126804
-1126820
-1126480
-1126885
-1126967
-1126822
-1126862
-1126540
-1126677
-1126731
-1126870
-1126983
-1126655
-1126982
-1127010
-1126876
-1126926
-1126540
-1126761
-1126825
-1126684
-1126797
-1126644
-1126715
-1126872
-1126792
-1126764
-1126438
-1126731
-1126858
-1127002
-1126854
-1126705
-1126746
-1127003
-1126906
-1126938
-1126492
-1126794
-1126956
-1127000
-1126809
-1126716
-1126875
-1127004
-1127001
-1126768
-1126566
-1126913
-1126992
-1126996
-1127052
-1126824
-1126852
-1126948
-1126901
-1126856
-1126663
-1126983
-1127002
-1126962
-1126926
-1126802
-1127050
-1127160
-1127117
-1126945
-1127022
-1126950
-1127191
-1126924
-1127033
-1126663
-1126819
-1127054
-1126934
-1126953
-1126767
-1126957
-1126995
-1127115
-1127168
-1126976
-1127217
-1127111
-1127230
-1127185
-1126910
-1127276
-1127238
-1127263
-1127179
-1126841
-1127099
-1127237
-1127174
-1127158
-1126912
-1127279
-1127399
-1127475
-1127383
-1127082
-1127423
-1127581
-1127531
-1127458
-1127305
-1127558
-1127669
-1127537
-1127497
-1127334
-1127707
-1127596
-1127536
-1127537
-1127334
-1127750
-1127699
-1127670
-1127447
-1127416
-1127768
-1127715
-1127742
-1127478
-1127283
-1127296
-1127323
-1127196
-1127170
-1126852
-1126750
-1126747
-1126643
-1126157
-1125836
-1125934
-1125801
-1125330
-1125101
-1124516
-1124438
-1124396
-1124156
-1123811
-1123349
-1123382
-1123285
-1122987
-1122664
-1122268
-1122244
-1122116
-1121970
-1121724
-1121268
-1121469
-1121343
-1121237
-1120995
-1120582
-1121607
-1121117
-1120905
-1120608
-1120405
-1120605
-1120734
-1120666
-1120543
-1120397
-1120570
-1120566
-1120647
-1120466
-1120248
-1120553
-1120559
-1120755
-1120613
-1120366
-1120693
-1120756
-1120839
-1120748
-1120502
-1120918
-1120990
-1121013
-1120873
-1120631
-1121074
-1121009
-1121038
-1120966
-1120779
-1121052
-1121142
-1121246
-1121148
-1120888
-1121093
-1121171
-1121265
-1121074
-1120959
-1121247
-1121296
-1121341
-1121067
-1120856
-1121101
-1121161
-1121150
-1121087
-1120907
-1121142
-1121164
-1121325
-1121027
-1120895
-1120922
-1121092
-1121157
-1121243
-1121037
-1121157
-1121260
-1121327
-1121089
-1120931
-1121194
-1121148
-1121250
-1121268
-1120924
-1121159
-1121213
-1121379
-1121118
-1121008
-1121228
-1121359
-1121373
-1121123
-1120869
-1121172
-1121288
-1121258
-1121096
-1120849
-1121159
-1121131
-1121203
-1120928
-1120710
-1121038
-1121051
-1121042
-1120760
-1120535
-1120728
-1120907
-1120838
-1120773
-1120375
-1120542
-1120683
-1120627
-1120637
-1120357
-1120499
-1120504
-1120434
-1120163
-1120039
-1120265
-1120277
-1120209
-1120099
-1119796
-1120034
-1120104
-1120176
-1119872
-1119729
-1119876
-1120000
-1119993
-1119834
-1119551
-1119746
-1119734
-1119889
-1119660
-1119509
-1119790
-1119899
-1119849
-1119863
-1119432
-1119770
-1119762
-1119877
-1120386
-1119807
-1119677
-1119815
-1119699
-1119743
-1119427
-1119785
-1119835
-1119749
-1119866
-1119706
-1119730
-1119755
-1119734
-1119530
-1119724
-1119962
-1120016
-1119950
-1119656
-1119893
-1119953
-1120065
-1120042
-1119685
-1119788
-1119975
-1119993
-1119895
-1119729
-1120033
-1120164
-1120207
-1119978
-1119892
-1119855
-1120129
-1120185
-1120021
-1119975
-1120055
-1120137
-1120157
-1120170
-1119927
-1120136
-1120138
-1120240
-1120211
-1120031
-1120076
-1120214
-1120337
-1120281
-1119924
-1120144
-1120275
-1120401
-1120352
-1120176
-1120351
-1120298
-1120402
-1120224
-1120101
-1120088
-1120295
-1120365
-1120384
-1120126
-1120204
-1120318
-1120314
-1120388
-1120205
-1120185
-1120253
-1120375
-1120435
-1120116
-1120170
-1120313
-1120453
-1120403
-1120191
-1120218
-1120387
-1120411
-1120479
-1120120
-1120225
-1120528
-1120607
-1120637
-1120210
-1120273
-1120473
-1120506
-1120413
-1120245
-1120365
-1120474
-1120550
-1120574
-1120375
-1120416
-1120575
-1120644
-1120508
-1120283
-1120474
-1120479
-1120694
-1120754
-1120426
-1120348
-1120552
-1120626
-1120602
-1121123
-1120703
-1121377
-1120869
-1120806
-1120388
-1120392
-1120520
-1120591
-1120613
-1120482
-1120400
-1120673
-1120747
-1120627
-1120352
-1120261
-1120562
-1120748
-1120667
-1120445
-1120525
-1120731
-1120714
-1120522
-1120382
-1120399
-1120682
-1120724
-1120662
-1120486
-1120342
-1120671
-1120775
-1120899
-1120524
-1120478
-1120693
-1120757
-1120918
-1120677
-1120662
-1120839
-1120778
-1120876
-1120599
-1120667
-1120842
-1120822
-1120857
-1120804
-1120770
-1120970
-1120916
-1120976
-1120864
-1120790
-1121006
-1121009
-1121159
-1120929
-1120894
-1121127
-1121129
-1121120
-1120781
-1120711
-1121165
-1121133
-1121194
-1120867
-1120822
-1121186
-1121249
-1121314
-1121102
-1120928
-1121272
-1121459
-1121476
-1121137
-1121018
-1121325
-1121542
-1121640
-1121322
-1121054
-1121337
-1121589
-1121486
-1121311
-1121180
-1121433
-1121442
-1121606
-1121416
-1121284
-1121419
-1121587
-1121341
-1121292
-1121184
-1121286
-1121354
-1121165
-1120828
-1120710
-1120717
-1120753
-1120439
-1120094
-1119714
-1119768
-1119683
-1119454
-1119036
-1118585
-1118642
-1118454
-1118143
-1117699
-1117397
-1117363
-1117379
-1117052
-1116605
-1116361
-1116355
-1116342
-1115789
-1115766
-1115467
-1115549
-1115653
-1115435
-1115196
-1114895
-1115148
-1115144
-1114899
-1114723
-1114630
-1115008
-1114891
-1114911
-1114786
-1114532
-1114768
-1114812
-1115003
-1114774
-1114630
-1114980
-1115077
-1115085
-1114797
-1114637
-1114877
-1115116
-1115001
-1114956
-1114855
-1115121
-1115286
-1115294
-1115234
-1115065
-1115288
-1115394
-1115252
-1115261
-1115260
-1115456
-1115569
-1115506
-1115407
-1115215
-1115435
-1115583
-1115549
-1115462
-1115389
-1115538
-1115705
-1115695
-1115660
-1115465
-1115548
-1115773
-1115762
-1115623
-1115455
-1115789
-1115691
-1115710
-1115604
-1115469
-1115792
-1115882
-1115714
-1115555
-1115412
-1115737
-1115764
-1115665
-1115644
-1115440
-1115729
-1115777
-1115845
-1115741
-1115541
-1115772
-1116039
-1116122
-1115883
-1115694
-1115945
-1115926
-1116003
-1116058
-1115773
-1115966
-1116118
-1116158
-1115849
-1115537
-1115913
-1116067
-1115902
-1115769
-1115480
-1115634
-1115787
-1115817
-1115576
-1115389
-1115447
-1115563
-1115370
-1115428
-1115222
-1115430
-1115478
-1115512
-1115516
-1115119
-1115199
-1115235
-1115211
-1115193
-1114925
-1115070
-1114662
-1114963
-1114611
-1114849
-1114912
-1114878
-1114767
-1114535
-1114838
-1114858
-1114764
-1114779
-1114494
-1114667
-1114701
-1114683
-1114339
-1114637
-1114608
-1114588
-1114493
-1114290
-1114615
-1114621
-1114578
-1114679
-1114192
-1114099
-1114673
-1114603
-1114579
-1114387
-1114602
-1114690
-1114703
-1114771
-1114529
-1114642
-1114573
-1114742
-1114806
-1114593
-1114688
-1114856
-1114950
-1114918
-1114625
-1114786
-1114976
-1114772
-1114865
-1114643
-1114784
-1114928
-1115032
-1115022
-1114642
-1114711
-1115080
-1115019
-1114843
-1115051
-1115056
-1114981
-1114995
-1114755
-1115048
-1115069
-1115146
-1115171
-1114902
-1115184
-1115167
-1115270
-1115142
-1114874
-1115222
-1115206
-1115385
-1115316
-1115068
-1115302
-1115483
-1115298
-1115260
-1115007
-1115282
-1115467
-1115557
-1115533
-1115083
-1115207
-1115363
-1115506
-1115666
-1115333
-1115435
-1115622
-1115678
-1115615
-1115327
-1115474
-1115725
-1115714
-1115753
-1115386
-1115666
-1115590
-1115710
-1115546
-1115273
-1115517
-1115651
-1115773
-1115581
-1115449
-1115552
-1115676
-1115606
-1115589
-1115309
-1115624
-1115725
-1115724
-1115634
-1115492
-1115735
-1115890
-1115778
-1115791
-1115437
-1115658
-1115791
-1115808
-1115960
-1115729
-1115853
-1115975
-1115966
-1115949
-1115761
-1115820
-1115975
-1116113
-1116050
-1115803
-1115793
-1116555
-1116297
-1116274
-1115841
-1116047
-1116252
-1115991
-1116052
-1115804
-1116095
-1116038
-1116182
-1116265
-1115803
-1115942
-1116087
-1116221
-1116085
-1115892
-1116052
-1116120
-1116165
-1115768
-1115896
-1116128
-1116150
-1116145
-1116270
-1116012
-1116084
-1116130
-1116218
-1116213
-1115970
-1116225
-1116427
-1116368
-1116351
-1116069
-1116191
-1116346
-1116141
-1116128
-1116071
-1116277
-1116292
-1116395
-1116327
-1116006
-1116348
-1116436
-1116375
-1116390
-1116212
-1116367
-1116508
-1116493
-1116491
-1116237
-1116570
-1116608
-1116541
-1116596
-1116359
-1116550
-1116635
-1116622
-1116379
-1116251
-1116477
-1116651
-1116721
-1116701
-1116469
-1116604
-1116818
-1116806
-1116748
-1116478
-1116823
-1116985
-1116950
-1116770
-1116567
-1116950
-1117122
-1117072
-1116857
-1116744
-1116966
-1117057
-1117109
-1117056
-1116956
-1117171
-1117164
-1117085
-1116996
-1116747
-1116401
-1116521
-1116571
-1116323
-1115745
-1115463
-1115683
-1115455
-1115282
-1115157
-1114587
-1114492
-1114319
-1113962
-1113739
-1113338
-1113254
-1113230
-1112793
-1112395
-1112110
-1112307
-1112229
-1112083
-1111914
-1111426
-1111547
-1111550
-1111357
-1111264
-1110871
-1111445
-1111104
-1110910
-1110704
-1110523
-1110502
-1110737
-1110774
-1110762
-1110377
-1110502
-1110510
-1110516
-1110349
-1110678
-1110675
-1110798
-1110741
-1110517
-1110841
-1110929
-1110794
-1110813
-1110587
-1110703
-1110924
-1110949
-1110882
-1110675
-1111047
-1111195
-1111221
-1111079
-1110890
-1111083
-1111234
-1111319
-1111260
-1111029
-1111235
-1111370
-1111407
-1111500
-1111374
-1111311
-1111622
-1111425
-1111365
-1111340
-1111503
-1111570
-1111648
-1111577
-1111420
-1111499
-1111738
-1111790
-1111566
-1111329
-1111582
-1111686
-1111676
-1111685
-1111369
-1111761
-1111745
-1111783
-1111639
-1111405
-1111618
-1111846
-1111845
-1111747
-1111422
-1111879
-1111986
-1111891
-1111731
-1111584
-1111872
-1111937
-1112043
-1111912
-1111679
-1111727
-1111991
-1112087
-1111978
-1111828
-1111943
-1111995
-1112131
-1111919
-1111747
-1111837
-1111917
-1111982
-1111949
-1111642
-1111847
-1111908
-1111877
-1111908
-1111550
-1111742
-1111794
-1111750
-1111528
-1111257
-1111562
-1111677
-1111746
-1111630
-1111383
-1111497
-1111538
-1111531
-1111192
-1111038
-1111354
-1111415
-1111309
-1111035
-1110928
-1111274
-1111327
-1111159
-1111019
-1110755
-1111031
-1110942
-1111069
-1111026
-1110492
-1110872
-1111078
-1111111
-1111119
-1110770
-1110957
-1111149
-1110936
-1111100
-1110715
-1110954
-1111117
-1111175
-1111008
-1110827
-1111032
-1111060
-1111130
-1110980
-1110805
-1110988
-1111189
-1111234
-1111101
-1110869
-1111169
-1111207
-1111118
-1111168
-1110890
-1111274
-1111219
-1111361
-1111182
-1110952
-1111191
-1111316
-1111384
-1111376
-1111255
-1111440
-1111559
-1111534
-1111314
-1111151
-1111507
-1111665
-1111715
-1111553
-1111348
-1111684
-1111636
-1111613
-1111464
-1111384
-1111529
-1111792
-1111773
-1111651
-1111480
-1111684
-1111875
-1111912
-1111760
-1111411
-1111681
-1111719
-1112015
-1111828
-1111616
-1111827
-1112045
-1112078
-1112034
-1111810
-1111994
-1112160
-1112220
-1111981
-1111934
-1112186
-1112271
-1112265
-1112220
-1111920
-1112138
-1112360
-1112231
-1112010
-1112048
-1112310
-1112188
-1112356
-1112208
-1112093
-1112217
-1112416
-1112394
-1112425
-1112306
-1112443
-1112458
-1112561
-1112359
-1112227
-1112460
-1112546
-1112445
-1112272
-1112501
-1112645
-1112666
-1112592
-1113042
-1112673
-1112681
-1112775
-1112567
-1112308
-1112510
-1112763
-1112777
-1112742
-1112601
-1112714
-1112816
-1112760
-1112724
-1112522
-1112843
-1112953
-1112826
-1112793
-1112564
-1112812
-1112957
-1112838
-1112998
-1112608
-1112946
-1113025
-1112980
-1113009
-1112812
-1112851
-1112953
-1113126
-1113101
-1112819
-1112586
-1112960
-1113144
-1112983
-1112813
-1113017
-1113569
-1113271
-1113143
-1112997
-1113162
-1113178
-1113232
-1113090
-1112892
-1113165
-1113348
-1113313
-1113103
-1113338
-1113421
-1113467
-1113176
-1113065
-1113307
-1113476
-1113411
-1113410
-1113171
-1113308
-1113494
-1113357
-1113495
-1113255
-1113458
-1113734
-1113652
-1113632
-1113365
-1113545
-1113835
-1113796
-1113816
-1113641
-1113652
-1113798
-1113845
-1113884
-1113661
-1113743
-1113836
-1113943
-1114132
-1113916
-1113896
-1114041
-1114181
-1114158
-1114017
-1114144
-1114198
-1114411
-1114530
-1114185
-1114156
-1114103
-1114241
-1114216
-1114172
-1114157
-1114443
-1114439
-1114423
-1114121
-1114113
-1114296
-1114126
-1114011
-1113825
-1113746
-1113741
-1113511
-1113295
-1113018
-1112862
-1112564
-1112344
-1111983
-1111803
-1111764
-1111470
-1111152
-1110739
-1110705
-1110694
-1110271
-1110059
-1109818
-1109669
-1109691
-1109613
-1109316
-1108935
-1108765
-1108779
-1108931
-1108690
-1108410
-1108368
-1108500
-1108397
-1108253
-1106462
-1107533
-1108022
-1108227
-1108148
-1107817
-1108024
-1108099
-1108301
-1108279
-1108021
-1107960
-1108055
-1108212
-1108316
-1108243
-1108194
-1108418
-1108445
-1108454
-1108401
-1108271
-1108597
-1108724
-1108750
-1108601
-1108519
-1108836
-1108854
-1108982
-1108821
-1108755
-1108985
-1109085
-1109093
-1108968
-1108923
-1109062
-1109111
-1109200
-1109038
-1108928
-1109271
-1109291
-1109330
-1109220
-1108981
-1109213
-1109392
-1109373
-1109222
-1109045
-1109393
-1109477
-1109530
-1109255
-1109244
-1109543
-1109565
-1109671
-1109382
-1109371
-1109559
-1109613
-1109715
-1109541
-1109388
-1109630
-1109642
-1109808
-1109639
-1109404
-1109779
-1109511
-1109714
-1109611
-1109325
-1109789
-1109951
-1110040
-1109699
-1109668
-1109871
-1109899
-1109909
-1109836
-1109718
-1109847
-1109864
-1109619
-1109616
-1109467
-1109737
-1109482
-1109825
-1109605
-1109475
-1109706
-1109872
-1109838
-1109492
-1109366
-1109601
-1109723
-1109595
-1109389
-1109183
-1109433
-1109417
-1109373
-1109189
-1108980
-1109183
-1108858
-1109194
-1108936
-1108871
-1109016
-1108967
-1109103
-1108889
-1108722
-1108814
-1109028
-1108988
-1108837
-1108687
-1108980
-1109014
-1108899
-1108763
-1108544
-1108870
-1109042
-1109040
-1108912
-1108555
-1108932
-1108926
-1108900
-1108863
-1108666
-1108933
-1109035
-1108903
-1108832
-1108641
-1108871
-1109021
-1109113
-1108916
-1108704
-1109083
-1109103
-1109133
-1109086
-1108860
-1109213
-1109321
-1109150
-1109066
-1108984
-1109126
-1109370
-1108815
-1109127
-1108943
-1109264
-1109348
-1109408
-1109358
-1109170
-1109357
-1109533
-1109512
-1109358
-1109070
-1109469
-1109698
-1109718
-1109639
-1109278
-1109685
-1109806
-1109757
-1109648
-1109413
-1109697
-1109771
-1109698
-1109870
-1109667
-1109907
-1109875
-1110080
-1110045
-1109639
-1109881
-1110072
-1109981
-1109983
-1109787
-1110030
-1110114
-1110099
-1110055
-1109918
-1110186
-1110245
-1110202
-1110172
-1109934
-1110172
-1110214
-1110291
-1110306
-1109969
-1110277
-1110453
-1110467
-1110415
-1110140
-1110435
-1110462
-1110588
-1110505
-1110214
-1110447
-1110257
-1110390
-1110555
-1110207
-1110474
-1110542
-1110453
-1110646
-1110474
-1110725
-1110673
-1110587
-1111142
-1110431
-1110635
-1110683
-1110754
-1110795
-1110432
-1110423
-1110671
-1110700
-1110762
-1110481
-1110746
-1110830
-1110861
-1110845
-1110578
-1110830
-1110873
-1111012
-1110918
-1110655
-1110926
-1110986
-1110956
-1110990
-1110637
-1110842
-1110900
-1111060
-1111099
-1110807
-1110908
-1111042
-1111148
-1111208
-1110889
-1111038
-1111039
-1111067
-1111142
-1110889
-1111011
-1111084
-1111183
-1111318
-1111033
-1111118
-1111165
-1111171
-1111240
-1110901
-1111218
-1111250
-1111430
-1111287
-1111175
-1111327
-1111513
-1111410
-1111486
-1111096
-1111463
-1111514
-1111465
-1111468
-1111171
-1111438
-1111539
-1111627
-1111711
-1111367
-1111589
-1111695
-1111745
-1111737
-1111409
-1111687
-1111857
-1111798
-1111656
-1112290
-1111995
-1112083
-1112033
-1112072
-1111793
-1111878
-1112021
-1111990
-1111632
-1111894
-1111915
-1111651
-1111679
-1111312
-1111371
-1111442
-1111225
-1111151
-1110627
-1110703
-1110498
-1110364
-1110225
-1109724
-1109650
-1109530
-1109245
-1109069
-1108586
-1108661
-1109196
-1108466
-1108066
-1107565
-1107676
-1107586
-1107249
-1107177
-1106654
-1106834
-1106679
-1106613
-1106469
-1105869
-1106274
-1106333
-1106224
-1106148
-1105924
-1105901
-1106138
-1105977
-1105993
-1105642
-1105883
-1105933
-1105984
-1105930
-1105664
-1105927
-1106078
-1106069
-1106149
-1105847
-1105962
-1106053
-1106156
-1106115
-1105926
-1106101
-1106142
-1106208
-1106481
-1106165
-1106362
-1106392
-1106565
-1106423
-1106265
-1106431
-1106527
-1106528
-1106630
-1106357
-1106541
-1106675
-1106707
-1106965
-1106483
-1106782
-1106846
-1107351
-1106998
-1106714
-1106845
-1106824
-1106777
-1106763
-1106577
-1106820
-1106946
-1106918
-1107146
-1106786
-1107001
-1107033
-1107026
-1107111
-1106889
-1106971
-1107105
-1107146
-1107189
-1107022
-1107140
-1107301
-1107241
-1107363
-1107052
-1107282
-1107364
-1107450
-1107468
-1107136
-1107449
-1107446
-1107579
-1107469
-1107165
-1107380
-1107509
-1107527
-1107469
-1107154
-1107295
-1107509
-1107528
-1107547
-1107105
-1107325
-1107379
-1107428
-1107790
-1107291
-1107011
-1107220
-1107352
-1107290
-1106960
-1107025
-1107050
-1107112
-1106954
-1106454
-1106686
-1106837
-1106906
-1106674
-1106358
-1106503
-1106603
-1106535
-1106533
-1106336
-1106533
-1106601
-1106581
-1106532
-1106116
-1106572
-1106458
-1106504
-1106446
-1106193
-1106167
-1106326
-1106394
-1106250
-1106043
-1106236
-1106316
-1106071
-1106178
-1105988
-1106081
-1106223
-1106275
-1106198
-1105917
-1106152
-1106300
-1106234
-1106225
-1105899
-1106045
-1106252
-1106174
-1106118
-1106048
-1106430
-1106564
-1106332
-1106352
-1105984
-1106351
-1106565
-1106432
-1106464
-1106148
-1106445
-1106527
-1106477
-1106445
-1106155
-1106482
-1106585
-1106624
-1106491
-1106306
-1106512
-1106745
-1106724
-1106702
-1106429
-1106746
-1106854
-1106756
-1106780
-1106482
-1106825
-1106842
-1106954
-1106943
-1106716
-1106999
-1107046
-1107000
-1107015
-1106858
-1107129
-1107070
-1107126
-1107234
-1106898
-1107103
-1107323
-1107166
-1106977
-1106896
-1107284
-1107376
-1107317
-1107260
-1107170
-1107469
-1107388
-1107280
-1107294
-1107011
-1107283
-1107505
-1107547
-1107468
-1107144
-1107485
-1107433
-1107547
-1107599
-1107358
-1107637
-1107652
-1107382
-1107374
-1107220
-1107511
-1107674
-1107664
-1107567
-1107335
-1107633
-1107705
-1107735
-1107446
-1107426
-1107630
-1107647
-1107616
-1107693
-1107494
-1107692
-1107819
-1107923
-1107780
-1107644
-1107859
-1107932
-1107848
-1107714
-1107541
-1107766
-1107982
-1107966
-1107828
-1107733
-1107836
-1108084
-1108016
-1107795
-1107698
-1107981
-1108068
-1108089
-1108044
-1107777
-1108051
-1108306
-1108162
-1107957
-1107780
-1108048
-1108269
-1108196
-1107985
-1107855
-1108131
-1108219
-1108383
-1108212
-1107933
-1108156
-1108393
-1108390
-1108257
-1108034
-1108315
-1108454
-1108579
-1108563
-1108304
-1108522
-1108488
-1108664
-1108474
-1108384
-1108537
-1108665
-1108707
-1108492
-1108295
-1108660
-1108766
-1108711
-1108699
-1108545
-1108764
-1108863
-1108762
-1108779
-1108536
-1108776
-1108855
-1108868
-1108886
-1108528
-1108740
-1108812
-1108739
-1108568
-1108311
-1108508
-1108460
-1108244
-1108027
-1107599
-1107741
-1107546
-1107271
-1106933
-1106538
-1106504
-1106378
-1106308
-1105923
-1105542
-1105548
-1105278
-1105089
-1104849
-1104321
-1104413
-1104235
-1104250
-1103928
-1103488
-1103619
-1103525
-1103394
-1103172
-1102897
-1102887
-1102954
-1102827
-1102638
-1102327
-1102531
-1102555
-1102533
-1102368
-1102148
-1102307
-1102332
-1102333
-1102418
-1102123
-1102203
-1102235
-1102356
-1102218
-1101885
-1102130
-1102176
-1102351
-1102230
-1102162
-1102540
-1102374
-1102377
-1101991
-1102032
-1102306
-1102428
-1102520
-1102579
-1102275
-1102495
-1102778
-1102767
-1102679
-1102531
-1102563
-1102793
-1102922
-1102869
-1102553
-1102803
-1102993
-1102880
-1102868
-1102713
-1102797
-1102859
-1102960
-1103039
-1102749
-1102839
-1102909
-1102964
-1102944
-1102727
-1102947
-1103087
-1103044
-1102923
-1102679
-1102767
-1102927
-1103103
-1103000
-1102857
-1102556
-1102967
-1103013
-1103084
-1102828
-1102975
-1103179
-1103042
-1103128
-1102866
-1102939
-1103090
-1103251
-1103201
-1102895
-1103099
-1103280
-1103325
-1103199
-1102923
-1103065
-1103213
-1103189
-1103160
-1102945
-1103019
-1103206
-1103111
-1103082
-1102882
-1102843
-1102975
-1103104
-1102910
-1102694
-1102804
-1102857
-1102866
-1102733
-1102547
-1102644
-1102690
-1102684
-1102764
-1102447
-1102500
-1102532
-1102596
-1102565
-1102325
-1102237
-1102462
-1102432
-1102381
-1102126
-1102209
-1102454
-1102368
-1102242
-1101923
-1101945
-1102203
-1102256
-1102258
-1101914
-1101958
-1102086
-1102047
-1101964
-1101710
-1101682
-1101926
-1102015
-1102057
-1101810
-1101655
-1101928
-1101889
-1101847
-1101755
-1101743
-1101992
-1101949
-1101958
-1101723
-1101731
-1101977
-1101949
-1101914
-1101435
-1101618
-1101898
-1101958
-1102114
-1101561
-1101787
-1102045
-1102186
-1102225
-1101847
-1101922
-1102171
-1102138
-1102306
-1102125
-1102009
-1102228
-1102184
-1102276
-1102002
-1102000
-1102238
-1102244
-1102264
-1102119
-1102138
-1102353
-1102435
-1102263
-1102244
-1102433
-1102551
-1102588
-1102353
-1102327
-1102530
-1102608
-1102553
-1102331
-1102232
-1102495
-1102539
-1102749
-1102402
-1102389
-1102537
-1102751
-1102720
-1102401
-1102303
-1102676
-1102708
-1102854
-1102596
-1102597
-1102793
-1102889
-1102737
-1102298
-1102352
-1102805
-1102835
-1102955
-1102739
-1102467
-1102688
-1102785
-1102692
-1102599
-1102449
-1102788
-1102937
-1102963
-1102743
-1102539
-1102815
-1102837
-1102932
-1102966
-1102704
-1102777
-1102959
-1102712
-1102794
-1103262
-1102738
-1102967
-1102870
-1102774
-1102582
-1102820
-1102944
-1102897
-1102762
-1102553
-1102991
-1103099
-1103087
-1102905
-1102695
-1102886
-1103149
-1103017
-1102889
-1102808
-1103093
-1103159
-1103221
-1103023
-1102657
-1103016
-1103039
-1103008
-1102929
-1102810
-1103137
-1103086
-1103125
-1103150
-1102932
-1103048
-1103092
-1103112
-1103093
-1102966
-1103125
-1103219
-1103128
-1103095
-1102836
-1103091
-1103130
-1103108
-1103178
-1102946
-1103272
-1104075
-1103546
-1103222
-1102915
-1103200
-1103384
-1103389
-1103386
-1103217
-1103273
-1103460
-1103378
-1103367
-1103091
-1103279
-1103388
-1103554
-1103421
-1103178
-1103507
-1103542
-1103440
-1103403
-1103227
-1103531
-1103537
-1103495
-1103559
-1103282
-1103442
-1103466
-1103216
-1103171
-1102790
-1102839
-1102752
-1102804
-1102384
-1101950
-1102056
-1101918
-1101732
-1101423
-1100914
-1100967
-1100834
-1100570
-1100289
-1099710
-1099702
-1099706
-1099436
-1099065
-1098623
-1098603
-1098409
-1098225
-1098217
-1097681
-1097734
-1097717
-1097473
-1097382
-1096900
-1097104
-1097202
-1097004
-1097036
-1096274
-1096695
-1096785
-1096732
-1096568
-1096262
-1096527
-1096318
-1096346
-1096348
-1096201
-1096405
-1096420
-1096454
-1096358
-1096079
-1096316
-1096595
-1096569
-1096402
-1096222
-1096363
-1096586
-1096475
-1096488
-1096177
-1096534
-1096527
-1096558
-1096629
-1096428
-1096501
-1096697
-1096610
-1096552
-1096319
-1096619
-1096624
-1096478
-1096636
-1096326
-1096720
-1096586
-1096714
-1096615
-1096468
-1096299
-1096583
-1096672
-1096576
-1096356
-1096562
-1096320
-1096575
-1097121
-1096480
-1096566
-1096438
-1096494
-1096516
-1096188
-1096356
-1096267
-1096330
-1096299
-1096001
-1096262
-1096408
-1096409
-1096408
-1095955
-1096231
-1096278
-1096473
-1096347
-1095963
-1096346
-1096407
-1096372
-1096355
-1096083
-1096190
-1096317
-1096233
-1096220
-1096098
-1096238
-1096245
-1096351
-1096279
-1095951
-1096140
-1096318
-1096225
-1096289
-1095814
-1096016
-1096146
-1096066
-1096108
-1095677
-1095842
-1095893
-1096012
-1095982
-1095499
-1095728
-1095621
-1095566
-1095634
-1095305
-1095392
-1095350
-1095482
-1095424
-1095072
-1095216
-1095307
-1095209
-1095238
-1094793
-1095078
-1095102
-1094883
-1094841
-1094616
-1094910
-1095000
-1094968
-1094812
-1094442
-1094681
-1094920
-1094703
-1094762
-1094441
-1094719
-1094739
-1094689
-1094630
-1094389
-1094687
-1094771
-1094641
-1094527
-1094228
-1094427
-1094597
-1094532
-1094803
-1094320
-1094636
-1094679
-1094653
-1094736
-1094416
-1094528
-1094676
-1094647
-1094528
-1094306
-1094502
-1094633
-1094629
-1094690
-1094457
-1094720
-1094776
-1094656
-1094697
-1094452
-1094664
-1094778
-1094661
-1094563
-1094555
-1094804
-1094870
-1094881
-1094971
-1094622
-1094727
-1094871
-1094820
-1094822
-1094584
-1094779
-1094931
-1094997
-1094777
-1094532
-1094661
-1094940
-1094875
-1094956
-1094730
-1094860
-1094894
-1094925
-1095085
-1094764
-1094774
-1094978
-1094938
-1094844
-1094408
-1094935
-1094915
-1095302
-1094995
-1094801
-1095006
-1095054
-1095099
-1094939
-1094697
-1094861
-1095108
-1095088
-1094953
-1094822
-1094873
-1095079
-1095017
-1095129
-1094890
-1094952
-1094977
-1095016
-1095175
-1094962
-1095025
-1095151
-1095062
-1095147
-1094824
-1094909
-1095158
-1095248
-1094943
-1094771
-1095034
-1095073
-1094978
-1095171
-1094856
-1094836
-1095008
-1095080
-1095059
-1094820
-1095228
-1095307
-1095281
-1095135
-1094922
-1095023
-1095176
-1095200
-1095071
-1095016
-1095216
-1095318
-1095338
-1095132
-1094914
-1095285
-1095338
-1095072
-1095131
-1094988
-1095173
-1095218
-1095251
-1095269
-1095066
-1095220
-1095177
-1095233
-1095256
-1095058
-1095137
-1095340
-1095398
-1095161
-1095072
-1095305
-1095349
-1095279
-1095179
-1094956
-1095127
-1095324
-1095330
-1095177
-1094996
-1095298
-1095435
-1095402
-1095403
-1095198
-1095371
-1095390
-1095484
-1095170
-1095137
-1095268
-1095366
-1095334
-1095447
-1095142
-1095297
-1095588
-1095537
-1095406
-1095336
-1095425
-1095520
-1095597
-1095478
-1095282
-1095546
-1095782
-1095712
-1095702
-1095503
-1095657
-1095753
-1095729
-1095557
-1095536
-1095644
-1095680
-1095672
-1095606
-1095342
-1095400
-1095519
-1095379
-1095253
-1094923
-1095044
-1095114
-1094880
-1094498
-1094224
-1094321
-1093977
-1093925
-1093696
-1093065
-1093050
-1092743
-1092497
-1092282
-1091720
-1091673
-1091675
-1092247
-1091239
-1090798
-1090745
-1090541
-1090453
-1090098
-1089636
-1089617
-1089658
-1089546
-1089350
-1089079
-1089165
-1089037
-1088908
-1088741
-1088483
-1088598
-1088579
-1088479
-1088316
-1088207
-1088183
-1088360
-1088340
-1088265
-1087937
-1088059
-1088133
-1088150
-1088028
-1087908
-1088084
-1088171
-1088089
-1088009
-1087781
-1088103
-1088180
-1088099
-1087927
-1087919
-1088219
-1088299
-1088306
-1088153
-1087947
-1088273
-1088172
-1088338
-1088288
-1087931
-1088172
-1088186
-1088167
-1087708
-1087816
-1088118
-1088182
-1088102
-1087879
-1087730
-1088002
-1088032
-1088635
-1088059
-1087740
-1088000
-1088044
-1088007
-1087748
-1087637
-1087939
-1087901
-1087816
-1087712
-1087538
-1087708
-1087842
-1087783
-1087554
-1087446
-1087580
-1087832
-1087775
-1087604
-1087514
-1087644
-1087705
-1087798
-1087553
-1087529
-1087807
-1087731
-1087781
-1087690
-1087541
-1087730
-1087524
-1087768
-1087667
-1087396
-1088280
-1087925
-1087806
-1087462
-1087216
-1087549
-1087595
-1087524
-1087389
-1087267
-1087396
-1087410
-1087398
-1087319
-1087184
-1087205
-1087190
-1087252
-1087070
-1086400
-1086847
-1087010
-1087094
-1087065
-1086663
-1086806
-1086962
-1086925
-1086445
-1086394
-1086537
-1086679
-1086616
-1085945
-1086174
-1086428
-1086522
-1086578
-1086366
-1086128
-1086324
-1086430
-1086245
-1085836
-1085701
-1086075
-1086203
-1086226
-1086059
-1086671
-1086328
-1086201
-1085994
-1085875
-1085825
-1086090
-1086176
-1086226
-1086030
-1085746
-1086087
-1086057
-1086086
-1086200
-1085925
-1086088
-1087308
-1086737
-1086258
-1085910
-1086052
-1086207
-1086195
-1086151
-1085883
-1086899
-1087595
-1086685
-1086261
-1086021
-1086170
-1086264
-1086202
-1086312
-1086054
-1087259
-1086665
-1086561
-1086457
-1086230
-1086287
-1086354
-1086531
-1086405
-1086137
-1086364
-1086424
-1086398
-1086551
-1086288
-1086492
-1086425
-1086531
-1086566
-1086474
-1086553
-1086738
-1086713
-1086694
-1086476
-1086579
-1086705
-1086738
-1086840
-1086554
-1086721
-1086796
-1086791
-1086874
-1086618
-1086832
-1086830
-1086859
-1086915
-1086583
-1086594
-1086784
-1086997
-1086912
-1086835
-1086912
-1086851
-1087061
-1086891
-1086685
-1086832
-1087022
-1087013
-1087062
-1086803
-1087856
-1087241
-1087184
-1087029
-1086853
-1086800
-1087160
-1087140
-1087045
-1086937
-1086906
-1087071
-1087072
-1086883
-1086822
-1086856
-1087039
-1087064
-1087209
-1086871
-1086884
-1087188
-1087182
-1087188
-1086961
-1086917
-1087247
-1087364
-1087341
-1087074
-1087147
-1087295
-1087209
-1087201
-1086997
-1086946
-1087259
-1087283
-1087338
-1087062
-1087017
-1087236
-1087335
-1087342
-1087239
-1087114
-1087376
-1087362
-1087308
-1087810
-1087394
-1087390
-1087524
-1087446
-1087134
-1087133
-1087471
-1087483
-1087624
-1087244
-1087172
-1087417
-1087164
-1087472
-1087062
-1087273
-1087557
-1087726
-1088558
-1088795
-1087872
-1087754
-1087601
-1087844
-1087518
-1087389
-1087670
-1088862
-1088179
-1087645
-1087609
-1087786
-1087964
-1087965
-1087704
-1088797
-1088901
-1088255
-1088175
-1087802
-1087718
-1087986
-1088147
-1089111
-1089343
-1088210
-1088198
-1088268
-1088232
-1088092
-1087962
-1088120
-1089326
-1088588
-1088160
-1088067
-1087965
-1088197
-1088403
-1088186
-1089161
-1089300
-1088841
-1088404
-1088377
-1088257
-1088433
-1088389
-1088507
-1088404
-1088285
-1088367
-1088027
-1088317
-1088052
-1087896
-1087922
-1087966
-1087928
-1087540
-1087041
-1087168
-1087110
-1086478
-1086354
-1086039
-1086020
-1085816
-1085678
-1085210
-1084868
-1084617
-1084527
-1084453
-1084187
-1083884
-1083838
-1083714
-1083489
-1083251
-1082863
-1082954
-1082878
-1082647
-1082472
-1082176
-1082363
-1082399
-1082241
-1081985
-1081780
-1081913
-1081895
-1081731
-1081596
-1081431
-1081557
-1081594
-1081680
-1081393
-1081194
-1081389
-1081479
-1081415
-1081353
-1081094
-1081320
-1081398
-1081479
-1081405
-1081270
-1081408
-1081648
-1081523
-1081474
-1081165
-1081947
-1081686
-1081577
-1081211
-1081236
-1081521
-1081605
-1081452
-1081392
-1081309
-1081530
-1081700
-1081731
-1081621
-1081313
-1081611
-1081571
-1081698
-1081689
-1081433
-1082223
-1081948
-1081654
-1081626
-1081299
-1081557
-1081492
-1081526
-1081496
-1081332
-1081603
-1081663
-1081480
-1081565
-1081243
-1081476
-1081511
-1081486
-1081405
-1081277
-1081347
-1081485
-1082077
-1081737
-1081450
-1081615
-1081726
-1081758
-1081633
-1081528
-1082984
-1083516
-1082368
-1082067
-1081652
-1081837
-1081899
-1081841
-1082158
-1082913
-1082184
-1082097
-1081979
-1081977
-1081533
-1081723
-1081750
-1082808
-1081919
-1081513
-1081652
-1081685
-1081638
-1081323
-1081167
-1082642
-1082995
-1081825
-1081588
-1081197
-1081331
-1081356
-1081273
-1081758
-1082221
-1081508
-1081328
-1081214
-1081094
-1080668
-1080859
-1080956
-1082160
-1081220
-1080751
-1080789
-1080769
-1080753
-1080748
-1080510
-1080705
-1080616
-1080611
-1080596
-1080369
-1080560
-1080599
-1080321
-1080398
-1080136
-1080384
-1080445
-1080375
-1080451
-1080166
-1080351
-1080437
-1080549
-1080472
-1080114
-1080306
-1080508
-1080342
-1080448
-1080222
-1080497
-1080511
-1080543
-1080493
-1080192
-1080416
-1080531
-1080603
-1080655
-1080312
-1080100
-1080477
-1080636
-1080539
-1080313
-1080589
-1080728
-1080641
-1080659
-1080382
-1080649
-1080815
-1080694
-1080712
-1080502
-1080667
-1080718
-1080711
-1080778
-1080542
-1080882
-1080977
-1080795
-1080782
-1080632
-1080797
-1080955
-1080831
-1080958
-1080644
-1080913
-1081037
-1081018
-1081050
-1080727
-1080986
-1080944
-1081038
-1080958
-1080922
-1081183
-1081182
-1081014
-1081031
-1080803
-1080994
-1081112
-1081119
-1081000
-1080761
-1081158
-1081188
-1081190
-1081271
-1080923
-1081237
-1081248
-1081280
-1081230
-1080926
-1081075
-1081248
-1081261
-1081166
-1080964
-1081343
-1081440
-1081363
-1081294
-1081062
-1081229
-1081396
-1081333
-1081350
-1081135
-1081243
-1081380
-1081327
-1081473
-1081307
-1081477
-1081457
-1081448
-1082623
-1081903
-1081690
-1081617
-1081633
-1081519
-1081348
-1081320
-1082840
-1083256
-1082089
-1081502
-1081634
-1081754
-1081819
-1081743
-1081445
-1082865
-1082060
-1081925
-1081255
-1081336
-1081483
-1081666
-1081672
-1082816
-1081990
-1081824
-1081738
-1081685
-1081672
-1081358
-1081696
-1082942
-1083209
-1082107
-1081664
-1081893
-1081828
-1081699
-1081740
-1081543
-1082981
-1082201
-1081809
-1081717
-1081299
-1081807
-1081858
-1081942
-1081810
-1081560
-1081848
-1081911
-1081975
-1081820
-1082111
-1082043
-1081904
-1082002
-1081943
-1081921
-1081964
-1082215
-1082083
-1081997
-1082186
-1082191
-1082251
-1082146
-1081975
-1082016
-1082176
-1082242
-1082280
-1082096
-1082294
-1082521
-1083203
-1082630
-1082294
-1082522
-1082503
-1082568
-1082603
-1082299
-1082500
-1082680
-1082539
-1082503
-1082357
-1082679
-1082812
-1082663
-1082384
-1082460
-1082730
-1082690
-1082621
-1082471
-1082237
-1082474
-1082236
-1082114
-1081951
-1081616
-1081610
-1081463
-1081451
-1080987
-1080639
-1080645
-1080627
-1080187
-1079961
-1079562
-1079573
-1079519
-1079094
-1078873
-1078445
-1078517
-1078385
-1078172
-1077983
-1077710
-1077679
-1077583
-1076951
-1077110
-1076793
-1076956
-1076868
-1076862
-1076573
-1076374
-1076495
-1076493
-1076462
-1076400
-1076071
-1076105
-1076103
-1076167
-1076128
-1075966
-1076149
-1076146
-1076203
-1075970
-1075877
-1076084
-1076235
-1076210
-1076025
-1075852
-1076188
-1076257
-1076308
-1076192
-1075863
-1076172
-1076260
-1077025
-1076477
-1076075
-1076279
-1077485
-1076739
-1076609
-1076264
-1076347
-1076498
-1076499
-1076414
-1077310
-1077502
-1076594
-1076640
-1076342
-1076201
-1076439
-1076630
-1077555
-1077999
-1076639
-1076751
-1076686
-1076726
-1076601
-1076917
-1076579
-1077810
-1076802
-1076697
-1076500
-1076602
-1076764
-1076641
-1076562
-1077585
-1077650
-1076903
-1076756
-1076604
-1076449
-1076614
-1076824
-1077902
-1078374
-1076991
-1076981
-1076860
-1076924
-1076681
-1076582
-1076876
-1076894
-1076798
-1076793
-1076473
-1076751
-1076826
-1076921
-1076583
-1076477
-1076696
-1076751
-1076773
-1076630
-1076407
-1076604
-1076538
-1076649
-1076428
-1076106
-1076278
-1076270
-1076008
-1076067
-1076041
-1076122
-1076207
-1076307
-1076154
-1075887
-1075982
-1075991
-1075905
-1075643
-1075578
-1075758
-1075750
-1075713
-1075495
-1075269
-1075595
-1075691
-1075563
-1075361
-1075293
-1075349
-1075301
-1075375
-1075281
-1075029
-1075222
-1075341
-1075297
-1075121
-1074973
-1075325
-1075182
-1075341
-1075108
-1074940
-1075214
-1075362
-1075401
-1075169
-1074941
-1075254
-1075263
-1075278
-1075087
-1074897
-1075145
-1074964
-1075217
-1075205
-1075040
-1075246
-1076365
-1075649
-1075266
-1075129
-1075374
-1075392
-1075464
-1075395
-1075125
-1075320
-1075467
-1075509
-1075597
-1075295
-1075463
-1075560
-1075715
-1075440
-1075374
-1075551
-1075558
-1075639
-1075495
-1075435
-1075698
-1075745
-1075862
-1075613
-1075487
-1075763
-1075679
-1075747
-1075740
-1075606
-1075785
-1075825
-1075846
-1075783
-1075572
-1075695
-1075901
-1075863
-1075906
-1075594
-1075888
-1076029
-1076033
-1075966
-1075805
-1075881
-1076027
-1076117
-1076077
-1075744
-1075985
-1076111
-1076184
-1076090
-1075939
-1076064
-1075940
-1076085
-1076176
-1075996
-1076094
-1076148
-1076194
-1076307
-1076069
-1076174
-1076243
-1076296
-1076365
-1076116
-1076294
-1076331
-1076491
-1076484
-1076160
-1076189
-1076328
-1076480
-1076276
-1076105
-1076266
-1076406
-1076522
-1076330
-1076263
-1076275
-1076291
-1076571
-1076439
-1076143
-1076256
-1076823
-1076729
-1076566
-1076322
-1076418
-1076664
-1076651
-1076594
-1077608
-1076772
-1076739
-1076606
-1076484
-1076331
-1076030
-1076514
-1077847
-1077125
-1076579
-1076567
-1076708
-1076879
-1076704
-1076475
-1077795
-1078354
-1077404
-1077050
-1076609
-1076703
-1076577
-1076926
-1076822
-1077923
-1077136
-1076969
-1077072
-1076985
-1076744
-1076904
-1077026
-1078166
-1077352
-1076998
-1076941
-1077199
-1077306
-1077254
-1076918
-1078190
-1078769
-1077736
-1077373
-1076993
-1077065
-1077152
-1077193
-1077397
-1077021
-1077077
-1077110
-1077129
-1077189
-1076874
-1076707
-1076903
-1076788
-1076724
-1076333
-1076159
-1076209
-1076110
-1075818
-1075575
-1075233
-1075225
-1075164
-1074993
-1074379
-1074249
-1074180
-1074116
-1073947
-1073473
-1073070
-1073058
-1072958
-1072918
-1072552
-1072124
-1073159
-1072384
-1072167
-1071740
-1071419
-1071552
-1071375
-1071369
-1071038
-1070880
-1071098
-1071030
-1070912
-1070577
-1070486
-1070784
-1070852
-1070839
-1070530
-1070316
-1070621
-1070721
-1070671
-1070505
-1070296
-1071167
-1070789
-1070684
-1070605
-1070433
-1070666
-1070696
-1070762
-1070622
-1070532
-1070780
-1070853
-1070814
-1070746
-1070685
-1070975
-1070866
-1070952
-1070717
-1070565
-1070821
-1070896
-1070872
-1070785
-1070652
-1070947
-1071056
-1071082
-1070898
-1070736
-1071115
-1071180
-1071242
-1070997
-1070896
-1070992
-1071125
-1071133
-1070936
-1070694
-1071052
-1071120
-1071217
-1070986
-1070683
-1071093
-1071130
-1071164
-1070992
-1070971
-1071123
-1071135
-1071116
-1071243
-1070964
-1071179
-1071391
-1071465
-1071200
-1070956
-1071335
-1071320
-1071415
-1071350
-1071135
-1071388
-1071448
-1071407
-1071273
-1071134
-1071414
-1071449
-1071454
-1071300
-1071173
-1071457
-1071446
-1071398
-1071261
-1071091
-1071296
-1071401
-1071263
-1071163
-1071010
-1071068
-1071207
-1071058
-1070931
-1070747
-1070911
-1071035
-1070939
-1070763
-1070599
-1070759
-1070711
-1070608
-1070604
-1070258
-1070451
-1070522
-1070445
-1070454
-1070291
-1070446
-1070416
-1070317
-1070324
-1070116
-1070188
-1070204
-1070315
-1070155
-1069767
-1070033
-1070273
-1070118
-1070010
-1069882
-1070798
-1071484
-1070480
-1070184
-1069847
-1070044
-1070082
-1070061
-1069966
-1070957
-1070452
-1070264
-1070119
-1070225
-1069895
-1070101
-1070128
-1071447
-1071179
-1070195
-1070300
-1070281
-1070318
-1070281
-1070093
-1071496
-1071960
-1070787
-1070609
-1070218
-1070528
-1070578
-1070584
-1070589
-1071557
-1071001
-1070767
-1070626
-1070779
-1070480
-1070789
-1070894
-1072180
-1071688
-1070830
-1070765
-1070985
-1070913
-1071022
-1070748
-1071734
-1072193
-1071447
-1071209
-1070791
-1071006
-1071160
-1071222
-1071218
-1071041
-1071273
-1071266
-1071369
-1071456
-1071109
-1071322
-1071470
-1071461
-1071418
-1071254
-1071510
-1071600
-1071527
-1071578
-1071435
-1071720
-1071765
-1071825
-1071879
-1071512
-1071824
-1071880
-1071966
-1071793
-1071557
-1071857
-1072017
-1071659
-1071986
-1071795
-1071934
-1072080
-1072030
-1072543
-1072066
-1072159
-1072088
-1072166
-1072247
-1072136
-1072204
-1073578
-1072780
-1072534
-1072164
-1072246
-1072372
-1072533
-1072868
-1073225
-1072732
-1072613
-1072559
-1072452
-1072254
-1072455
-1072602
-1072533
-1072981
-1072318
-1072415
-1072678
-1072538
-1072410
-1072238
-1072575
-1073617
-1072806
-1072537
-1072370
-1072721
-1072686
-1072795
-1072774
-1072673
-1072727
-1072869
-1072778
-1072680
-1072427
-1072652
-1072864
-1073755
-1073511
-1072726
-1072904
-1072971
-1072915
-1072741
-1072657
-1072787
-1074126
-1073302
-1073226
-1072823
-1073152
-1073142
-1073234
-1073263
-1072915
-1073055
-1073241
-1073180
-1073254
-1073054
-1073111
-1073365
-1073209
-1073409
-1073055
-1073218
-1073466
-1074212
-1073580
-1073245
-1073387
-1073458
-1073619
-1073563
-1073278
-1073535
-1073576
-1073563
-1073653
-1073371
-1073464
-1073584
-1073455
-1073436
-1073152
-1073229
-1073189
-1072879
-1072692
-1072317
-1072209
-1072367
-1072148
-1071549
-1071341
-1071294
-1071117
-1070957
-1070831
-1070238
-1070113
-1070063
-1069816
-1069650
-1069173
-1068986
-1069003
-1068705
-1068720
-1068269
-1068287
-1068373
-1068160
-1067991
-1067665
-1067785
-1067819
-1067688
-1067636
-1067212
-1067465
-1067329
-1067276
-1067290
-1067030
-1067198
-1067162
-1067171
-1067129
-1066931
-1067110
-1067215
-1066948
-1066975
-1066871
-1067214
-1067180
-1067210
-1067075
-1066948
-1067146
-1067368
-1067216
-1067304
-1067177
-1067255
-1067306
-1067243
-1067321
-1067095
-1067365
-1067526
-1067706
-1067461
-1067214
-1067634
-1067627
-1067682
-1067688
-1067459
-1067727
-1067776
-1067520
-1067707
-1067543
-1067658
-1067700
-1067760
-1067820
-1067517
-1067789
-1067737
-1067643
-1067777
-1067512
-1067713
-1067832
-1067881
-1067659
-1067555
-1067825
-1067819
-1067857
-1067834
-1067577
-1067836
-1067881
-1067937
-1067880
-1067660
-1067973
-1068146
-1068225
-1068086
-1067883
-1068062
-1068214
-1068287
-1068233
-1068089
-1068330
-1068411
-1068355
-1068255
-1068037
-1068190
-1068388
-1068460
-1068339
-1068112
-1068412
-1068447
-1068305
-1068177
-1067921
-1068148
-1068280
-1068226
-1067991
-1067648
-1067924
-1068033
-1068198
-1067989
-1067724
-1067793
-1067859
-1067887
-1067830
-1067639
-1067703
-1067776
-1067815
-1067580
-1067473
-1067539
-1067676
-1067570
-1067507
-1067311
-1067502
-1067414
-1067577
-1067351
-1067164
-1067312
-1067401
-1067453
-1067289
-1067075
-1067403
-1067440
-1067373
-1067199
-1067026
-1067242
-1067357
-1067494
-1067404
-1066724
-1067251
-1067349
-1067530
-1067310
-1067134
-1067313
-1067407
-1067391
-1067465
-1067280
-1067504
-1067547
-1067524
-1067468
-1067376
-1067324
-1067322
-1067647
-1067544
-1067504
-1067502
-1067740
-1067709
-1067159
-1067310
-1067824
-1067917
-1067967
-1067808
-1067656
-1068006
-1068030
-1068090
-1067994
-1067781
-1067991
-1068238
-1068279
-1068075
-1067856
-1068239
-1068276
-1068373
-1068178
-1068066
-1068415
-1068398
-1068287
-1068314
-1068237
-1068474
-1068459
-1068546
-1068614
-1068235
-1068628
-1068634
-1068293
-1068480
-1068386
-1068481
-1068621
-1068791
-1068698
-1068457
-1068729
-1068818
-1068937
-1068851
-1068710
-1068993
-1068909
-1068994
-1068855
-1068693
-1068940
-1069173
-1069181
-1069189
-1068907
-1069065
-1069245
-1069330
-1069019
-1068843
-1069147
-1069225
-1069312
-1069077
-1068977
-1069238
-1069294
-1069450
-1069384
-1069117
-1069218
-1069346
-1069465
-1069368
-1069194
-1069415
-1069589
-1069637
-1069591
-1069334
-1069536
-1069726
-1069779
-1069757
-1069491
-1069695
-1069808
-1069806
-1069833
-1069535
-1069750
-1069845
-1069943
-1069925
-1069810
-1070042
-1070149
-1070045
-1070014
-1069797
-1069979
-1070196
-1070236
-1070084
-1070001
-1070208
-1070276
-1070266
-1070147
-1070087
-1070229
-1070231
-1070494
-1070419
-1070257
-1070382
-1070530
-1070541
-1070521
-1070366
-1070552
-1070760
-1070683
-1070698
-1070584
-1070798
-1070896
-1071015
-1070971
-1070657
-1070755
-1070897
-1070839
-1070879
-1070762
-1070715
-1070847
-1070750
-1070340
-1070471
-1070592
-1070555
-1070328
-1069824
-1069911
-1069964
-1069777
-1069542
-1069059
-1068970
-1068897
-1068803
-1068361
-1068062
-1068010
-1068008
-1067883
-1067643
-1067197
-1067132
-1067082
-1066973
-1066929
-1066563
-1066501
-1066458
-1066335
-1066187
-1065971
-1066890
-1066224
-1066130
-1066009
-1065745
-1065696
-1065741
-1065847
-1065783
-1065410
-1065368
-1065613
-1065607
-1065427
-1065343
-1065442
-1065600
-1065664
-1065828
-1065486
-1065437
-1065625
-1065723
-1065832
-1065595
-1065611
-1065884
-1066033
-1065976
-1065810
-1065811
-1066079
-1066187
-1066162
-1065946
-1065920
-1066209
-1066343
-1066301
-1066155
-1066225
-1066664
-1066501
-1066508
-1066713
-1066673
-1066835
-1066737
-1066688
-1066774
-1066877
-1066845
-1066673
-1066589
-1066821
-1067009
-1067028
-1066869
-1066847
-1066956
-1067086
-1067158
-1067261
-1067022
-1067222
-1067440
-1067475
-1067389
-1067261
-1067556
-1067703
-1067473
-1067390
-1067106
-1067523
-1067727
-1067670
-1067511
-1067442
-1067713
-1067854
-1067844
-1067600
-1067534
-1067828
-1067869
-1067891
-1067747
-1067527
-1067617
-1067703
-1067805
-1067462
-1067416
-1067573
-1067594
-1067525
-1067369
-1067214
-1067554
-1067503
-1067467
-1067357
-1067131
-1067399
-1067536
-1067527
-1067277
-1067058
-1067191
-1067313
-1067240
-1066964
-1066707
-1067101
-1067225
-1067033
-1066925
-1066875
-1066998
-1067128
-1066903
-1066723
-1066496
-1066959
-1066958
-1066954
-1066794
-1066572
-1066890
-1067067
-1066970
-1066787
-1066580
-1066919
-1067082
-1067055
-1067012
-1066851
-1067051
-1067142
-1067042
-1066933
-1066842
-1067134
-1067169
-1067171
-1067117
-1066943
-1067238
-1067369
-1067234
-1067288
-1067144
-1067371
-1067525
-1067546
-1067474
-1067307
-1067630
-1067733
-1067640
-1067540
-1067426
-1067674
-1067797
-1067816
-1067765
-1067675
-1067945
-1067955
-1067844
-1067921
-1067734
-1068034
-1068021
-1068007
-1067936
-1067774
-1068059
-1068240
-1068191
-1068014
-1067478
-1067913
-1068090
-1068262
-1068364
-1068068
-1068324
-1068443
-1068349
-1068310
-1068224
-1068395
-1068453
-1068625
-1068532
-1068277
-1068484
-1068614
-1068495
-1068411
-1068201
-1068519
-1068543
-1068710
-1068463
-1068337
-1068586
-1068726
-1068773
-1068748
-1068454
-1068684
-1068826
-1068785
-1068753
-1068480
-1068724
-1068860
-1068823
-1068876
-1068610
-1068859
-1068876
-1069042
-1068869
-1068714
-1068972
-1069172
-1069122
-1069176
-1068747
-1068963
-1069090
-1069082
-1069193
-1069008
-1069128
-1069231
-1069279
-1069183
-1069046
-1069267
-1069360
-1069463
-1069383
-1069064
-1069478
-1069484
-1069568
-1069503
-1069797
-1069631
-1069649
-1069514
-1069519
-1069379
-1069535
-1069673
-1069687
-1069695
-1069450
-1069678
-1069763
-1069900
-1069874
-1069632
-1069942
-1070010
-1069837
-1069913
-1069572
-1069856
-1069830
-1069875
-1069838
-1069519
-1069587
-1069683
-1069461
-1069321
-1069075
-1069127
-1069110
-1068973
-1068802
-1068373
-1068399
-1068338
-1068240
-1068166
-1067627
-1067732
-1067620
-1067589
-1067381
-1066816
-1066902
-1066871
-1066782
-1066603
-1066225
-1066259
-1066333
-1066030
-1066106
-1065695
-1065732
-1065767
-1065663
-1065729
-1065403
-1065411
-1065622
-1065498
-1065439
-1065220
-1065513
-1065358
-1065389
-1065110
-1065168
-1065271
-1065328
-1065335
-1065184
-1065435
-1065479
-1065400
-1065664
-1065257
-1065458
-1065606
-1065501
-1065815
-1065503
-1065642
-1065851
-1065787
-1066351
-1065492
-1065719
-1065981
-1065902
-1065997
-1065856
-1066054
-1066173
-1066211
-1066192
-1066004
-1066196
-1066313
-1066182
-1066450
-1066178
-1066281
-1066433
-1066452
-1066277
-1066870
-1066482
-1066604
-1066721
-1066724
-1066596
-1066703
-1066908
-1066892
-1066933
-1066722
-1066725
-1067013
-1067083
-1067225
-1066966
-1067017
-1067176
-1067276
-1067264
-1066938
-1067079
-1067253
-1067319
-1067296
-1067125
-1067285
-1067468
-1067317
-1067526
-1067194
-1067264
-1067406
-1067320
-1067229
-1067090
-1067253
-1067331
-1067342
-1067290
-1066960
-1067006
-1067972
-1067328
-1067222
-1067584
-1067286
-1067152
-1067205
-1066916
-1066565
-1066742
-1066944
-1066863
-1066844
-1066534
-1066651
-1066823
-1066868
-1066566
-1066448
-1066487
-1066563
-1066630
-1066668
-1066317
-1066534
-1066937
-1066577
-1066501
-1066317
-1066485
-1066652
-1066595
-1066582
-1066375
-1066534
-1066620
-1066547
-1066602
-1066333
-1066516
-1066549
-1066665
-1066603
-1066447
-1066704
-1066819
-1066618
-1066565
-1066359
-1066566
-1066652
-1066604
-1066664
-1066562
-1066765
-1066930
-1066980
-1066771
-1066669
-1066877
-1067029
-1067140
-1066972
-1066741
-1066952
-1067153
-1067137
-1067205
-1066974
-1067322
-1067386
-1067271
-1067188
-1067100
-1067383
-1067322
-1067431
-1067469
-1067291
-1067350
-1067492
-1067666
-1067442
-1067389
-1067642
-1067813
-1067859
-1067640
-1067413
-1067595
-1067848
-1067774
-1067724
-1067540
-1067881
-1067930
-1068012
-1067886
-1067813
-1068011
-1068054
-1068057
-1068006
-1067742
-1068097
-1068186
-1068274
-1068113
-1067836
-1068233
-1068232
-1068090
-1068099
-1067977
-1068102
-1068302
-1068255
-1068093
-1067972
-1068348
-1068374
-1068445
-1068292
-1068123
-1068291
-1068464
-1068331
-1068327
-1068279
-1068590
-1068559
-1068610
-1068375
-1068767
-1068635
-1068642
-1068560
-1068482
-1068671
-1068869
-1068848
-1068854
-1068703
-1069019
-1068970
-1068958
-1068854
-1068715
-1069102
-1068992
-1069011
-1068903
-1068848
-1069065
-1069293
-1069204
-1069058
-1069183
-1069395
-1069471
-1069350
-1069210
-1069481
-1069479
-1069445
-1069278
-1069158
-1069404
-1069483
-1069435
-1069441
-1069031
-1069086
-1069226
-1069158
-1068882
-1068541
-1068660
-1068541
-1068425
-1068127
-1067734
-1067695
-1067692
-1067507
-1067131
-1066615
-1066657
-1066497
-1066326
-1066102
-1065624
-1065633
-1065537
-1065493
-1065231
-1064722
-1064929
-1064694
-1064558
-1064440
-1064099
-1064258
-1064099
-1064127
-1063898
-1063531
-1063698
-1063679
-1063617
-1063533
-1063382
-1063386
-1063609
-1063404
-1063093
-1063288
-1063291
-1063135
-1063175
-1063001
-1063263
-1063472
-1063612
-1063374
-1063133
-1063398
-1063562
-1063602
-1063549
-1063360
-1063648
-1063708
-1063695
-1063588
-1063433
-1063597
-1063869
-1063955
-1063819
-1063773
-1063855
-1064038
-1064052
-1063988
-1063776
-1064024
-1064115
-1064245
-1064181
-1063916
-1064098
-1064309
-1064274
-1064172
-1064035
-1064189
-1064179
-1064250
-1064329
-1064144
-1064321
-1064424
-1064334
-1064260
-1064111
-1064262
-1064474
-1064445
-1064348
-1064219
-1064372
-1064536
-1064704
-1064575
-1064356
-1064588
-1064660
-1064755
-1064759
-1064470
-1064586
-1064692
-1064883
-1064672
-1064561
-1064682
-1064747
-1064787
-1064756
-1064530
-1064689
-1064851
-1064891
-1064865
-1064570
-1064591
-1064727
-1064641
-1064616
-1064569
-1064515
-1064277
-1064540
-1064406
-1064233
-1064240
-1064417
-1064414
-1064392
-1064099
-1064076
-1064235
-1064260
-1064220
-1063955
-1063902
-1064029
-1063785
-1063988
-1063869
-1063814
-1063963
-1064058
-1063920
-1063575
-1063647
-1063753
-1063905
-1063929
-1063715
-1063753
-1063945
-1063908
-1063923
-1063564
-1063622
-1063691
-1063841
-1063848
-1063556
-1063591
-1063765
-1063755
-1063806
-1063535
-1063553
-1063782
-1063790
-1063742
-1063485
-1063665
-1063792
-1063765
-1063933
-1063621
-1063326
-1063910
-1063934
-1064023
-1063856
-1063848
-1064026
-1064104
-1064203
-1064009
-1063933
-1064058
-1064126
-1064171
-1063963
-1063911
-1064167
-1064290
-1064273
-1063980
-1063860
-1064287
-1064447
-1064110
-1064086
-1064136
-1064265
-1064311
-1064438
-1064352
-1064243
-1064455
-1064441
-1064473
-1064312
-1064296
-1064502
-1064544
-1064666
-1064466
-1064338
-1064628
-1064653
-1064655
-1064500
-1064353
-1064684
-1064721
-1064953
-1064674
-1064553
-1064757
-1064857
-1064837
-1064725
-1064593
-1064727
-1064853
-1064953
-1064781
-1064722
-1065104
-1065064
-1065094
-1065055
-1064922
-1065087
-1065130
-1065170
-1065076
-1064927
-1065096
-1065278
-1065264
-1065229
-1064963
-1065318
-1065304
-1065463
-1065253
-1065032
-1065200
-1065373
-1065385
-1065195
-1065137
-1065529
-1065422
-1065628
-1065435
-1065183
-1065549
-1065679
-1065786
-1065570
-1065465
-1065531
-1065717
-1065778
-1065712
-1065402
-1065796
-1065908
-1065946
-1065690
-1065530
-1065879
-1065939
-1065874
-1065724
-1065275
-1065801
-1065912
-1065958
-1065980
-1065748
-1065998
-1066088
-1066204
-1066044
-1065679
-1065969
-1065916
-1066087
-1065828
-1065617
-1065736
-1065650
-1065460
-1065264
-1065014
-1065013
-1064823
-1064501
-1064327
-1063854
-1064032
-1063745
-1063466
-1063247
-1062815
-1062669
-1062530
-1062403
-1062031
-1061653
-1061693
-1061565
-1061321
-1060692
-1060419
-1060545
-1060546
-1060215
-1061092
-1060020
-1060041
-1059840
-1059823
-1059559
-1059172
-1059336
-1059368
-1059423
-1059107
-1058839
-1059001
-1059014
-1058993
-1058867
-1058506
-1058650
-1058753
-1058770
-1058741
-1058548
-1058770
-1058808
-1058621
-1058626
-1058496
-1058628
-1058898
-1058830
-1058894
-1058670
-1058851
-1058882
-1058909
-1058854
-1058635
-1058892
-1059026
-1058855
-1059457
-1058737
-1059079
-1059052
-1059004
-1059006
-1058801
-1059120
-1059664
-1059292
-1059172
-1058868
-1059108
-1058978
-1058930
-1058665
-1058899
-1059052
-1059008
-1059118
-1058793
-1059025
-1059070
-1058970
-1059054
-1058748
-1058919
-1059012
-1058955
-1058958
-1058636
-1058940
-1059014
-1058853
-1058558
-1058453
-1058822
-1058819
-1058748
-1058872
-1058562
-1058797
-1058912
-1058893
-1058960
-1058617
-1058978
-1059045
-1059492
-1059252
-1058819
-1059021
-1059193
-1059145
-1059172
-1058791
-1058891
-1059053
-1059056
-1058938
-1058770
-1059005
-1059133
-1059118
-1059190
-1058799
-1059021
-1059011
-1059122
-1059081
-1058759
-1059045
-1059159
-1058994
-1058968
-1058725
-1058824
-1059021
-1058949
-1058881
-1058638
-1058781
-1058831
-1058696
-1058856
-1058472
-1058594
-1058679
-1058586
-1058521
-1058465
-1058603
-1058625
-1058593
-1059473
-1058550
-1058696
-1058630
-1058617
-1058622
-1058424
-1058501
-1058464
-1058519
-1058516
-1058299
-1058350
-1058448
-1058536
-1058452
-1058259
-1058460
-1058507
-1058428
-1058586
-1058332
-1058391
-1058518
-1058500
-1058531
-1058355
-1058545
-1058672
-1058707
-1058552
-1058408
-1058580
-1058717
-1058711
-1058672
-1058404
-1058612
-1058837
-1058766
-1058871
-1058646
-1058794
-1058776
-1058921
-1058862
-1058737
-1058773
-1059014
-1059001
-1059042
-1058404
-1059002
-1059164
-1059074
-1059080
-1058817
-1058943
-1059036
-1058974
-1059129
-1058811
-1059069
-1059250
-1059197
-1059257
-1058920
-1059261
-1059304
-1059203
-1059220
-1059082
-1059380
-1059451
-1059461
-1059391
-1059195
-1059345
-1059559
-1059520
-1059674
-1059332
-1059404
-1059653
-1059687
-1059606
-1059293
-1059786
-1059814
-1059678
-1059812
-1059485
-1059672
-1059854
-1059965
-1059815
-1059557
-1059720
-1059897
-1059964
-1059786
-1059676
-1059988
-1059947
-1060013
-1060127
-1059878
-1060119
-1060169
-1060132
-1060131
-1060062
-1060224
-1060343
-1060361
-1060336
-1060195
-1060373
-1060478
-1060495
-1060489
-1060232
-1060411
-1060490
-1060658
-1060431
-1060321
-1060513
-1060600
-1060618
-1060611
-1060532
-1060560
-1060656
-1060861
-1060796
-1060548
-1060645
-1060826
-1060989
-1060845
-1060635
-1060771
-1061050
-1060695
-1060984
-1060737
-1060874
-1061053
-1061220
-1061006
-1060829
-1060995
-1061071
-1061177
-1061076
-1060993
-1061226
-1061278
-1061369
-1061255
-1061012
-1061125
-1061278
-1061447
-1061311
-1061109
-1061188
-1061414
-1061430
-1061190
-1060801
-1061075
-1060922
-1060724
-1060592
-1060188
-1060142
-1060060
-1059882
-1059543
-1059089
-1059117
-1058999
-1058686
-1058400
-1057991
-1057928
-1057747
-1057491
-1057024
-1056609
-1056690
-1056602
-1056378
-1056157
-1055785
-1055615
-1055562
-1055472
-1055449
-1055019
-1055119
-1054901
-1054873
-1054643
-1054304
-1054459
-1054517
-1054492
-1054291
-1054112
-1054396
-1054321
-1054221
-1054131
-1053763
-1054247
-1053979
-1053839
-1053944
-1053758
-1053954
-1053961
-1054163
-1054140
-1054048
-1054202
-1054299
-1054193
-1053940
-1054308
-1054274
-1054386
-1054277
-1053728
-1054270
-1054438
-1054343
-1054196
-1054156
-1054488
-1054409
-1054472
-1054288
-1054168
-1054496
-1054588
-1054517
-1054421
-1054150
-1054459
-1054462
-1054559
-1054581
-1054312
-1054272
-1054565
-1054566
-1054361
-1054264
-1054312
-1054421
-1054517
-1054443
-1054168
-1054334
-1054434
-1054510
-1054311
-1054181
-1054229
-1054291
-1054272
-1054300
-1053933
-1054037
-1054101
-1054074
-1053806
-1053607
-1053802
-1053990
-1054095
-1054108
-1053835
-1054083
-1054176
-1054121
-1053948
-1053910
-1054016
-1054030
-1053997
-1054011
-1053880
-1054037
-1054049
-1054135
-1054072
-1053919
-1054101
-1054163
-1054186
-1054141
-1053936
-1054175
-1054302
-1054241
-1054148
-1054604
-1054335
-1054173
-1054132
-1054113
-1053849
-1054856
-1054426
-1054147
-1053755
-1053801
-1053969
-1054624
-1054361
-1054111
-1053868
-1053912
-1054005
-1054136
-1053824
-1053500
-1053960
-1054151
-1054189
-1053991
-1053791
-1054110
-1054166
-1054189
-1053999
-1053892
-1053950
-1054105
-1054258
-1054090
-1053834
-1054030
-1054067
-1054412
-1054214
-1053937
-1054141
-1054245
-1054285
-1054184
-1054035
-1054184
-1054216
-1054203
-1054127
-1053981
-1054194
-1054419
-1054366
-1054379
-1054109
-1054151
-1054407
-1054401
-1054302
-1054246
-1054432
-1054552
-1054620
-1054731
-1054391
-1054532
-1054701
-1054617
-1054576
-1054352
-1054547
-1054695
-1054773
-1054915
-1054745
-1054860
-1054913
-1054982
-1055072
-1054788
-1054992
-1055184
-1055226
-1055205
-1054692
-1055027
-1055166
-1055265
-1055394
-1055084
-1055196
-1055400
-1055482
-1055505
-1055293
-1055309
-1055598
-1055675
-1055430
-1055373
-1055534
-1055757
-1055635
-1055551
-1055624
-1055840
-1055931
-1055788
-1055674
-1055656
-1055848
-1055903
-1055863
-1055441
-1055727
-1056005
-1056095
-1056165
-1055999
-1056076
-1056294
-1056241
-1056310
-1056114
-1055992
-1056061
-1056237
-1056501
-1056233
-1055904
-1056062
-1056488
-1056655
-1056357
-1056308
-1056505
-1056702
-1056682
-1056431
-1056351
-1056698
-1056687
-1056540
-1056525
-1056535
-1056847
-1056934
-1056841
-1056610
-1056533
-1056895
-1057038
-1056881
-1056819
-1056755
-1057021
-1057041
-1057061
-1056917
-1056810
-1057014
-1057023
-1057211
-1057041
-1057043
-1057319
-1057295
-1057451
-1057214
-1056984
-1057370
-1057488
-1057446
-1057258
-1057325
-1057393
-1057542
-1057659
-1057500
-1057300
-1057667
-1057714
-1057769
-1057559
-1057093
-1057578
-1057761
-1057936
-1057728
-1057629
-1058430
-1058180
-1058041
-1057919
-1057852
-1057760
-1058109
-1058200
-1058041
-1057742
-1058261
-1058398
-1058507
-1058308
-1058177
-1058422
-1058485
-1058463
-1058269
-1058062
-1058203
-1058405
-1058289
-1058187
-1057835
-1058169
-1058918
-1058167
-1057664
-1057234
-1057313
-1057260
-1057046
-1056720
-1056352
-1056310
-1056220
-1055874
-1055612
-1055179
-1055082
-1055817
-1055128
-1054455
-1054082
-1054061
-1053959
-1053798
-1053161
-1052983
-1053191
-1053033
-1052931
-1052709
-1052302
-1052576
-1052507
-1052343
-1052082
-1051720
-1051992
-1051876
-1051906
-1051798
-1051445
-1051634
-1051647
-1051673
-1051523
-1051227
-1051467
-1051565
-1051669
-1051635
-1051372
-1051814
-1052281
-1051956
-1051623
-1051601
-1051724
-1051976
-1052069
-1051921
-1051710
-1052040
-1052161
-1052079
-1051871
-1051665
-1052007
-1052107
-1052167
-1052231
-1051951
-1052196
-1052347
-1052341
-1052200
-1051968
-1052323
-1052359
-1052357
-1052146
-1052450
-1052421
-1052384
-1052371
-1052101
-1052287
-1052281
-1052422
-1052341
-1052181
-1052441
-1052398
-1052416
-1052250
-1052071
-1052297
-1052330
-1052384
-1052382
-1051994
-1052236
-1052265
-1052162
-1052377
-1052118
-1052273
-1052449
-1052551
-1052319
-1052058
-1052508
-1052510
-1052615
-1052530
-1052219
-1052498
-1052661
-1052478
-1052625
-1052436
-1052599
-1052636
-1052662
-1052793
-1052519
-1052430
-1052606
-1052574
-1052843
-1052485
-1052650
-1052710
-1052812
-1052701
-1052422
-1052761
-1052827
-1052834
-1052836
-1052639
-1053347
-1052929
-1052890
-1052734
-1052537
-1052636
-1052617
-1052749
-1052588
-1052384
-1052612
-1052655
-1052621
-1052716
-1052445
-1052660
-1052716
-1052604
-1052583
-1052286
-1052633
-1052606
-1052595
-1052773
-1052284
-1052506
-1052711
-1052756
-1052656
-1052382
-1052572
-1052638
-1052693
-1052671
-1052095
-1052458
-1052658
-1052295
-1052773
-1052508
-1052790
-1052826
-1052744
-1052909
-1052480
-1052699
-1052814
-1052794
-1052951
-1052688
-1052917
-1052980
-1053015
-1052953
-1052660
-1053092
-1053143
-1053150
-1053199
-1052933
-1053057
-1053223
-1053236
-1053161
-1053125
-1053243
-1053500
-1053479
-1053373
-1053247
-1053599
-1053707
-1053662
-1053689
-1053291
-1053592
-1053792
-1053747
-1053954
-1053650
-1053959
-1054062
-1054198
-1054150
-1053896
-1054147
-1054261
-1054281
-1054193
-1054062
-1054449
-1054485
-1054519
-1054470
-1054302
-1054409
-1054668
-1054667
-1054726
-1054537
-1054691
-1054899
-1054985
-1055546
-1054919
-1054959
-1055057
-1055114
-1054992
-1054708
-1055080
-1055101
-1055115
-1055098
-1054911
-1055245
-1055377
-1055286
-1055302
-1055040
-1055330
-1055435
-1055505
-1055432
-1055090
-1055398
-1055371
-1055459
-1055444
-1055166
-1055432
-1055530
-1055575
-1055493
-1055315
-1055528
-1055619
-1055748
-1055632
-1055686
-1055859
-1055794
-1055722
-1055749
-1055596
-1055723
-1055882
-1055799
-1055900
-1055782
-1055929
-1056163
-1056217
-1056232
-1055983
-1056173
-1056221
-1056277
-1056230
-1056104
-1056439
-1056533
-1056504
-1056381
-1056229
-1056515
-1056419
-1056597
-1056481
-1056386
-1056546
-1056819
-1056877
-1056818
-1056548
-1056890
-1056776
-1057049
-1057063
-1056760
-1057155
-1057252
-1057181
-1057127
-1056948
-1057203
-1057321
-1057398
-1057249
-1057058
-1057014
-1057266
-1057334
-1057304
-1056985
-1057290
-1057296
-1057260
-1057139
-1056894
-1056976
-1057005
-1056888
-1056626
-1056346
-1056034
-1056117
-1056149
-1055760
-1055305
-1055380
-1055338
-1055146
-1054863
-1054498
-1054268
-1054265
-1053968
-1053886
-1053368
-1053071
-1053214
-1053032
-1052741
-1052514
-1052683
-1052583
-1052462
-1052267
-1051972
-1052057
-1052099
-1052020
-1051835
-1051587
-1051911
-1051894
-1051875
-1051886
-1051498
-1051689
-1052624
-1051996
-1051740
-1051398
-1051699
-1051904
-1051947
-1051926
-1051800
-1051913
-1051959
-1052079
-1052054
-1052839
-1052222
-1052214
-1052299
-1052225
-1052659
-1052583
-1052478
-1052446
-1052312
-1052170
-1052420
-1052497
-1052665
-1052599
-1052352
-1052491
-1052589
-1052747
-1052538
-1052476
-1052851
-1052954
-1053012
-1052745
-1052676
-1052974
-1053070
-1053148
-1052975
-1052781
-1052878
-1053122
-1053257
-1053058
-1052855
-1053132
-1053152
-1053212
-1053146
-1053048
-1053182
-1053145
-1053202
-1053068
-1052899
-1053326
-1053407
-1053336
-1053319
-1053174
-1053354
-1053429
-1053510
-1053268
-1053235
-1053597
-1053632
-1053615
-1053586
-1053379
-1053639
-1053718
-1053843
-1053780
-1053635
-1053872
-1054053
-1053952
-1054016
-1053807
-1054008
-1054135
-1053979
-1053994
-1053797
-1054005
-1054212
-1054255
-1054110
-1053952
-1054186
-1054115
-1054138
-1054169
-1053943
-1054047
-1054068
-1054089
-1053945
-1053842
-1054047
-1054233
-1054135
-1054010
-1053838
-1054145
-1054182
-1054365
-1054089
-1053890
-1054177
-1054211
-1054190
-1054138
-1053896
-1054157
-1054195
-1054375
-1054279
-1054053
-1054199
-1054254
-1054362
-1054310
-1053998
-1054303
-1054319
-1054491
-1054321
-1054217
-1054448
-1054560
-1054545
-1054501
-1054330
-1054578
-1054767
-1054506
-1054464
-1054044
-1054503
-1054633
-1054817
-1054570
-1054591
-1054727
-1054987
-1054966
-1054589
-1054678
-1055033
-1055217
-1055301
-1055211
-1054989
-1055177
-1055389
-1055435
-1055302
-1055180
-1055333
-1055461
-1055428
-1055283
-1055186
-1055418
-1055529
-1055728
-1055569
-1055420
-1055662
-1055804
-1055947
-1056019
-1055794
-1055871
-1056118
-1056179
-1056114
-1055852
-1056008
-1056234
-1056303
-1056295
-1056047
-1056108
-1056315
-1056514
-1056446
-1056239
-1056386
-1056589
-1056709
-1056744
-1056558
-1056740
-1056905
-1056910
-1057085
-1056752
-1056773
-1057069
-1057088
-1057036
-1056963
-1056897
-1057092
-1057267
-1057343
-1057024
-1057235
-1057403
-1057457
-1057573
-1057354
-1057353
-1057607
-1057465
-1057630
-1057519
-1057543
-1057794
-1057934
-1058032
-1057803
-1057718
-1057983
-1058152
-1058084
-1057902
-1057950
-1058205
-1058315
-1058262
-1058068
-1058034
-1058391
-1058498
-1058580
-1058272
-1058261
-1058446
-1058263
-1059053
-1058867
-1058828
-1059035
-1059159
-1059216
-1059039
-1058974
-1059282
-1059279
-1059331
-1059236
-1059217
-1059386
-1059452
-1059636
-1059327
-1059370
-1059731
-1059760
-1059838
-1059490
-1059471
-1059789
-1059857
-1059861
-1059691
-1059745
-1059777
-1059993
-1060024
-1059877
-1059744
-1059998
-1060050
-1060152
-1059926
-1059876
-1060249
-1060319
-1060270
-1060055
-1060004
-1060244
-1060469
-1060471
-1060158
-1060100
-1060380
-1060568
-1060437
-1060297
-1060242
-1060289
-1060463
-1060471
-1060184
-1060064
-1060195
-1060269
-1060112
-1059844
-1059630
-1059760
-1059650
-1059616
-1059236
-1058783
-1058814
-1058553
-1058279
-1057889
-1057572
-1057509
-1057505
-1057119
-1056750
-1056303
-1056445
-1056337
-1055902
-1055561
-1055220
-1055185
-1055221
-1055021
-1054756
-1054429
-1054468
-1054416
-1054262
-1054003
-1053750
-1053889
-1054029
-1054066
-1053762
-1053487
-1053651
-1053801
-1053720
-1053585
-1053446
-1053724
-1053810
-1053844
-1053649
-1053466
-1053820
-1053869
-1053751
-1053808
-1053770
-1054096
-1054195
-1054213
-1054136
-1053913
-1054169
-1054406
-1054454
-1054462
-1054272
-1054473
-1054727
-1054602
-1054711
-1054503
-1054863
-1054916
-1055049
-1055071
-1054753
-1054992
-1055131
-1055202
-1055031
-1054891
-1055244
-1055315
-1055184
-1055175
-1055004
-1055258
-1055483
-1055346
-1055389
-1055117
-1055470
-1055469
-1055575
-1055482
-1055204
-1055375
-1055600
-1055513
-1055521
-1055211
-1055517
-1055500
-1055537
-1055441
-1055226
-1055631
-1055642
-1055624
-1056148
-1055609
-1055754
-1055791
-1055720
-1055840
-1055620
-1055857
-1055838
-1055855
-1055871
-1055628
-1055835
-1056093
-1055932
-1055796
-1055617
-1055835
-1055842
-1055851
-1055846
-1055520
-1055896
-1055825
-1055842
-1055579
-1055924
-1055919
-1055794
-1055656
-1055445
-1055717
-1055656
-1055805
-1055782
-1055537
-1055605
-1055766
-1055774
-1055608
-1055277
-1055589
-1055676
-1055531
-1055606
-1055374
-1055496
-1055489
-1055555
-1055376
-1055066
-1055337
-1055387
-1055431
-1055375
-1055197
-1055266
-1055395
-1056148
-1055642
-1055310
-1055530
-1055676
-1055658
-1055551
-1055252
-1055641
-1055743
-1055583
-1055648
-1055435
-1055700
-1055705
-1055812
-1055710
-1055603
-1055808
-1055959
-1055978
-1055966
-1055902
-1055979
-1056192
-1056251
-1056290
-1055926
-1056109
-1056282
-1056313
-1056362
-1056081
-1056344
-1056426
-1056598
-1056607
-1056281
-1056574
-1056656
-1056722
-1056567
-1056330
-1056537
-1056725
-1056796
-1056927
-1056522
-1056736
-1056948
-1056957
-1056995
-1056759
-1057094
-1057057
-1057280
-1057340
-1056939
-1057114
-1057274
-1057401
-1057387
-1057165
-1057454
-1057519
-1057457
-1057499
-1057371
-1057588
-1057712
-1057691
-1057698
-1057402
-1057546
-1057834
-1057775
-1057886
-1057578
-1057888
-1058072
-1058065
-1057998
-1057888
-1058015
-1058248
-1058110
-1058192
-1058047
-1058201
-1058264
-1058382
-1058390
-1058048
-1058332
-1058400
-1058441
-1058394
-1058216
-1058371
-1058557
-1058543
-1058796
-1058448
-1058631
-1058901
-1058734
-1058860
-1058763
-1059070
-1059109
-1058984
-1058817
-1059044
-1059210
-1059193
-1059330
-1058975
-1059293
-1059369
-1059413
-1059395
-1059260
-1059354
-1059542
-1059618
-1059654
-1059535
-1059687
-1059719
-1059859
-1059837
-1059669
-1059844
-1059874
-1059872
-1060115
-1059936
-1060085
-1060188
-1060218
-1060117
-1060008
-1060366
-1060414
-1060580
-1060425
-1060147
-1060473
-1060599
-1060472
-1060532
-1060259
-1060595
-1060668
-1060775
-1060748
-1060507
-1060736
-1060891
-1060890
-1060994
-1060741
-1060883
-1060926
-1061048
-1060960
-1060771
-1060931
-1061107
-1061044
-1061179
-1060961
-1061204
-1061240
-1061190
-1061243
-1061042
-1061189
-1061265
-1061134
-1061241
-1061018
-1061134
-1060975
-1061075
-1060891
-1060507
-1060653
-1060468
-1060292
-1060031
-1059664
-1059503
-1059469
-1059253
-1059007
-1058587
-1058671
-1058381
-1058225
-1057930
-1057509
-1057586
-1057457
-1057295
-1057189
-1056779
-1056784
-1056712
-1056548
-1056538
-1056052
-1056173
-1056095
-1056155
-1056169
-1055779
-1056027
-1056019
-1055957
-1055943
-1055646
-1055891
-1055903
-1056040
-1055878
-1055684
-1055824
-1055946
-1056087
-1055883
-1055796
-1055966
-1056191
-1056159
-1056228
-1056073
-1056384
-1056488
-1056546
-1056395
-1056400
-1056664
-1056741
-1056738
-1056980
-1056725
-1057017
-1057147
-1057108
-1057075
-1056903
-1057326
-1057335
-1057427
-1057373
-1057321
-1057504
-1057604
-1057689
-1057588
-1057426
-1057734
-1057924
-1057921
-1057975
-1057819
-1057983
-1058118
-1058082
-1058108
-1057933
-1058211
-1058224
-1058429
-1058185
-1058003
-1058399
-1058514
-1058367
-1058307
-1058261
-1058438
-1058553
-1058621
-1058491
-1058388
-1058622
-1058757
-1058749
-1058694
-1058436
-1058728
-1058963
-1058958
-1058850
-1058791
-1059041
-1059002
-1059067
-1058949
-1058924
-1059218
-1059286
-1059197
-1059248
-1058922
-1059210
-1059226
-1059288
-1059194
-1058994
-1059228
-1059328
-1059280
-1059191
-1058994
-1059202
-1059390
-1059248
-1059254
-1059094
-1059237
-1059407
-1059436
-1059332
-1058973
-1059254
-1059293
-1059427
-1059131
-1059122
-1059192
-1059306
-1059275
-1059201
-1058979
-1059240
-1059306
-1059421
-1059383
-1059135
-1059189
-1059468
-1059555
-1059475
-1059337
-1059553
-1059667
-1059624
-1059401
-1059343
-1059680
-1059754
-1059725
-1059850
-1059594
-1059643
-1059787
-1059892
-1059926
-1059805
-1059991
-1060099
-1060038
-1060084
-1059885
-1060029
-1060346
-1060440
-1060165
-1060171
-1060298
-1060453
-1060553
-1060384
-1060217
-1060605
-1060628
-1060822
-1060834
-1060635
-1060744
-1060795
-1060949
-1060891
-1060731
-1061176
-1061147
-1061168
-1061166
-1061048
-1061171
-1061282
-1061301
-1061505
-1061171
-1061340
-1061471
-1061629
-1061343
-1061211
-1061617
-1061776
-1061874
-1061686
-1061498
-1061869
-1061913
-1061926
-1061890
-1061803
-1061897
-1062016
-1062176
-1062138
-1062068
-1062192
-1062282
-1062322
-1062323
-1062237
-1062410
-1062601
-1062680
-1062712
-1062404
-1062682
-1062726
-1062900
-1062773
-1062489
-1062655
-1062830
-1062988
-1062965
-1062759
-1062896
-1062994
-1063067
-1063147
-1062877
-1063059
-1063167
-1063105
-1063099
-1062615
-1062911
-1063202
-1063380
-1063387
-1063273
-1063328
-1063421
-1063469
-1063410
-1063319
-1063384
-1063548
-1063645
-1063672
-1063469
-1063503
-1063821
-1063800
-1063802
-1063576
-1063649
-1063887
-1064064
-1064144
-1063848
-1063945
-1064099
-1064125
-1064089
-1063951
-1063986
-1064283
-1064412
-1064312
-1064250
-1064339
-1064444
-1064503
-1064609
-1064332
-1064409
-1064658
-1064766
-1064863
-1064587
-1064628
-1064894
-1064958
-1065043
-1064831
-1064901
-1065053
-1065155
-1065182
-1065061
-1064880
-1065174
-1065192
-1065228
-1065208
-1065153
-1065406
-1065422
-1065285
-1065231
-1065324
-1065566
-1065641
-1065625
-1065531
-1065609
-1065884
-1065838
-1066005
-1065784
-1065699
-1065879
-1065959
-1066002
-1065748
-1065759
-1066034
-1065959
-1065939
-1065711
-1065550
-1065692
-1065767
-1065588
-1065264
-1065162
-1065203
-1065046
-1065064
-1064601
-1064224
-1064335
-1064083
-1063980
-1063561
-1063280
-1063252
-1063268
-1062993
-1062586
-1062428
-1062565
-1062396
-1062221
-1062025
-1061789
-1061820
-1061882
-1061826
-1061498
-1061206
-1061345
-1061334
-1061277
-1061138
-1061121
-1061311
-1061279
-1061362
-1061093
-1060924
-1061214
-1061328
-1061382
-1061283
-1061159
-1061391
-1061632
-1061629
-1061516
-1061454
-1061723
-1061836
-1061837
-1062143
-1061915
-1062174
-1062272
-1062278
-1062164
-1062108
-1062355
-1062554
-1062677
-1062454
-1062371
-1062627
-1062747
-1062622
-1062711
-1062625
-1063008
-1063134
-1063159
-1063023
-1063019
-1063159
-1063277
-1063270
-1063215
-1063133
-1063404
-1063101
-1063253
-1063433
-1063323
-1063600
-1063657
-1063650
-1063615
-1063411
-1063656
-1063769
-1063718
-1063768
-1063581
-1063872
-1064090
-1064045
-1063944
-1063772
-1064082
-1064330
-1064317
-1064291
-1064168
-1064506
-1064659
-1064730
-1064659
-1064415
-1064730
-1064796
-1064483
-1064638
-1064551
-1064888
-1064828
-1064956
-1064930
-1064674
-1065069
-1065114
-1065177
-1065070
-1064888
-1065163
-1065110
-1064935
-1064947
-1064891
-1065114
-1065306
-1065238
-1065058
-1064811
-1065068
-1065163
-1064907
-1065119
-1064957
-1065019
-1065171
-1065061
-1065181
-1064930
-1065182
-1065236
-1065079
-1065093
-1064445
-1064889
-1065033
-1065009
-1065003
-1064748
-1064986
-1065025
-1064779
-1064915
-1064772
-1065070
-1065129
-1065170
-1065172
-1064931
-1065157
-1065270
-1065071
-1065246
-1065066
-1065294
-1065284
-1065509
-1066250
-1065429
-1065602
-1065685
-1065615
-1065621
-1065003
-1065613
-1065642
-1065822
-1065861
-1065623
-1065798
-1065979
-1065869
-1065858
-1065744
-1065956
-1066139
-1066173
-1066320
-1065973
-1066198
-1066350
-1066351
-1066346
-1066152
-1066365
-1066474
-1066515
-1066479
-1066392
-1066514
-1066737
-1066603
-1066710
-1066494
-1066634
-1066842
-1066827
-1066834
-1066813
-1066940
-1067139
-1067200
-1067192
-1066861
-1067105
-1067148
-1067236
-1067206
-1066881
-1067199
-1067375
-1067387
-1067350
-1067098
-1067400
-1067524
-1067465
-1067473
-1067172
-1067469
-1067617
-1067554
-1067491
-1067342
-1067532
-1067533
-1067574
-1067630
-1067351
-1067619
-1067816
-1067830
-1067793
-1067515
-1067671
-1067818
-1067867
-1067773
-1067549
-1067745
-1067824
-1067733
-1067945
-1067572
-1067794
-1068067
-1067948
-1067965
-1067783
-1068010
-1068069
-1068200
-1068076
-1067783
-1068070
-1068211
-1068344
-1068078
-1068030
-1068239
-1068331
-1068455
-1068342
-1068107
-1068385
-1068483
-1068543
-1068678
-1068419
-1068559
-1068728
-1068689
-1068595
-1068135
-1068431
-1068678
-1068732
-1068758
-1068532
-1068853
-1069042
-1068912
-1069005
-1068891
-1069014
-1069086
-1069193
-1069185
-1069122
-1069351
-1069364
-1069384
-1069373
-1069138
-1069494
-1069632
-1069738
-1069582
-1069354
-1069675
-1069866
-1069910
-1070020
-1069841
-1069953
-1070063
-1070126
-1070350
-1070051
-1070148
-1070399
-1070381
-1070194
-1070320
-1070344
-1070464
-1070566
-1070366
-1070408
-1070406
-1070242
-1070349
-1070002
-1070132
-1070122
-1070125
-1069950
-1069540
-1069794
-1069730
-1069564
-1069580
-1069054
-1069295
-1069179
-1069130
-1068754
-1068473
-1068649
-1068782
-1068670
-1068644
-1068099
-1068295
-1068356
-1068357
-1068199
-1067832
-1067895
-1068093
-1067955
-1067751
-1067651
-1067763
-1067954
-1067816
-1067831
-1067677
-1067916
-1067958
-1067912
-1067985
-1067885
-1068110
-1068311
-1068241
-1068313
-1068120
-1068403
-1068475
-1068564
-1068622
-1068370
-1068613
-1068707
-1068762
-1068721
-1068574
-1068779
-1068962
-1069018
-1069072
-1068875
-1068996
-1069124
-1069072
-1069199
-1069043
-1069104
-1069221
-1069409
-1069314
-1069141
-1069349
-1069316
-1069333
-1069193
-1069364
-1069454
-1069323
-1069326
-1068644
-1069239
-1069328
-1069333
-1069401
-1069242
-1069437
-1069546
-1069576
-1069445
-1069261
-1069454
-1069463
-1069543
-1069474
-1069377
-1069532
-1069684
-1069736
-1069687
-1069363
-1069533
-1069636
-1069741
-1069820
-1069294
-1069769
-1069934
-1069883
-1069765
-1069564
-1069787
-1069809
-1069878
-1069874
-1069549
-1069874
-1069890
-1069894
-1069771
-1069616
-1069638
-1069744
-1069926
-1069719
-1069518
-1069805
-1069702
-1069621
-1069556
-1069307
-1069323
-1069504
-1069562
-1069335
-1069086
-1069390
-1069443
-1069426
-1069283
-1068919
-1069114
-1069098
-1069208
-1068929
-1068795
-1069113
-1069133
-1069059
-1068909
-1068726
-1068860
-1068844
-1068928
-1068888
-1068744
-1068864
-1068918
-1069009
-1068685
-1068650
-1068804
-1068925
-1068857
-1068854
-1068687
-1068917
-1069022
-1069099
-1068949
-1068866
-1069057
-1069231
-1069332
-1069006
-1068940
-1069138
-1069359
-1069331
-1069370
-1069092
-1069354
-1069384
-1069560
-1069618
-1069312
-1069656
-1069798
-1069838
-1069424
-1069434
-1069873
-1069941
-1070000
-1069843
-1069702
-1069928
-1070160
-1070150
-1069780
-1069898
-1070168
-1070280
-1070415
-1070316
-1070270
-1070504
-1070563
-1070430
-1070212
-1070477
-1071218
-1070865
-1070572
-1070465
-1070732
-1070781
-1070817
-1070671
-1070533
-1070683
-1070771
-1070826
-1070681
-1070650
-1070775
-1070856
-1071009
-1070825
-1070725
-1071013
-1071030
-1071091
-1070845
-1070834
-1070788
-1071181
-1071183
-1071174
-1070935
-1071113
-1071246
-1071304
-1071294
-1071087
-1071241
-1071390
-1071408
-1071306
-1071039
-1071264
-1071429
-1071532
-1071569
-1071395
-1071522
-1071528
-1071732
-1071661
-1071495
-1071684
-1071803
-1071806
-1071766
-1071578
-1071664
-1071856
-1072019
-1071904
-1071720
-1071878
-1072187
-1072197
-1072213
-1072041
-1072191
-1072354
-1072448
-1072368
-1072213
-1072176
-1072031
-1072452
-1072349
-1072107
-1072376
-1072477
-1072451
-1072498
-1072292
-1072417
-1072505
-1072649
-1072772
-1072593
-1072545
-1072711
-1072780
-1072591
-1072478
-1072468
-1072505
-1072448
-1072320
-1072023
-1072033
-1071962
-1071942
-1071603
-1071129
-1071150
-1071138
-1070855
-1070535
-1070197
-1069949
-1069981
-1069964
-1069792
-1069295
-1069080
-1069011
-1069002
-1068850
-1068487
-1068422
-1068477
-1068319
-1068143
-1067748
-1067754
-1067841
-1067782
-1067605
-1067253
-1067340
-1067486
-1067363
-1067108
-1066946
-1067928
-1067558
-1067522
-1067406
-1067039
-1067668
-1067578
-1067528
-1067396
-1067210
-1067148
-1067420
-1067643
-1067537
-1067362
-1067458
-1067672
-1067904
-1067780
-1067642
-1067724
-1068061
-1068278
-1068182
-1068180
-1068124
-1068459
-1068563
-1068688
-1068348
-1068378
-1068681
-1068488
-1068903
-1068710
-1068726
-1068944
-1069121
-1069233
-1069006
-1068866
-1069245
-1069281
-1069366
-1069309
-1069170
-1069553
-1069557
-1069586
-1069437
-1069275
-1069533
-1069577
-1069694
-1069598
-1069542
-1069720
-1069876
-1069762
-1069727
-1069686
-1069892
-1070030
-1070050
-1069902
-1069935
-1070010
-1070232
-1070315
-1070089
-1070084
-1070287
-1070456
-1070582
-1070521
-1070454
-1070744
-1070769
-1070951
-1070707
-1070544
-1070778
-1070883
-1071077
-1070910
-1070828
-1070919
-1071074
-1071196
-1070946
-1070620
-1070939
-1071091
-1071161
-1071007
-1070836
-1071190
-1071157
-1071116
-1070923
-1070846
-1071116
-1071241
-1071198
-1070980
-1070946
-1071133
-1071176
-1071118
-1070951
-1070923
-1071077
-1071200
-1071154
-1070983
-1070946
-1071255
-1071223
-1071297
-1070935
-1070898
-1071071
-1071274
-1071240
-1070967
-1070963
-1071155
-1071168
-1071109
-1071084
-1070922
-1071062
-1071129
-1071081
-1070826
-1070848
-1071218
-1071275
-1071212
-1071150
-1071016
-1071278
-1071378
-1071460
-1071414
-1071201
-1071413
-1071598
-1071595
-1071448
-1071301
-1071214
-1071304
-1071276
-1071422
-1071441
-1071715
-1071890
-1071787
-1071445
-1071340
-1071761
-1071941
-1071925
-1071935
-1071741
-1072010
-1072084
-1072118
-1072075
-1071801
-1072086
-1072093
-1072190
-1072160
-1071972
-1072385
-1072376
-1072455
-1072403
-1072111
-1072341
-1072546
-1072533
-1072538
-1072297
-1072634
-1072645
-1072568
-1072631
-1072426
-1072720
-1072631
-1072714
-1072756
-1072463
-1072838
-1072791
-1072907
-1072866
-1072637
-1072818
-1072897
-1072962
-1072998
-1072804
-1073043
-1073137
-1073135
-1073138
-1072880
-1073158
-1073248
-1073224
-1073212
-1072978
-1073168
-1073420
-1073306
-1073397
-1073137
-1073291
-1073423
-1074255
-1073771
-1073320
-1073478
-1073562
-1073572
-1073612
-1073359
-1073634
-1073692
-1073680
-1073653
-1073559
-1073874
-1073879
-1073887
-1074067
-1073607
-1073935
-1074170
-1074257
-1074380
-1074095
-1074162
-1074332
-1074230
-1074375
-1074125
-1074404
-1074480
-1074563
-1074645
-1074314
-1074773
-1074881
-1074829
-1074934
-1074725
-1074826
-1074903
-1075183
-1075067
-1074806
-1075045
-1075180
-1075114
-1075212
-1075085
-1075279
-1075343
-1075229
-1075375
-1075060
-1075230
-1076145
-1075091
-1075040
-1074510
-1074586
-1074557
-1074380
-1074315
-1073821
-1073879
-1073624
-1073443
-1073405
-1072763
-1072754
-1072657
-1072450
-1072173
-1071702
-1071854
-1071662
-1071427
-1071274
-1070811
-1070933
-1070783
-1070755
-1070577
-1070319
-1070440
-1070442
-1070428
-1070255
-1070026
-1070100
-1070144
-1070119
-1070168
-1069916
-1070238
-1070272
-1070256
-1070355
-1070063
-1070273
-1070461
-1070482
-1070495
-1070383
-1070594
-1070611
-1070743
-1070928
-1070594
-1070910
-1071150
-1071217
-1071214
-1071096
-1071330
-1071456
-1071531
-1071594
-1071398
-1071713
-1071887
-1072083
-1072133
-1071964
-1072232
-1072268
-1072455
-1072464
-1072175
-1072441
-1072659
-1072501
-1072788
-1072610
-1072877
-1072948
-1072993
-1073126
-1072905
-1073101
-1073294
-1073387
-1073471
-1073109
-1073355
-1073427
-1073996
-1073604
-1073343
-1073275
-1073442
-1073525
-1073459
-1073364
-1073734
-1073672
-1073746
-1073864
-1073583
-1073774
-1073826
-1073934
-1074108
-1073824
-1074031
-1074127
-1073967
-1073921
-1073829
-1074208
-1074354
-1074399
-1074348
-1074148
-1074417
-1074480
-1074446
-1074349
-1073794
-1074188
-1074415
-1074497
-1074496
-1074187
-1074522
-1074615
-1074606
-1074593
-1074201
-1074421
-1074637
-1074589
-1074432
-1074164
-1074114
-1074559
-1074610
-1074547
-1075217
-1074822
-1074642
-1074618
-1074724
-1074435
-1074581
-1074636
-1074730
-1074600
-1074459
-1074560
-1074641
-1074805
-1074752
-1074409
-1074747
-1074790
-1074742
-1074640
-1074456
-1074593
-1074886
-1074666
-1074745
-1074698
-1074923
-1075048
-1075052
-1074830
-1074604
-1074864
-1075089
-1075154
-1074903
-1074787
-1075150
-1075288
-1075181
-1075190
-1074990
-1075221
-1075327
-1075487
-1075519
-1075128
-1075415
-1075534
-1075671
-1075680
-1075441
-1075635
-1075625
-1075691
-1075835
-1075522
-1075884
-1075979
-1075907
-1075911
-1075762
-1075932
-1076187
-1076220
-1076356
-1076054
-1076312
-1076308
-1076441
-1076408
-1076149
-1076395
-1076605
-1076702
-1076730
-1076561
-1076821
-1077020
-1076943
-1076791
-1076623
-1077093
-1077155
-1077279
-1077226
-1076948
-1077326
-1077383
-1077447
-1077372
-1077237
-1077369
-1077614
-1077640
-1077639
-1078156
-1077933
-1077869
-1077945
-1077970
-1077610
-1077831
-1078070
-1078154
-1078052
-1077961
-1078066
-1078218
-1078303
-1078236
-1077989
-1078215
-1078382
-1078569
-1078449
-1078271
-1078447
-1078722
-1078729
-1078525
-1078456
-1078817
-1078880
-1078837
-1078739
-1078674
-1079038
-1079032
-1079051
-1078966
-1078813
-1079134
-1079322
-1079368
-1079214
-1079128
-1079330
-1079500
-1079491
-1079385
-1079113
-1079409
-1079518
-1079669
-1079661
-1079400
-1079450
-1079750
-1079676
-1079428
-1079524
-1079858
-1079961
-1079898
-1079848
-1079587
-1079978
-1080002
-1079890
-1080007
-1079890
-1080128
-1080247
-1080329
-1080188
-1079903
-1080327
-1080469
-1080405
-1080254
-1079996
-1080375
-1080432
-1080606
-1080444
-1080326
-1080528
-1080526
-1080543
-1080189
-1079981
-1080287
-1080320
-1080188
-1080042
-1079640
-1079733
-1079719
-1079514
-1079138
-1078723
-1078753
-1078605
-1078556
-1078241
-1077921
-1077979
-1077916
-1077624
-1077523
-1077030
-1077242
-1077036
-1076935
-1076572
-1076416
-1076583
-1076527
-1076470
-1076150
-1075884
-1075971
-1076176
-1076018
-1075942
-1075651
-1075972
-1076047
-1076095
-1075946
-1075597
-1075917
-1076052
-1076071
-1075930
-1075732
-1076001
-1076025
-1076138
-1076073
-1075825
-1075817
-1076188
-1076240
-1076319
-1076030
-1076383
-1076616
-1076706
-1076588
-1076379
-1076662
-1076777
-1076829
-1076948
-1076525
-1076942
-1077029
-1077049
-1077099
-1077000
-1077217
-1077460
-1077553
-1077517
-1077383
-1077459
-1077691
-1077798
-1077644
-1077801
-1077937
-1078087
-1078090
-1077821
-1078084
-1078158
-1078303
-1078141
-1077999
-1078215
-1078310
-1078443
-1078392
-1078270
-1078466
-1078504
-1079038
-1078836
-1078433
-1078704
-1078958
-1079035
-1078962
-1078838
-1078966
-1079231
-1079151
-1078733
-1078684
-1078903
-1079209
-1079286
-1079346
-1079036
-1079136
-1079334
-1079403
-1079299
-1079032
-1079263
-1079335
-1079387
-1079352
-1079070
-1079100
-1079285
-1079324
-1079342
-1078993
-1079057
-1079145
-1079206
-1079282
-1078943
-1079019
-1079247
-1079124
-1079131
-1078923
-1079060
-1079172
-1079176
-1079228
-1078986
-1079005
-1079100
-1079088
-1079170
-1078918
-1078889
-1079143
-1079115
-1079129
-1078928
-1078965
-1079205
-1079177
-1079225
-1079036
-1079074
-1079252
-1079227
-1079136
-1078986
-1079136
-1079193
-1079316
-1079220
-1079173
-1079131
-1079261
-1079351
-1079493
-1079224
-1079308
-1079496
-1079681
-1079632
-1079533
-1079530
-1079732
-1079872
-1079933
-1079517
-1079369
-1079743
-1079942
-1079989
-1079675
-1079704
-1080034
-1080153
-1080233
-1079863
-1079906
-1080180
-1080283
-1080263
-1079989
-1079932
-1080246
-1080315
-1080410
-1080126
-1080113
-1080428
-1080621
-1080593
-1080267
-1080299
-1080490
-1080639
-1080555
-1080407
-1080488
-1080702
-1080758
-1080896
-1080860
-1080742
-1081019
-1080979
-1080926
-1080779
-1080748
-1080982
-1081126
-1081177
-1080920
-1080870
-1081178
-1081169
-1081243
-1081030
-1080995
-1081313
-1081457
-1081376
-1081306
-1081264
-1081516
-1081450
-1081549
-1081375
-1081328
-1081538
-1081575
-1081444
-1081271
-1081296
-1081462
-1081616
-1081648
-1081563
-1081356
-1081704
-1081759
-1081892
-1081565
-1081383
-1081618
-1081773
-1081743
-1081824
-1081626
-1082084
-1082184
-1082226
-1082071
-1081987
-1082318
-1082544
-1082557
-1082342
-1082165
-1082536
-1082755
-1082843
-1082767
-1082492
-1082615
-1082809
-1082803
-1082534
-1082556
-1082892
-1083057
-1083027
-1082983
-1082883
-1083258
-1083289
-1083340
-1083343
-1083192
-1083358
-1083522
-1083551
-1083389
-1083209
-1083493
-1083486
-1083524
-1083307
-1083148
-1083480
-1083407
-1083351
-1083342
-1082960
-1082992
-1083045
-1082676
-1082528
-1082166
-1082251
-1082192
-1081923
-1081594
-1081248
-1081457
-1081260
-1081071
-1080766
-1080296
-1080376
-1080285
-1080048
-1079806
-1079516
-1079452
-1079420
-1079384
-1079223
-1078865
-1078750
-1078871
-1078662
-1078588
-1078224
-1078470
-1078497
-1078292
-1078182
-1078129
-1078414
-1078455
-1078382
-1078250
-1078201
-1078486
-1078500
-1078645
-1078618
-1078444
-1078642
-1078904
-1078957
-1078835
-1078789
-1079092
-1079262
-1079383
-1079349
-1079166
-1079407
-1079508
-1079588
-1079726
-1079443
-1079720
-1079844
-1079802
-1079900
-1079697
-1080102
-1080205
-1080087
-1080321
-1080107
-1080406
-1080493
-1080490
-1080506
-1080437
-1080750
-1080738
-1080986
-1081065
-1080685
-1080895
-1080973
-1081206
-1081077
-1080911
-1081408
-1081347
-1081439
-1081412
-1081205
-1081493
-1081662
-1081791
-1081837
-1081563
-1081764
-1081954
-1082042
-1082004
-1081913
-1082189
-1082199
-1082176
-1082312
-1082131
-1082353
-1082469
-1082578
-1082487
-1082183
-1082452
-1082639
-1082731
-1082696
-1082484
-1082675
-1082666
-1082775
-1082691
-1082488
-1082590
-1082728
-1082632
-1082680
-1082499
-1082740
-1082801
-1082674
-1082440
-1082383
-1082381
-1082654
-1082712
-1082848
-1082403
-1082628
-1082702
-1082672
-1082640
-1082281
-1083429
-1082898
-1082445
-1082474
-1082229
-1082231
-1082533
-1082436
-1082455
-1082246
-1082366
-1082422
-1082587
-1082415
-1082254
-1082421
-1082436
-1082662
-1082574
-1082303
-1082460
-1082508
-1082446
-1082601
-1082511
-1082689
-1082672
-1082650
-1082669
-1082377
-1082715
-1082784
-1082793
-1083014
-1082710
-1083049
-1083068
-1082923
-1083069
-1082778
-1083096
-1083233
-1083360
-1083235
-1083001
-1083237
-1083457
-1083392
-1083251
-1083522
-1083680
-1083812
-1083944
-1083732
-1083949
-1083883
-1083942
-1083983
-1083801
-1083940
-1084089
-1084029
-1084037
-1083913
-1084102
-1084249
-1084234
-1084230
-1083950
-1084231
-1084475
-1084477
-1084540
-1084368
-1084456
-1084708
-1084680
-1084771
-1084472
-1084773
-1084803
-1084876
-1084821
-1084547
-1084811
-1084995
-1084839
-1084886
-1084779
-1084869
-1085005
-1085159
-1085100
-1084863
-1084941
-1085240
-1085084
-1084886
-1084808
-1085187
-1085380
-1085325
-1085341
-1085195
-1085304
-1085460
-1085410
-1085432
-1085326
-1085450
-1085523
-1085706
-1085633
-1085501
-1085582
-1085744
-1085804
-1085678
-1085565
-1085807
-1085897
-1085976
-1085872
-1085704
-1085829
-1086093
-1085962
-1086716
-1086000
-1086080
-1086270
-1086287
-1086254
-1086060
-1086094
-1086400
-1086281
-1086387
-1086176
-1086337
-1086439
-1086585
-1086533
-1086403
-1086688
-1086680
-1086700
-1086666
-1086468
-1086876
-1086808
-1086800
-1086783
-1086524
-1086713
-1086682
-1086666
-1086585
-1086332
-1086520
-1086397
-1086100
-1085880
-1085662
-1085557
-1085493
-1085278
-1085150
-1084562
-1084544
-1084357
-1084274
-1083953
-1083542
-1083379
-1083367
-1083253
-1082966
-1082494
-1082295
-1082318
-1082166
-1081892
-1081487
-1081463
-1081514
-1081425
-1081243
-1080992
-1081063
-1081069
-1080940
-1080829
-1080680
-1080838
-1080895
-1080761
-1081374
-1080565
-1080513
-1080628
-1080661
-1080768
-1080488
-1080749
-1080756
-1080551
-1081304
-1080692
-1081776
-1081237
-1081211
-1081040
-1080530
-1080943
-1081299
-1081315
-1081367
-1081224
-1081333
-1081481
-1081550
-1081559
-1081422
-1081750
-1081736
-1081745
-1081669
-1081667
-1081819
-1082164
-1082207
-1082022
-1081655
-1082116
-1082317
-1082216
-1082117
-1082057
-1082326
-1082515
-1082509
-1082414
-1082361
-1082572
-1082672
-1082527
-1082551
-1082345
-1082574
-1082800
-1082770
-1082786
-1082641
-1082947
-1083083
-1083062
-1082963
-1082724
-1082952
-1083132
-1083088
-1083070
-1083023
-1083264
-1083223
-1083498
-1083367
-1083166
-1083504
-1083550
-1083649
-1083651
-1083367
-1083664
-1083748
-1083731
-1083726
-1083387
-1083478
-1083619
-1083838
-1083763
-1083505
-1083794
-1083914
-1083929
-1083721
-1083645
-1083725
-1083937
-1083944
-1083760
-1083468
-1083828
-1083709
-1083769
-1083339
-1083106
-1083411
-1083730
-1083645
-1083525
-1083379
-1083438
-1083554
-1083605
-1083538
-1083308
-1083428
-1083412
-1083420
-1083303
-1083185
-1083401
-1083394
-1083437
-1083038
-1083135
-1083385
-1083584
-1083646
-1083464
-1083167
-1083466
-1083722
-1083664
-1083624
-1083460
-1083769
-1083778
-1083863
-1083610
-1083189
-1083764
-1083950
-1084022
-1083957
-1083683
-1083961
-1084101
-1084089
-1083978
-1083659
-1084182
-1084341
-1084284
-1084020
-1084057
-1084445
-1084393
-1084546
-1084334
-1084226
-1084601
-1084794
-1084791
-1084638
-1084432
-1084683
-1084746
-1084880
-1084904
-1084624
-1084911
-1085021
-1085197
-1084981
-1084880
-1085124
-1085239
-1085250
-1085146
-1084946
-1085136
-1085313
-1085360
-1085339
-1085179
-1085355
-1085488
-1085522
-1085569
-1085306
-1085540
-1085535
-1085744
-1085717
-1085535
-1085626
-1086310
-1085936
-1085919
-1085591
-1085848
-1085998
-1086076
-1085933
-1085826
-1086040
-1086196
-1086175
-1085985
-1085913
-1086086
-1086121
-1086195
-1086314
-1086014
-1086220
-1086405
-1086403
-1086495
-1086211
-1086477
-1086545
-1086615
-1086626
-1086417
-1086622
-1086832
-1086830
-1086793
-1086673
-1086767
-1086899
-1087022
-1087024
-1086878
-1087038
-1087188
-1087276
-1087127
-1087015
-1087200
-1087286
-1087256
-1087296
-1087093
-1087227
-1087479
-1087582
-1087556
-1087353
-1087500
-1087666
-1087741
-1087444
-1087585
-1087646
-1087712
-1087622
-1087500
-1087638
-1087740
-1087774
-1087645
-1087410
-1087565
-1087585
-1087485
-1087360
-1086944
-1086916
-1086998
-1086745
-1086647
-1086186
-1086034
-1085906
-1085663
-1085504
-1085025
-1085010
-1084862
-1084812
-1084570
-1084023
-1083862
-1083968
-1083855
-1083682
-1083310
-1083206
-1083287
-1083250
-1083039
-1082604
-1082553
-1082706
-1082750
-1082629
-1082346
-1082400
-1082620
-1082647
-1082613
-1082248
-1082257
-1082413
-1082534
-1082503
-1082430
-1082388
-1082586
-1082700
-1082763
-1082532
-1082681
-1082952
-1082909
-1083033
-1082766
-1082914
-1083074
-1083135
-1083339
-1083120
-1083192
-1083332
-1083572
-1083461
-1083360
-1083478
-1083750
-1083852
-1083865
-1083576
-1083688
-1084044
-1084173
-1084005
-1083923
-1083943
-1084870
-1084394
-1084316
-1083987
-1084094
-1084348
-1084434
-1084552
-1084366
-1084253
-1084599
-1084654
-1084690
-1084346
-1084382
-1084566
-1084759
-1084572
-1084452
-1084450
-1084780
-1084907
-1084859
-1084562
-1084500
-1084846
-1085009
-1085108
-1084929
-1084743
-1085127
-1085227
-1085305
-1084909
-1085050
-1085232
-1085360
-1085433
-1085254
-1085215
-1085469
-1085705
-1085657
-1085441
-1085455
-1085649
-1085770
-1085937
-1085672
-1085560
-1085648
-1085851
-1085889
-1085664
-1085524
-1085736
-1085937
-1086038
-1085848
-1085662
-1086414
-1086162
-1086005
-1086077
-1085703
-1085837
-1085854
-1086076
-1085770
-1085649
-1085841
-1085885
-1085981
-1085706
-1085611
-1085944
-1085909
-1085969
-1085933
-1085799
-1086020
-1085968
-1085934
-1085740
-1085751
-1085916
-1086155
-1086123
-1086007
-1086673
-1086452
-1086223
-1086611
-1086194
-1085950
-1086246
-1086259
-1086099
-1086144
-1085893
-1086335
-1086498
-1086476
-1086201
-1086135
-1086365
-1086523
-1086526
-1086386
-1086285
-1086808
-1086834
-1086737
-1086626
-1086554
-1086748
-1086952
-1087055
-1087025
-1086724
-1087036
-1087132
-1087169
-1087140
-1087088
-1087304
-1087379
-1087371
-1087307
-1087229
-1088276
-1087712
-1087588
-1087472
-1087297
-1087659
-1087786
-1087763
-1087781
-1087595
-1087792
-1087963
-1087942
-1088056
-1087819
-1087936
-1088261
-1088175
-1088148
-1087985
-1088255
-1088372
-1088361
-1089237
-1088375
-1088408
-1088679
-1089366
-1088686
-1088380
-1088625
-1088673
-1088607
-1088610
-1088405
-1088747
-1088803
-1088784
-1088813
-1088612
-1088973
-1089127
-1089069
-1089022
-1089647
-1089246
-1089164
-1089281
-1089155
-1089007
-1089260
-1089330
-1089182
-1089255
-1089118
-1089372
-1089531
-1089350
-1089345
-1089190
-1089512
-1089667
-1089823
-1089599
-1089023
-1089521
-1089675
-1089737
-1089543
-1089584
-1089579
-1089825
-1089892
-1089976
-1089873
-1090083
-1090200
-1090355
-1090266
-1090125
-1090269
-1090445
-1090453
-1090472
-1090145
-1090338
-1090468
-1090551
-1090561
-1090401
-1090688
-1090785
-1090627
-1090659
-1090441
-1090743
-1090910
-1090873
-1090884
-1090669
-1090867
-1090963
-1090870
-1090950
-1090737
-1090985
-1091156
-1090947
-1091050
-1090820
-1090936
-1090859
-1090643
-1090623
-1090304
-1090287
-1090351
-1090075
-1089919
-1089291
-1089295
-1089223
-1088903
-1088711
-1088093
-1088080
-1087993
-1087783
-1087605
-1087057
-1087099
-1086988
-1086757
-1086606
-1086281
-1086212
-1086234
-1086152
-1086049
-1085610
-1085662
-1085706
-1085690
-1085547
-1085214
-1085155
-1085379
-1085257
-1085331
-1085238
-1085388
-1085474
-1085466
-1085558
-1085175
-1085332
-1086021
-1085752
-1085631
-1085527
-1085760
-1085830
-1085980
-1086071
-1085770
-1085989
-1085964
-1086012
-1086217
-1086004
-1086307
-1086480
-1086378
-1086851
-1086536
-1086677
-1086801
-1087026
-1086686
-1087039
-1087151
-1087096
-1087190
-1087011
-1087232
-1087312
-1087370
-1087459
-1087254
-1087372
-1087606
-1087616
-1087590
-1087299
-1087472
-1087736
-1087737
-1087861
-1087557
-1087802
-1087907
-1087812
-1087890
-1087661
-1087724
-1087922
-1088117
-1088178
-1087747
-1088102
-1088110
-1088086
-1088191
-1087791
-1088188
-1088345
-1088477
-1088517
-1088323
-1088519
-1088585
-1088676
-1088554
-1088365
-1088700
-1088777
-1088710
-1088712
-1088515
-1088810
-1088809
-1089037
-1088998
-1088710
-1088815
-1089044
-1088970
-1088979
-1088403
-1088858
-1089718
-1089403
-1089086
-1088864
-1088999
-1088815
-1089168
-1089241
-1088879
-1088940
-1089151
-1089126
-1089195
-1088861
-1089062
-1089170
-1089095
-1088994
-1088881
-1088901
-1089007
-1089133
-1089057
-1088743
-1088860
-1088912
-1089051
-1088932
-1088817
-1089008
-1089058
-1088887
-1089091
-1088805
-1089050
-1089116
-1089016
-1089153
-1089608
-1089291
-1089135
-1089155
-1089133
-1088987
-1089144
-1089237
-1089369
-1089261
-1089001
-1089263
-1089296
-1090077
-1089700
-1089259
-1089429
-1089424
-1089502
-1089615
-1089425
-1089568
-1089699
-1089851
-1089686
-1089471
-1089680
-1089919
-1090034
-1090092
-1089837
-1089992
-1090140
-1090227
-1090254
-1089984
-1090195
-1090357
-1090245
-1090133
-1090125
-1090422
-1090573
-1090558
-1090574
-1090485
-1090657
-1090764
-1090674
-1090680
-1090626
-1091006
-1090996
-1091078
-1090880
-1090735
-1090846
-1091099
-1091082
-1091046
-1090895
-1091093
-1091324
-1091383
-1091257
-1091033
-1091381
-1091416
-1091397
-1091332
-1091161
-1091328
-1091626
-1091576
-1091423
-1091414
-1091699
-1091790
-1091634
-1091778
-1091552
-1091639
-1091871
-1091788
-1091889
-1091727
-1092093
-1092162
-1092175
-1092055
-1091884
-1092302
-1092382
-1092386
-1092179
-1092055
-1092287
-1092349
-1092345
-1092458
-1092106
-1092568
-1092615
-1092457
-1092390
-1092372
-1092574
-1092708
-1092706
-1092669
-1092445
-1092654
-1092797
-1092845
-1092810
-1092614
-1092719
-1093040
-1093082
-1092982
-1092906
-1093010
-1092912
-1093088
-1093059
-1092965
-1093178
-1093417
-1093476
-1093232
-1093175
-1093023
-1093436
-1093452
-1093218
-1093155
-1093479
-1093658
-1093748
-1093467
-1093302
-1093543
-1093616
-1093624
-1093495
-1093243
-1093538
-1093507
-1093408
-1093225
-1092764
-1092922
-1092803
-1092554
-1092240
-1091835
-1092020
-1091786
-1091715
-1091288
-1090857
-1090865
-1090797
-1090504
-1090220
-1089828
-1089996
-1089742
-1089481
-1089256
-1089036
-1089113
-1089044
-1088892
-1088504
-1088297
-1088409
-1088466
-1088351
-1088188
-1087913
-1088292
-1088190
-1088175
-1088015
-1087745
-1088115
-1088066
-1088131
-1088033
-1087958
-1088339
-1088314
-1088417
-1088440
-1088152
-1088470
-1088601
-1088626
-1088509
-1088502
-1088762
-1088879
-1088956
-1088768
-1088656
-1089002
-1089114
-1089078
-1089052
-1088913
-1089372
-1089487
-1089481
-1089485
-1089279
-1089535
-1089577
-1089737
-1089584
-1089155
-1089620
-1089922
-1089956
-1089861
-1089730
-1089870
-1090102
-1090103
-1090054
-1089822
-1090083
-1090282
-1090308
-1090217
-1090060
-1090281
-1090221
-1090257
-1090152
-1090133
-1090225
-1090265
-1090356
-1090302
-1090201
-1090347
-1090573
-1090579
-1090477
-1090284
-1090594
-1090659
-1090696
-1090748
-1090501
-1090861
-1090918
-1091015
-1090973
-1090732
-1090960
-1091058
-1091168
-1091199
-1090919
-1091136
-1091284
-1091399
-1091310
-1091112
-1091184
-1091399
-1091426
-1091339
-1091000
-1091287
-1091382
-1091381
-1091339
-1091268
-1091450
-1091429
-1091455
-1091196
-1090953
-1091217
-1092175
-1091582
-1091397
-1091103
-1091324
-1091309
-1091423
-1091249
-1091017
-1091189
-1091392
-1091479
-1091303
-1091093
-1091228
-1091124
-1091327
-1091183
-1091091
-1091261
-1091385
-1091358
-1091226
-1091085
-1091285
-1091293
-1091477
-1091836
-1091353
-1091476
-1091549
-1091474
-1091368
-1091219
-1091373
-1091468
-1091684
-1091603
-1091337
-1091576
-1091756
-1091673
-1091650
-1091562
-1091438
-1091873
-1091839
-1091917
-1092241
-1091980
-1092154
-1092175
-1092063
-1092028
-1092175
-1092344
-1092253
-1092160
-1092807
-1092353
-1092275
-1092478
-1092489
-1092367
-1092318
-1092583
-1092585
-1092576
-1092509
-1092496
-1092773
-1092802
-1092845
-1092671
-1092691
-1093007
-1093000
-1093049
-1092827
-1092936
-1093034
-1093234
-1093375
-1092910
-1092949
-1093313
-1093379
-1093345
-1093140
-1093087
-1093331
-1093437
-1093541
-1093273
-1093333
-1093524
-1093561
-1093599
-1093482
-1093516
-1093664
-1093751
-1093859
-1093669
-1093727
-1093867
-1093911
-1093808
-1093692
-1093597
-1093789
-1093912
-1093942
-1093695
-1093679
-1094011
-1094010
-1094176
-1093874
-1093895
-1093989
-1094977
-1094357
-1093970
-1094013
-1094150
-1094136
-1094412
-1094164
-1094128
-1094194
-1094289
-1094474
-1094349
-1094309
-1094457
-1094450
-1094548
-1094358
-1093938
-1094439
-1094647
-1094742
-1094454
-1094531
-1094735
-1094841
-1094883
-1094607
-1094699
-1094888
-1094979
-1095097
-1094954
-1094727
-1095079
-1095097
-1095286
-1095030
-1094995
-1095265
-1095380
-1095218
-1094998
-1094721
-1095178
-1095367
-1095562
-1095265
-1095126
-1095289
-1095527
-1095639
-1095414
-1095186
-1095388
-1095466
-1095367
-1095190
-1095064
-1095269
-1095173
-1094994
-1094702
-1094510
-1094653
-1094375
-1094327
-1093958
-1093612
-1093560
-1093353
-1093174
-1092917
-1092432
-1092440
-1092239
-1092080
-1091756
-1091218
-1091212
-1091131
-1090972
-1090590
-1090262
-1090312
-1090435
-1090268
-1089973
-1089409
-1089772
-1089689
-1089621
-1089373
-1089322
-1089406
-1089434
-1089529
-1089231
-1089163
-1089445
-1089370
-1089484
-1089364
-1089143
-1089428
-1089546
-1089535
-1089397
-1089308
-1089653
-1089836
-1089819
-1089685
-1089552
-1089885
-1089954
-1090018
-1089953
-1089881
-1090151
-1090237
-1090266
-1090334
-1090197
