PPG
-525140
-525092
-525236
-525345
-525372
-525431
-525443
-525382
-525357
-525433
-525312
-525196
-525147
-524980
-524719
-524513
-524197
-523907
-523691
-523297
-522919
-522420
-521920
-521418
-520867
-520233
-519639
-519052
-518433
-517800
-517179
-516540
-515925
-515275
-514565
-513885
-513281
-512730
-512138
-511491
-511038
-510478
-510020
-509496
-508963
-508590
-508186
-507794
-507503
-507120
-506842
-506602
-506423
-506202
-505962
-505805
-505668
-505551
-505477
-505333
-505362
-505315
-505303
-505294
-505310
-505251
-505272
-505343
-505383
-505446
-505548
-505599
-505700
-505763
-505882
-505958
-506127
-506190
-506355
-506506
-506524
-506774
-506870
-506987
-507039
-507165
-507321
-507417
-507559
-507689
-507743
-507928
-507989
-508107
-508203
-508236
-508434
-508544
-508643
-508804
-508936
-508991
-509053
-509193
-509304
-509339
-509463
-509494
-509675
-509777
-509783
-509814
-509952
-510006
-510174
-510190
-510210
-510275
-510388
-510477
-510573
-510672
-510688
-510750
-510866
-510815
-510883
-510975
-511063
-511144
-511095
-511234
-511237
-511408
-511489
-511422
-511499
-511554
-511559
-511664
-511736
-511762
-511814
-511890
-511917
-512006
-512051
-512160
-512170
-512242
-512286
-512380
-512387
-512452
-512442
-512474
-512521
-512569
-512612
-512602
-512558
-512571
-512597
-512610
-512518
-512487
-512475
-512398
-512377
-512273
-512178
-512113
-512047
-511998
-511876
-511794
-511735
-511623
-511572
-511445
-511330
-511212
-511111
-510965
-510859
-510750
-510651
-510503
-510348
-510277
-510186
-510112
-510000
-509940
-509790
-509661
-509528
-509524
-509472
-509362
-509296
-509172
-509173
-509142
-509076
-509029
-509006
-508994
-509031
-508991
-508931
-508986
-509015
-509027
-509043
-509017
-509142
-509154
-509130
-509305
-509405
-509459
-509552
-509633
-509618
-509727
-509788
-509914
-509930
-510034
-510183
-510230
-510248
-510333
-510382
-510463
-510547
-510722
-510754
-510869
-510938
-511014
-511111
-511169
-511275
-511265
-511441
-511442
-511543
-511632
-511694
-511855
-511954
-511952
-512036
-512106
-512230
-512360
-512438
-512507
-512511
-512608
-512612
-512473
-512366
-512348
-512501
-512685
-512738
-512906
-513110
-513062
-513191
-513186
-513171
-513283
-513434
-513577
-513741
-513886
-513936
-513996
-513975
-514009
-514033
-514213
-514317
-514440
-514579
-514651
-514769
-514866
-514898
-515042
-514969
-515066
-515025
-514941
-515090
-515108
-515080
-515100
-515125
-515048
-515036
-514987
-514923
-514975
-514902
-514788
-514805
-514729
-514768
-514742
-514704
-514703
-514492
-514512
-514487
-514381
-514441
-514406
-514338
-514265
-514294
-514257
-514269
-514246
-514342
-514347
-514387
-514321
-514187
-514201
-514124
-514104
-514117
-514095
-514021
-514016
-514000
-513905
-513909
-513855
-513756
-513718
-513645
-513608
-513522
-513403
-513309
-513337
-513297
-513245
-513108
-513013
-512969
-512987
-513021
-512981
-512855
-512875
-512794
-512826
-512735
-512742
-512702
-512719
-512705
-512703
-512616
-512686
-512698
-512657
-512621
-512769
-512774
-512667
-512739
-512711
-512726
-512820
-512844
-512794
-512891
-512867
-512928
-512906
-513047
-513060
-513114
-513089
-513206
-513277
-513269
-513372
-513387
-513445
-513476
-513518
-513622
-513638
-513730
-513798
-513844
-513980
-513994
-514056
-514089
-514212
-514359
-514364
-514482
-514388
-514521
-514697
-514731
-514785
-514883
-514748
-515019
-515107
-515192
-515296
-515268
-515394
-515497
-515588
-515643
-515743
-515806
-515919
-516023
-516029
-516175
-516289
-516309
-516421
-516511
-516640
-516677
-516829
-516859
-516896
-517005
-517135
-517237
-517294
-517350
-517406
-517534
-517621
-517714
-517827
-517860
-518000
-518086
-518274
-518301
-518361
-518525
-518559
-518673
-518732
-518839
-518994
-519107
-519240
-519281
-519424
-519560
-519666
-519817
-519895
-519968
-520068
-520206
-520383
-520498
-520551
-520713
-520825
-520970
-521040
-521054
-521197
-521320
-521451
-521492
-521438
-521617
-521639
-521615
-521653
-521621
-521643
-521510
-521469
-521337
-521082
-520925
-520844
-520582
-520215
-519873
-519493
-519063
-518575
-518109
-517525
-517023
-516482
-515858
-515246
-514593
-513956
-513277
-512653
-511940
-511279
-510637
-509885
-509205
-508585
-507927
-507366
-506859
-506273
-505626
-505103
-504596
-504170
-503702
-503200
-502722
-502350
-501951
-501528
-501200
-500955
-500717
-500313
-500097
-499859
-499609
-499443
-499286
-499167
-499015
-498919
-498836
-498802
-498725
-498675
-498654
-498710
-498696
-498747
-498715
-498710
-498768
-498942
-498878
-498936
-499064
-499197
-499204
-499328
-499510
-499518
-499651
-499765
-499899
-500071
-500104
-500183
-500311
-500400
-500444
-500457
-500607
-500724
-500720
-500762
-500786
-500847
-500788
-500811
-500729
-500815
-500836
-500867
-500883
-500858
-500725
-500747
-500757
-500633
-500623
-500534
-500548
-500457
-500385
-500315
-500133
-499996
-500199
-499980
-499830
-499636
-499700
-499611
-499448
-499361
-499207
-499161
-499073
-498995
-498941
-498876
-498761
-498753
-498700
-498706
-498761
-498944
-498907
-498794
-498772
-498785
-498662
-498777
-498828
-498801
-498761
-498795
-498799
-498865
-498841
-498813
-498960
-498874
-498876
-498931
-498905
-498987
-498975
-498903
-498867
-498886
-498828
-498688
-498676
-498636
-498635
-498500
-498474
-498334
-498243
-498125
-498402
-498022
-497775
-497504
-497306
-497292
-497169
-496764
-496696
-495576
-494926
-494682
-494562
-494464
-494405
-494360
-494320
-494207
-494114
-494061
-494049
-494014
-493983
-494083
-494173
-494145
-494074
-494084
-494093
-494158
-494172
-494159
-494136
-494223
-494278
-494343
-494325
-494362
-494475
-494524
-494620
-494618
-494644
-494772
-494918
-495029
-495002
-495180
-495177
-495300
-495401
-495362
-495438
-495546
-495620
-495692
-495639
-495798
-495898
-496007
-496086
-496053
-496186
-496285
-496342
-496446
-496819
-496761
-496717
-496805
-496895
-496936
-497054
-497186
-497224
-497272
-497425
-497498
-497563
-497690
-497815
-497861
-497991
-498149
-498274
-498352
-498380
-498568
-498632
-498736
-498798
-498779
-498938
-499082
-499202
-499322
-499291
-499465
-499549
-499622
-499712
-499764
-499912
-499982
-500089
-500192
-500268
-500346
-500280
-500519
-500644
-500625
-500718
-500847
-500992
-501125
-501197
-501301
-501353
-501489
-501561
-501620
-501759
-501866
-501936
-502081
-502087
-502212
-502296
-502399
-502452
-502495
-502549
-502641
-502768
-502784
-502800
-502918
-502953
-502966
-503008
-503056
-503148
-503212
-503310
-503284
-503289
-503310
-503451
-503425
-503422
-503350
-503469
-503449
-503509
-503528
-503454
-503518
-503528
-503520
-503487
-503404
-503363
-503375
-503400
-503512
-503425
-503472
-503539
-503461
-503395
-503326
-503318
-503374
-503429
-503454
-503425
-503441
-503338
-503369
-503339
-503271
-503319
-503282
-503318
-503365
-503087
-503252
-503295
-503316
-503262
-503288
-503234
-503246
-503142
-503247
-503294
-503350
-503331
-503335
-503338
-503340
-503205
-503369
-503414
-503412
-503517
-503481
-503500
-503567
-503589
-503618
-503688
-503658
-503723
-503737
-503754
-503762
-503738
-503739
-503847
-503777
-503826
-503893
-503900
-503912
-503960
-504026
-504000
-503981
-504113
-504111
-504148
-504198
-504224
-504312
-504290
-504419
-504491
-504574
-504607
-504641
-504716
-504739
-504831
-504914
-504906
-504992
-505122
-505186
-505352
-505404
-505463
-505551
-505738
-505854
-505884
-505984
-506094
-506189
-506206
-506352
-506556
-506689
-506815
-506947
-507041
-507234
-507322
-507411
-507580
-507709
-507896
-508029
-508127
-508305
-508430
-508530
-508713
-508817
-508927
-509003
-509067
-509128
-509284
-509330
-509373
-509421
-509517
-509511
-509583
-509534
-509489
-509445
-509363
-509335
-509271
-509104
-508925
-508729
-508527
-508201
-507914
-507549
-507082
-506676
-506155
-505670
-505019
-504452
-503856
-503253
-502588
-501934
-501153
-500518
-499700
-499023
-498165
-497511
-496804
-496060
-495276
-494610
-493895
-493315
-492653
-491978
-491395
-490769
-490270
-489642
-489148
-488624
-488181
-487829
-487844
-487223
-486839
-486423
-486381
-486389
-486293
-486162
-485981
-485838
-485737
-485653
-485584
-485438
-485379
-485359
-485364
-485412
-485401
-485415
-485489
-485650
-485678
-485823
-485884
-485889
-486045
-486175
-486360
-486461
-486589
-486797
-486927
-487130
-487215
-487325
-487446
-487649
-487760
-487896
-487888
-488135
-488341
-488440
-488608
-488714
-488797
-488887
-488904
-489137
-489170
-489342
-489446
-489625
-489688
-489788
-489870
-489945
-490000
-490166
-490234
-490205
-490308
-490361
-490447
-490473
-490538
-490523
-490685
-490713
-490739
-490777
-490919
-490909
-490945
-490939
-490912
-490963
-490984
-491026
-491075
-491158
-491266
-491322
-491404
-491321
-491361
-491476
-491468
-491580
-491665
-491756
-491824
-491856
-491924
-491926
-492063
-492126
-492201
-492290
-492274
-492338
-492390
-492458
-492503
-492521
-492389
-492539
-492537
-492585
-492564
-492585
-492589
-492544
-492550
-492463
-492451
-492298
-492212
-492062
-491956
-491902
-491848
-491683
-491643
-491499
-491272
-491201
-491066
-490918
-490866
-490696
-490561
-490413
-490381
-490294
-490138
-490007
-489959
-489796
-489652
-489667
-489497
-489393
-489387
-489155
-489087
-489178
-489093
-488979
-488877
-488902
-488824
-489103
-488834
-488677
-488587
-488588
-488547
-488558
-488472
-488491
-488406
-488439
-488419
-488306
-488221
-488222
-488301
-488266
-488224
-488255
-488318
-488314
-488306
-488222
-488246
-488283
-488247
-488330
-488301
-488330
-488369
-488401
-488441
-488807
-488612
-488565
-488648
-488770
-488933
-489272
-489463
-489464
-489437
-489480
-489454
-489555
-489548
-489627
-489721
-489882
-489891
-489884
-489874
-489920
-489824
-490019
-490061
-490190
-490192
-490308
-490422
-490690
-490700
-490777
-490776
-490882
-490962
-491001
-490982
-491082
-491142
-491272
-491304
-491270
-491423
-491516
-491539
-491646
-491666
-491795
-491908
-491916
-492089
-492121
-492234
-492317
-492407
-492560
-492588
-492694
-492809
-492857
-492889
-493003
-493138
-493228
-493331
-493393
-493485
-493662
-493808
-493875
-493963
-493954
-494053
-494069
-494222
-494236
-494313
-494400
-494385
-494541
-494537
-494610
-494607
-494677
-494775
-494835
-494890
-494977
-495088
-495057
-495090
-495131
-495231
-495311
-495319
-495358
-495347
-495498
-495606
-495699
-495675
-495756
-495832
-495874
-495932
-496020
-496001
-496160
-496147
-496258
-496280
-496290
-496333
-496388
-496475
-496584
-496575
-496636
-496760
-496777
-496747
-496849
-496938
-496991
-497058
-497008
-496991
-496966
-497102
-497127
-497202
-497204
-497222
-497208
-497280
-497249
-497357
-497334
-497354
-497420
-497412
-497509
-497435
-497482
-497553
-497517
-497571
-497610
-497665
-497614
-497657
-497772
-497827
-497862
-497879
-497939
-497953
-497991
-498074
-498006
-498111
-498042
-498052
-498186
-498170
-498187
-498151
-498169
-498280
-498147
-498117
-498177
-498298
-498090
-498213
-498320
-498366
-498347
-498295
-498327
-498340
-498299
-498347
-498290
-498279
-498330
-498329
-498318
-498209
-498282
-498335
-498262
-498329
-498323
-498404
-498384
-498370
-498391
-498381
-498490
-498542
-498507
-498755
-498762
-498832
-498899
-498847
-498955
-499065
-499158
-499102
-499198
-499294
-499369
-499420
-499473
-499552
-499522
-499673
-499733
-499821
-499831
-499941
-500013
-499991
-500424
-500222
-500194
-500195
-500238
-500215
-500323
-500363
-500233
-500190
-500178
-500078
-500008
-499853
-499707
-499484
-499261
-499046
-498740
-498398
-498045
-497754
-497383
-497015
-496425
-495977
-495366
-494810
-494254
-493562
-493023
-492450
-491778
-491161
-490492
-489908
-489323
-488759
-488166
-487530
-487000
-486425
-485932
-485419
-484989
-484486
-484170
-483766
-483385
-482895
-482696
-482365
-481935
-481783
-481585
-481416
-481180
-481027
-480916
-480790
-480713
-480676
-480572
-480533
-480389
-480366
-480423
-480408
-480457
-480422
-480519
-480639
-480659
-480765
-480739
-480889
-481012
-481120
-481223
-481293
-481391
-481591
-481653
-481875
-481930
-482119
-482240
-482231
-482506
-482616
-482826
-483003
-483154
-483346
-483391
-483549
-483786
-483887
-484061
-484364
-484382
-484428
-484547
-484678
-484784
-484816
-484942
-485054
-485213
-485260
-485340
-485376
-485500
-485603
-485577
-485689
-485756
-485816
-485815
-485837
-485943
-485970
-486066
-486071
-486101
-486179
-486253
-486351
-486419
-486333
-486499
-486527
-486514
-486547
-486581
-486675
-486720
-486827
-486906
-486889
-486937
-486959
-487055
-487122
-487187
-487243
-487244
-487348
-487360
-487364
-487469
-487444
-487553
-487575
-487521
-487578
-487501
-487550
-487477
-487418
-487421
-487435
-487345
-487249
-487138
-487103
-487014
-486969
-486926
-486700
-486637
-486577
-486403
-486269
-486174
-486044
-485947
-485847
-485696
-485537
-485351
-485214
-485080
-484944
-484735
-484722
-484553
-484472
-484406
-484276
-484106
-484000
-483650
-483561
-483518
-483465
-483323
-483215
-483158
-483189
-483103
-483079
-483076
-483051
-483073
-482993
-482945
-482973
-482978
-482973
-482971
-483008
-483028
-483054
-483085
-483169
-483086
-483147
-483142
-483186
-483214
-483306
-483353
-483449
-483467
-483460
-483543
-483636
-483655
-483827
-483810
-483851
-483877
-484017
-484133
-484180
-484156
-484295
-484338
-484478
-484588
-484716
-484749
-484803
-484922
-485039
-485093
-485182
-485325
-485441
-485561
-485622
-485775
-485858
-486023
-486035
-486167
-486208
-486816
-486670
-486690
-486780
-486847
-487049
-487145
-487251
-487412
-487533
-487604
-487740
-487902
-487956
-488134
-488263
-488408
-488543
-488576
-488682
-488817
-488970
-489125
-489149
-489377
-489461
-489640
-489735
-489782
-489873
-490070
-490072
-490249
-490412
-490559
-490639
-490702
-490841
-490979
-491085
-491200
-491288
-491323
-491426
-491579
-491673
-491729
-491794
-491901
-492058
-492123
-492133
-492306
-492267
-492394
-492428
-492406
-492495
-492532
-492676
-492800
-492762
-492804
-492848
-492899
-492901
-492981
-493039
-492971
-493145
-493167
-493171
-493140
-493145
-493191
-493203
-493127
-493237
-493147
-493297
-493317
-493570
-493435
-493284
-493335
-493348
-493433
-493359
-493322
-493409
-493462
-493353
-493294
-493326
-493386
-493259
-493355
-493375
-493304
-493297
-493233
-493302
-493240
-493285
-493348
-493366
-493437
-493457
-493342
-493474
-493450
-493439
-493509
-493578
-493575
-493629
-493621
-493626
-493687
-493738
-493843
-493799
-493815
-493837
-493960
-494013
-494173
-494174
-494199
-494210
-494217
-494238
-494218
-494210
-494298
-494339
-494383
-494374
-494380
-494437
-494520
-494423
-494489
-494482
-494528
-494573
-494519
-494553
-494513
-494595
-494664
-494691
-494612
-494605
-494650
-494680
-494722
-494732
-494770
-494784
-494761
-494837
-494940
-494834
-494964
-494943
-495007
-495026
-495011
-495086
-495099
-495076
-495226
-495194
-495204
-495211
-495214
-495164
-495065
-495034
-494988
-494856
-494620
-494496
-494331
-494073
-493806
-493518
-492959
-492666
-492336
-491922
-491441
-490890
-490403
-489899
-489324
-488742
-488084
-487744
-487018
-486366
-485774
-485108
-484576
-483940
-483398
-482887
-482333
-481787
-481310
-480892
-480372
-479958
-479500
-479057
-478728
-478396
-478014
-477744
-477418
-477187
-476854
-476671
-476570
-476481
-476380
-476226
-476067
-476084
-476004
-476016
-476060
-475977
-476043
-476089
-476165
-476249
-476258
-476363
-476483
-476800
-476741
-476786
-476919
-476945
-477044
-477146
-477293
-477392
-477495
-477650
-477674
-477815
-478017
-478028
-478110
-478230
-478393
-478424
-478537
-478679
-478796
-478819
-478906
-479002
-479040
-479161
-479218
-479288
-479353
-479471
-479488
-479667
-479655
-479697
-479835
-479820
-479890
-479973
-479940
-480019
-480157
-480202
-480244
-480320
-480273
-480409
-480482
-480481
-480595
-480639
-480766
-480906
-480981
-481084
-481085
-481262
-481316
-481363
-481526
-481582
-481728
-481837
-481999
-482144
-482221
-482285
-482295
-482364
-482522
-482516
-482967
-482789
-482650
-482760
-482693
-482763
-482811
-482779
-482783
-482744
-482735
-482781
-482831
-482812
-482698
-482658
-482586
-482556
-482477
-482447
-482444
-482262
-482199
-482112
-481973
-481977
-481811
-481755
-481746
-481547
-481461
-481407
-481367
-481313
-481128
-481080
-481065
-480925
-480878
-480839
-480765
-480684
-480731
-480719
-480572
-480605
-480482
-480386
-480383
-480404
-480335
-480288
-480304
-480256
-480268
-480037
-480187
-480201
-480248
-480237
-480259
-480220
-480244
-480271
-480247
-480289
-480268
-480355
-480360
-480347
-480248
-480390
-480430
-480554
-480588
-480654
-480709
-480758
-480818
-480856
-480925
-480984
-481021
-481107
-481171
-481273
-481371
-481375
-481506
-481525
-481648
-481719
-481817
-481936
-481950
-482054
-482183
-482216
-482290
-482360
-482801
-482570
-483001
-482780
-482783
-482840
-482899
-482909
-482983
-483081
-483504
-483222
-483253
-483318
-483293
-483380
-483479
-483493
-483574
-483602
-483680
-483685
-483784
-483868
-483816
-483890
-484016
-484091
-484191
-484167
-484303
-484358
-484378
-484530
-484493
-484595
-484644
-484604
-484768
-484777
-484803
-484889
-484913
-484955
-485015
-485092
-485142
-485195
-485244
-485240
-485302
-485384
-485412
-485432
-485489
-485596
-485695
-485684
-485788
-485783
-485852
-485954
-485982
-486018
-486023
-486038
-486123
-486192
-486284
-486224
-486295
-486294
-486328
-486274
-486264
-486285
-486350
-486386
-486401
-486437
-486412
-486489
-486478
-486436
-486473
-486515
-486444
-486460
-486590
-486598
-486627
-486595
-486600
-486586
-486594
-486617
-486503
-486489
-486515
-486549
-486586
-486629
-486622
-486612
-486573
-486522
-486578
-486481
-486420
-486491
-486539
-486522
-486499
-486403
-486423
-486445
-486489
-486543
-486556
-486531
-486594
-486619
-486693
-486750
-486802
-486790
-486924
-486949
-487059
-487055
-487077
-487153
-487253
-487322
-487396
-487496
-487571
-487674
-487746
-487783
-487762
-487878
-487996
-488066
-488119
-488247
-488367
-488409
-488456
-488604
-488637
-488742
-488728
-488891
-488939
-488914
-488927
-489031
-489116
-489176
-489264
-489276
-489399
-489465
-489547
-489504
-489576
-489679
-489739
-489731
-489744
-489790
-489877
-489891
-489889
-489908
-489958
-489919
-489973
-489956
-489873
-489823
-489686
-489468
-489324
-489097
-488869
-488581
-488317
-487911
-487572
-487130
-486668
-486279
-485736
-485281
-484816
-484219
-483664
-482958
-482305
-481767
-481125
-480543
-479782
-479246
-478741
-478251
-477674
-477086
-476525
-476007
-475543
-475061
-474583
-474168
-473732
-473240
-472788
-472400
-472122
-471751
-471484
-471044
-470809
-470662
-470363
-470150
-470064
-469862
-469622
-469603
-469433
-469406
-469259
-469231
-469206
-469214
-469266
-469281
-469232
-469318
-469341
-469521
-469485
-469601
-469737
-469909
-470068
-470127
-470186
-470373
-470491
-470587
-470732
-470850
-471047
-471218
-471351
-471481
-471477
-471738
-471852
-472093
-472073
-472241
-472350
-472469
-472633
-472736
-472753
-472941
-473072
-473075
-473111
-473140
-473219
-473229
-473301
-473310
-473300
-473351
-473424
-473431
-473347
-473350
-473447
-473498
-473478
-473405
-473389
-473494
-473556
-473516
-473495
-473477
-473559
-473597
-473644
-473712
-473673
-473629
-473715
-473776
-473725
-473817
-473908
-474028
-474005
-473996
-474066
-474126
-474233
-474342
-474402
-474376
-474412
-474486
-474551
-474486
-474446
-474487
-474519
-474509
-474520
-474478
-474435
-474443
-474497
-474379
-474318
-474309
-474195
-474147
-474099
-474038
-473969
-473877
-473805
-473776
-473583
-473524
-473443
-473302
-473314
-473147
-473130
-473003
-472957
-473171
-472804
-472724
-472552
-472467
-472511
-472423
-472293
-472191
-472129
-472133
-471968
-472036
-472261
-472034
-471962
-471840
-471841
-471781
-471709
-471754
-471789
-471813
-471876
-471859
-471838
-471825
-471926
-471946
-471944
-471974
-471993
-472035
-472138
-472233
-472204
-472278
-472439
-472498
-472513
-472537
-472531
-472729
-472765
-472748
-472949
-472956
-473064
-473240
-473291
-473444
-473469
-473555
-473646
-473755
-473859
-473871
-474047
-474135
-474250
-474388
-474419
-474542
-474624
-474779
-474859
-474898
-475030
-475145
-475392
-475446
-475552
-475715
-475772
-475907
-476066
-476114
-476299
-476396
-476570
-476598
-476722
-476917
-476984
-477072
-477291
-477357
-477543
-477652
-477754
-477894
-477909
-478016
-478151
-478262
-478323
-478418
-478564
-478662
-478780
-478863
-478990
-479071
-479195
-479255
-479347
-479384
-479493
-479581
-479612
-479780
-479776
-479846
-479869
-479989
-480036
-480026
-480159
-480179
-480229
-480313
-480326
-480377
-480436
-480494
-480532
-480540
-480593
-480669
-480766
-480826
-480801
-480870
-480917
-480987
-481164
-481071
-481032
-481074
-481140
-481152
-481220
-481257
-481345
-481424
-481464
-481691
-481921
-481587
-481597
-481566
-481548
-481559
-481579
-481636
-481655
-481676
-481635
-481665
-481641
-481709
-481661
-481611
-481576
-481650
-481688
-481646
-481709
-481720
-481629
-481595
-481671
-481725
-481726
-481665
-481769
-481704
-481815
-481813
-481881
-481906
-481920
-481901
-481882
-481871
-481935
-481932
-482060
-482118
-482073
-482066
-482054
-482074
-482106
-482098
-482138
-482167
-482320
-482296
-482314
-482317
-482292
-482379
-482473
-482470
-482518
-482544
-482605
-482613
-482673
-482690
-482763
-482784
-482879
-482898
-483000
-482974
-483044
-483098
-483162
-483186
-483162
-483255
-483295
-483364
-483467
-483349
-483444
-483525
-483484
-483568
-483523
-483548
-483617
-483688
-483629
-483762
-483876
-483913
-483961
-484097
-484022
-484156
-484186
-484332
-484393
-484397
-484475
-484564
-484661
-484709
-484689
-484788
-484896
-484965
-485104
-485121
-485213
-485255
-485293
-485409
-485453
-485606
-485564
-485718
-485789
-485795
-485982
-486040
-485959
-486150
-486230
-486311
-486377
-486471
-486583
-486611
-486659
-486735
-486802
-486891
-486958
-487054
-487088
-487141
-487278
-487247
-487364
-487383
-487370
-487427
-487505
-487530
-487610
-487642
-487667
-487651
-487650
-487681
-487694
-487638
-487461
-487387
-487274
-487209
-486934
-486770
-486510
-486259
-485869
-485455
-484957
-484476
-484011
-483553
-482948
-482354
-481636
-481020
-480338
-479670
-478942
-478271
-477632
-476839
-476126
-475516
-474846
-474178
-473576
-473037
-472390
-471809
-471281
-468747
-468382
-467981
-467563
-467237
-466907
-466650
-466594
-466201
-465981
-465804
-465666
-465508
-465324
-465260
-465239
-465216
-465246
-465233
-465256
-465311
-465245
-465397
-465365
-465360
-465519
-465609
-465709
-465812
-465981
-466050
-466079
-466322
-466508
-466616
-466781
-466909
-467004
-467192
-467337
-467500
-467663
-467763
-467937
-468005
-468181
-468323
-468452
-468599
-468659
-468899
-468957
-469058
-469162
-469205
-469348
-469430
-469532
-469600
-469657
-469756
-469804
-469916
-469804
-469848
-469978
-470034
-470080
-470091
-470076
-470125
-470172
-470184
-470166
-470189
-470281
-470359
-470363
-470403
-470373
-470396
-470448
-470546
-470491
-470512
-470530
-470609
-470655
-470687
-470726
-470851
-470904
-470990
-470985
-471075
-471065
-471175
-471206
-471264
-471207
-471324
-471362
-471381
-471313
-471341
-471382
-471312
-471343
-471290
-471315
-471312
-471186
-471163
-471140
-471031
-470965
-470898
-470836
-470758
-470772
-470697
-470587
-470457
-470468
-470355
-470288
-470246
-470194
-470177
-470057
-469940
-469875
-469787
-469769
-469736
-469679
-469628
-469571
-469550
-469513
-469461
-469387
-469308
-469302
-469323
-469284
-469221
-469222
-469227
-469114
-469095
-469117
-469512
-469212
-469084
-469066
-469072
-469062
-469131
-469161
-469095
-469085
-469062
-469137
-469171
-469223
-469242
-469229
-469318
-469363
-469435
-469479
-469523
-469692
-469673
-469758
-469981
-470056
-470092
-470195
-470286
-470311
-470403
-470493
-470632
-470765
-470828
-470863
-471001
-471000
-471093
-471236
-471330
-471392
-471503
-471643
-471695
-471715
-471812
-471854
-471974
-472018
-472185
-472250
-472285
-472411
-472423
-472485
-472591
-472688
-472782
-472866
-472956
-473011
-473113
-473181
-473267
-473298
-473491
-473473
-473579
-473718
-473798
-473921
-473950
-474062
-474150
-474253
-474368
-474343
-474469
-474485
-474569
-474730
-474719
-474864
-475024
-475023
-475116
-475198
-475381
-475332
-475493
-475533
-475617
-475724
-475815
-475750
-475894
-475996
-476071
-476188
-476259
-476301
-476393
-476548
-476568
-476638
-476686
-476751
-476832
-476859
-476986
-476993
-477023
-477059
-477116
-477150
-477243
-477162
-477277
-477241
-477353
-477402
-477372
-477375
-477464
-477405
-477434
-477495
-477517
-477585
-477547
-477587
-477546
-477552
-477671
-477695
-477701
-477724
-477732
-477728
-477813
-477846
-477891
-477898
-478019
-478046
-478058
-478086
-478118
-478165
-478184
-478247
-478234
-478309
-478289
-478317
-478447
-478393
-478489
-478517
-478572
-478565
-478563
-478638
-478695
-478654
-478773
-478705
-478803
-478839
-478813
-478863
-478867
-478938
-478976
-479268
-479116
-479018
-479107
-479328
-479209
-479173
-479272
-479213
-479336
-479304
-479161
-479413
-479516
-479545
-479551
-479554
-479646
-479693
-479742
-479849
-479807
-479853
-479960
-479845
-480032
-480031
-480222
-480317
-480319
-480415
-480407
-480514
-480575
-480586
-480741
-480800
-480875
-480985
-481029
-481125
-481145
-481364
-481317
-481305
-481343
-481430
-481546
-481541
-481585
-481666
-481674
-481753
-481916
-481993
-482009
-482076
-482154
-482186
-482290
-482310
-482318
-482417
-482454
-482473
-482552
-482532
-482639
-482691
-482723
-482832
-482787
-482835
-482858
-482892
-482982
-482998
-483050
-483159
-483215
-483313
-483401
-483416
-483475
-483583
-483613
-483675
-483716
-483809
-483917
-483898
-484029
-484129
-484149
-484387
-484412
-484508
-484687
-484610
-484830
-484936
-484995
-485024
-485163
-485254
-485266
-485365
-485488
-485575
-485672
-485662
-485653
-485792
-485849
-485985
-486059
-486065
-486111
-486203
-486346
-486350
-486516
-486481
-486566
-486586
-486680
-486788
-486915
-486932
-487037
-487035
-487102
-487200
-487237
-487341
-487382
-487426
-487563
-487671
-487711
-487731
-487907
-487956
-488073
-488014
-488156
-488197
-488366
-488364
-488490
-488462
-488550
-488523
-488628
-488627
-488522
-488381
-488287
-488201
-488202
-487822
-487532
-487119
-486709
-486409
-486017
-485490
-484941
-484433
-483699
-483103
-482496
-481767
-481122
-480449
-479017
-478252
-477505
-476835
-476081
-475371
-474651
-473990
-473308
-472688
-472133
-471436
-470916
-470345
-469796
-469323
-468813
-468407
-468028
-467666
-466939
-466612
-466348
-466205
-465919
-465636
-465571
-465480
-465346
-465294
-465183
-465148
-465180
-465104
-465125
-465152
-465080
-465200
-465289
-465324
-465391
-465588
-465667
-465850
-465926
-466006
-466168
-466281
-466430
-466605
-466637
-466782
-466953
-467140
-467328
-467393
-467590
-467731
-467960
-468039
-468141
-468838
-468917
-469040
-469121
-469226
-469262
-469379
-469457
-469557
-469674
-469665
-469694
-469835
-469943
-469974
-469970
-470018
-470092
-470089
-470124
-470230
-470238
-470209
-470291
-470310
-470271
-470313
-470330
-470345
-470424
-470305
-470391
-470447
-470516
-470503
-470477
-470535
-470553
-470610
-470690
-470676
-470757
-470860
-470910
-470912
-470979
-471019
-471116
-471141
-471256
-471318
-471303
-471426
-471500
-471462
-471454
-471406
-471513
-471507
-471493
-471500
-471489
-471441
-471432
-471425
-471353
-471259
-471115
-471160
-471080
-471110
-470981
-470901
-470851
-470803
-470749
-470592
-470622
-470368
-470325
-470204
-470176
-470145
-470074
-469892
-469790
-469758
-469705
-469584
-469520
-469403
-469347
-469236
-469224
-469111
-469053
-469086
-469000
-468937
-468828
-468736
-468744
-468747
-468744
-468653
-468822
-468794
-468833
-468914
-468981
-468952
-468991
-469099
-469103
-469147
-469242
-469229
-469342
-469367
-469491
-469538
-469586
-469710
-469711
-469867
-469881
-470024
-470088
-470158
-470226
-470256
-470305
-470450
-470502
-470542
-470556
-470695
-470735
-470871
-470943
-470991
-471018
-471056
-471093
-471163
-471218
-471244
-471342
-471398
-471463
-471713
-471880
-471989
-471979
-471974
-471916
-471952
-472149
-472194
-472363
-472390
-472417
-472447
-472565
-472893
-472729
-472702
-472860
-472948
-473123
-473178
-473114
-473172
-473033
-473203
-473198
-473291
-473469
-473494
-473768
-473770
-473819
-474057
-474107
-474181
-474375
-474506
-474629
-474757
-474788
-474914
-475110
-475287
-475515
-475679
-475765
-475929
-476083
-476203
-476345
-476476
-476676
-476904
-476884
-477064
-477119
-477207
-477343
-477442
-477615
-477599
-477779
-477781
-477863
-477898
-477991
-478140
-478092
-478177
-478253
-478180
-478364
-478441
-478443
-478574
-478510
-478583
-478644
-478708
-478739
-478775
-478743
-478837
-478878
-478932
-478980
-479001
-479105
-479147
-479188
-479171
-479309
-479392
-479375
-479542
-479619
-479634
-479735
-479838
-479919
-479859
-480024
-480116
-480082
-480195
-480249
-480272
-480407
-480421
-480507
-480517
-480605
-480636
-480728
-480727
-480646
-480760
-480791
-480814
-480885
-480849
-480924
-480937
-480978
-480996
-480995
-481065
-481103
-481111
-481184
-481136
-481219
-481201
-481132
-481579
-481296
-481399
-481488
-481559
-481528
-481499
-481644
-481693
-481713
-481711
-481766
-481860
-481913
-481996
-481979
-482007
-482100
-482055
-482122
-482225
-482193
-482243
-482330
-482438
-482729
-482506
-482572
-482589
-482620
-482661
-482702
-482811
-482871
-482887
-482917
-482932
-483061
-483137
-483131
-483171
-483212
-483297
-483318
-483405
-483495
-483558
-483524
-483658
-483726
-483777
-483824
-483945
-484066
-484195
-484256
-484331
-484421
-484448
-484571
-484614
-484755
-484816
-484903
-484959
-484919
-484999
-485169
-485179
-485227
-485270
-485349
-485457
-485449
-485514
-485525
-485667
-485690
-485743
-485791
-485790
-485844
-485852
-485953
-485992
-486077
-486123
-486103
-486182
-486293
-486341
-486423
-486489
-486506
-486615
-486703
-486788
-486851
-486944
-487034
-487075
-487166
-487255
-487363
-487388
-487432
-487543
-487588
-487633
-487773
-487768
-487910
-488010
-487995
-488118
-488102
-488181
-488190
-488339
-488382
-488461
-488485
-488599
-488637
-488744
-488756
-488871
-488900
-489036
-489025
-489056
-489198
-489179
-489218
-489276
-489350
-489430
-489510
-489561
-489609
-489686
-489705
-489854
-489935
-489915
-490020
-490122
-490164
-490248
-490275
-490253
-490345
-490321
-490287
-490278
-490159
-490150
-489978
-489813
-489649
-489382
-489162
-488793
-488460
-488074
-487642
-487256
-486681
-486163
-485610
-484917
-484340
-483661
-482905
-482259
-481578
-480900
-480203
-479454
-478774
-478038
-477410
-476741
-476147
-475540
-474834
-474269
-473667
-473140
-472714
-472234
-471825
-471331
-470969
-470619
-470256
-469876
-469613
-469394
-469105
-468928
-468809
-468683
-468545
-468478
-468344
-468244
-468238
-468172
-468238
-468249
-468331
-468409
-468523
-468689
-468667
-468729
-468901
-469028
-469171
-469349
-469481
-469711
-469885
-470055
-470128
-470329
-470537
-470689
-470846
-470990
-471166
-471339
-471563
-471754
-471938
-472108
-472183
-472319
-472485
-472634
-472849
-472947
-473085
-473153
-473305
-473460
-473562
-473675
-473800
-473929
-473984
-474075
-474223
-474265
-474381
-474526
-474515
-474603
-474748
-474767
-474817
-474945
-474953
-475080
-475114
-475208
-475212
-475345
-475362
-475418
-475465
-475463
-475537
-475588
-475570
-475694
-475706
-475765
-475887
-475902
-476022
-476017
-476005
-476159
-476102
-476214
-476205
-476280
-476351
-476363
-476386
-476331
-476432
-476464
-476335
-476442
-476493
-476468
-476462
-476324
-476258
-476334
-476282
-476195
-476101
-476001
-476028
-475936
-475928
-475845
-475744
-475708
-475581
-475503
-475457
-475255
-474849
-474734
-474693
-474550
-474444
-474135
-474181
-474058
-474036
-473861
-473763
-473699
-473631
-473403
-473434
-473296
-473155
-473076
-472973
-472849
-472733
-472688
-472520
-472465
-472240
-472334
-472275
-472309
-472219
-472136
-471997
-472029
-472074
-472073
-472010
-471996
-472070
-472085
-472075
-472115
-472124
-472157
-472215
-472234
-472292
-472327
-472397
-472517
-472618
-472625
-472739
-472776
-472940
-473077
-473035
-473169
-473297
-473446
-473574
-473593
-473794
-474408
-474122
-474152
-474210
-474348
-474434
-474595
-474661
-474775
-474956
-475073
-475187
-475267
-475370
-475493
-475645
-475756
-475859
-475963
-476034
-476176
-476181
-476253
-476309
-476425
-476500
-476485
-476699
-476838
-476950
-477088
-477250
-477259
-477341
-477418
-477526
-477582
-477713
-477768
-477875
-477954
-478105
-478177
-478238
-478458
-478552
-478746
-478905
-479033
-479195
-479268
-479527
-479657
-479828
-479985
-480148
-480248
-480396
-480526
-481064
-480940
-480876
-481389
-481158
-481569
-481384
-481242
-481361
-481470
-481507
-481648
-481991
-481753
-481569
-481654
-481749
-481765
-481686
-481634
-481600
-481573
-481493
-481362
-481291
-481134
-481089
-480964
-480844
-480729
-480594
-480422
-480278
-480125
-479980
-479858
-479747
-479641
-479528
-479382
-479294
-479259
-479101
-479031
-478984
-478985
-478908
-478896
-478893
-478987
-479112
-479253
-479300
-479312
-479395
-479398
-479408
-479418
-479406
-479570
-479640
-479808
-479842
-479994
-480105
-480196
-480353
-480346
-480534
-480680
-480725
-480847
-480961
-481062
-481197
-481302
-481405
-481537
-481677
-481783
-481845
-481931
-481987
-482183
-482233
-482340
-482522
-482600
-482813
-482922
-482989
-483017
-483102
-483211
-483372
-483420
-483587
-483623
-483766
-483954
-484101
-484148
-484253
-484404
-484548
-484704
-484844
-484948
-485136
-485265
-485383
-485547
-485661
-485879
-486000
-486183
-486322
-486421
-486568
-487069
-487014
-486956
-486987
-487151
-487341
-487487
-487636
-487734
-487907
-488049
-488057
-488139
-488223
-488369
-488513
-488689
-488787
-488917
-489049
-489054
-489120
-489189
-489318
-489471
-489632
-489835
-489996
-489986
-490134
-490239
-490338
-490411
-490485
-490695
-490823
-491004
-491035
-491114
-491087
-491204
-491267
-491480
-491566
-491701
-491894
-492003
-492129
-492123
-492180
-492226
-492351
-492426
-492621
-492722
-492925
-493103
-493191
-493284
-493458
-493478
-493485
-493691
-493694
-493786
-493931
-494041
-494065
-494078
-494159
-494246
-494226
-494302
-494283
-494312
-494332
-494380
-494374
-494415
-494396
-494331
-494362
-494335
-494190
-494088
-493946
-493826
-493638
-493455
-493179
-492871
-492657
-492258
-491821
-491454
-490993
-490487
-490030
-489393
-488813
-488202
-487529
-486886
-486268
-485612
-484860
-484202
-483537
-482900
-482237
-481569
-481020
-480332
-479638
-479105
-478502
-477952
-477514
-476971
-476515
-476152
-475804
-475381
-474989
-474666
-474320
-474099
-473887
-473604
-473423
-473265
-473029
-472844
-472642
-472607
-472427
-472349
-472333
-472217
-472214
-472059
-472072
-472120
-472039
-472030
-472058
-472019
-472149
-472172
-472227
-472420
-472479
-472560
-472543
-472714
-472822
-472974
-473024
-473097
-473263
-473417
-473516
-473553
-473614
-473769
-473855
-473914
-473975
-474096
-474196
-474274
-474361
-474399
-474442
-474494
-474488
-474479
-474527
-474403
-474478
-474514
-474522
-474374
-474294
-474393
-474338
-474276
-474193
-474085
-474109
-474020
-473982
-473898
-473760
-473800
-473765
-473726
-473685
-473672
-473678
-473682
-473631
-473571
-473493
-473441
-473395
-473510
-473471
-473505
-473522
-473511
-473527
-473520
-473446
-473453
-473564
-473660
-473675
-473779
-473776
-473877
-473876
-473882
-473836
-473934
-473908
-473923
-473965
-473936
-474002
-474021
-474008
-474056
-474033
-474057
-473969
-473912
-473872
-473887
-473843
-473823
-473732
-473687
-473581
-473620
-473933
-473662
-473486
-473437
-473342
-473336
-473200
-473182
-473077
-472962
-472841
-472784
-472710
-472649
-472574
-472522
-472490
-472352
-472275
-472225
-472250
-472238
-472159
-472104
-472133
-472083
-472029
-471996
-471967
-472040
-472013
-471953
-471951
-471928
-471934
-471889
-471959
-471990
-471968
-471977
-471976
-471986
-472087
-472004
-472131
-472192
-472223
-472214
-472273
-472302
-472356
-472410
-472455
-472538
-472569
-472660
-472694
-472872
-472844
-472976
-473031
-473041
-473147
-473212
-473276
-473322
-473455
-473527
-473497
-473639
-473708
-473867
-473874
-473946
-474107
-474196
-474277
-474284
-474373
-474451
-474564
-474680
-474740
-474821
-474920
-475004
-475052
-475118
-475245
-475310
-475371
-475484
-475567
-475622
-475728
-475845
-475922
-475970
-476009
-476103
-476205
-476371
-476494
-476546
-476575
-476627
-476722
-476805
-476900
-476988
-477021
-477102
-477115
-477276
-477522
-477570
-477685
-477686
-477740
-477837
-477884
-477994
-478050
-478074
-478225
-478324
-478475
-478673
-478737
-478771
-478827
-478970
-478950
-479008
-479174
-479232
-479282
-479293
-479451
-479520
-479510
-479572
-479616
-479723
-479822
-479861
-479986
-479947
-480057
-480096
-480156
-480321
-480357
-480442
-480505
-480590
-480633
-480728
-480799
-480845
-480980
-480907
-480971
-481053
-481043
-481142
-481184
-481213
-481276
-481299
-481197
-481166
-481193
-481310
-481203
-481191
-481174
-481292
-481338
-481512
-481687
-481710
-481697
-481632
-481663
-481642
-481651
-481803
-481972
-481947
-481857
-481811
-481790
-481800
-482079
-481976
-482053
-482036
-482045
-482021
-482112
-482279
-482277
-482339
-482256
-482277
-482312
-482379
-482373
-482432
-482450
-482505
-482521
-482553
-482546
-482544
-482640
-482657
-482701
-482801
-482685
-482843
-482916
-482932
-483032
-483095
-483252
-483283
-483381
-483457
-483495
-483627
-483734
-483887
-483941
-484038
-484177
-484184
-484357
-484475
-484492
-484572
-484736
-484782
-484925
-484809
-485049
-485145
-485238
-485287
-485306
-485405
-485421
-485571
-485505
-485544
-485607
-485630
-485714
-485825
-485865
-485943
-486022
-486061
-486035
-486071
-486159
-486193
-486251
-486304
-486318
-486429
-486405
-486541
-486528
-486593
-486647
-486799
-486853
-486952
-487005
-487092
-487127
-487196
-487272
-487385
-487418
-487571
-487616
-487664
-487856
-487855
-487953
-488042
-488128
-488190
-488301
-488360
-488528
-488551
-488632
-488685
-488760
-488860
-488911
-489064
-489133
-489145
-489237
-489208
-489276
-489305
-489314
-489241
-489182
-489074
-489031
-488915
-488755
-488471
-488282
-487957
-487617
-487258
-486800
-486370
-485859
-485313
-484804
-484155
-483564
-482842
-482182
-481643
-480945
-480242
-479624
-478962
-478265
-477640
-476996
-476335
-475764
-475098
-474503
-473979
-473428
-472892
-472344
-471923
-471481
-471082
-470658
-470310
-470014
-469685
-469458
-469113
-468934
-468700
-468528
-468378
-468270
-468230
-468123
-468067
-468048
-468081
-468028
-468117
-468149
-468128
-468168
-468251
-468380
-468503
-468625
-468805
-468923
-469010
-469197
-469367
-469528
-469693
-469835
-470076
-470237
-470432
-470635
-470742
-471011
-471225
-471443
-471574
-471710
-471953
-472128
-472336
-472589
-472699
-472782
-473009
-473167
-473364
-473426
-473599
-473699
-473768
-473819
-473902
-473966
-474035
-474043
-474023
-474048
-474110
-474057
-474102
-474124
-474089
-474028
-474011
-473972
-474056
-473904
-473910
-473885
-473865
-473889
-473856
-473871
-473911
-473893
-473980
-473990
-474023
-474079
-474149
-474172
-474357
-474401
-474579
-474663
-474801
-474876
-475046
-475181
-475398
-475514
-475657
-475806
-475941
-476088
-476322
-476388
-476606
-476709
-476703
-476860
-476873
-476984
-477052
-477099
-477173
-477177
-477166
-477145
-477133
-477167
-477162
-477123
-476999
-476984
-476866
-476797
-476687
-476636
-476510
-476373
-476231
-476079
-476012
-475790
-475695
-475421
-475264
-475133
-474840
-474837
-474526
-474510
-474431
-474242
-474011
-473783
-473655
-473566
-473359
-473275
-473106
-472970
-472895
-472709
-472568
-472349
-472304
-472142
-472086
-471963
-471886
-471711
-471704
-471660
-471577
-471447
-471313
-471279
-471193
-471104
-471081
-471041
-471154
-471274
-471489
-471496
-471410
-471458
-471386
-471361
-471337
-471357
-471520
-471647
-471702
-471629
-471618
-471686
-471716
-471712
-471784
-471943
-472096
-472168
-472156
-472216
-472243
-472286
-472450
-472545
-472587
-472774
-472831
-472868
-472948
-473001
-473110
-473219
-473343
-473487
-473461
-473557
-473604
-473666
-473609
-473749
-473992
-474066
-474166
-474335
-474399
-474560
-474570
-474673
-474744
-474770
-474959
-475065
-475123
-475254
-475382
-475492
-475656
-475795
-475926
-475983
-476077
-476220
-476328
-476481
-476572
-476738
-476907
-477051
-477135
-477211
-477321
-477452
-477543
-477640
-477734
-477939
-477976
-478115
-478234
-478258
-478335
-478422
-478505
-478639
-478641
-478691
-478811
-478910
-479016
-479086
-479178
-479197
-479262
-479354
-479459
-479633
-479628
-479806
-479863
-479883
-479956
-480077
-480255
-480136
-480330
-480480
-480595
-480591
-480784
-480890
-481004
-481112
-481147
-481262
-481301
-481500
-481560
-481581
-481731
-481711
-482005
-481967
-481945
-482028
-482093
-482129
-482224
-482243
-482356
-482433
-482598
-482651
-482684
-482773
-482856
-482846
-482919
-482937
-483024
-483078
-483063
-483169
-483207
-483297
-483313
-483309
-483358
-483364
-483373
-483444
-483500
-483575
-483630
-483714
-483746
-483790
-483847
-483861
-483953
-483977
-484047
-484112
-484114
-484150
-484263
-484241
-484396
-484309
-484361
-484426
-484460
-484415
-484455
-484527
-484470
-484545
-484637
-484586
-484528
-484531
-484568
-484532
-484576
-484618
-484640
-484638
-484560
-484567
-484638
-484702
-484621
-484656
-484611
-484654
-484678
-484754
-484723
-484654
-484703
-484772
-484737
-484748
-484736
-484844
-484776
-484902
-484953
-484946
-484962
-484989
-485014
-484947
-485115
-485153
-485291
-485231
-485360
-485416
-485524
-485556
-485600
-485715
-485718
-485769
-485892
-486054
-486070
-486064
-486117
-486248
-486294
-486373
-486370
-486460
-486520
-486631
-486730
-486776
-486845
-486889
-486983
-487008
-487109
-487129
-487221
-487316
-487382
-487431
-487490
-487597
-487701
-487876
-487864
-487977
-488098
-488185
-488283
-488333
-488394
-488555
-488593
-488739
-488816
-488869
-488983
-489015
-489195
-489225
-489362
-489404
-489449
-489598
-489663
-489736
-489893
-489990
-489961
-489945
-489949
-490009
-489875
-489911
-489904
-489769
-489703
-489559
-489417
-489170
-488767
-488525
-488177
-487756
-487224
-486736
-486233
-485644
-485152
-484581
-483845
-483259
-482559
-481900
-481177
-480473
-479843
-479194
-478564
-477847
-477141
-476535
-475945
-475441
-474824
-474215
-473750
-473274
-472840
-472316
-471887
-471576
-471222
-470846
-470547
-470278
-470027
-469872
-469642
-469471
-469249
-469169
-469051
-468954
-468777
-468787
-468835
-468803
-468862
-468854
-468818
-468926
-469027
-469154
-469181
-469273
-469397
-469481
-469677
-469799
-469850
-470069
-470269
-470468
-470669
-470790
-471037
-471203
-471349
-471462
-471633
-471919
-472076
-472319
-472453
-472626
-472890
-472978
-473249
-473376
-473533
-473712
-473897
-474041
-474247
-474305
-474396
-474549
-474748
-474804
-474847
-475049
-475072
-475286
-475406
-475413
-475533
-475578
-475728
-475765
-475810
-475892
-475958
-476066
-476088
-476090
-476155
-476320
-476380
-476403
-476444
-476567
-476561
-476667
-476712
-476771
-476905
-476914
-476962
-477019
-477181
-477192
-477351
-477418
-477433
-477520
-477644
-477717
-477842
-477829
-477869
-477962
-478069
-478142
-478093
-478193
-478231
-478269
-478225
-478221
-478237
-478328
-478366
-478319
-478310
-478232
-478164
-478134
-478087
-478057
-477933
-477905
-477832
-477812
-477642
-477496
-477491
-477405
-477274
-477090
-476948
-476925
-476819
-476729
-476590
-476439
-476335
-476240
-476200
-476000
-475833
-475815
-475672
-475622
-475538
-475369
-475320
-475300
-475210
-475113
-474995
-474943
-474958
-475233
-474896
-474778
-474795
-474742
-474653
-474692
-474649
-474661
-474654
-474647
-474700
-474605
-474693
-474646
-474621
-474672
-474735
-474777
-474666
-474725
-474736
-474775
-474821
-474859
-474962
-475008
-474965
-475047
-475132
-475118
-475236
-475243
-475324
-475337
-475418
-475545
-475649
-475714
-475771
-475908
-476003
-476029
-476107
-476236
-476359
-476400
-476497
-476539
-476602
-476714
-476783
-476887
-476975
-477116
-477227
-477277
-477355
-477413
-477609
-477750
-477808
-477861
-478009
-478166
-478148
-478258
-478355
-478438
-478553
-478662
-478717
-478808
-478925
-479052
-479152
-479251
-479345
-479458
-479573
-479621
-479768
-479861
-479995
-480113
-480214
-480286
-480341
-480438
-480528
-480662
-480782
-480795
-480937
-481070
-481155
-481215
-481302
-481386
-481452
-481539
-481711
-481744
-481863
-481978
-482089
-482097
-482188
-482302
-482405
-482501
-482516
-482612
-482762
-482772
-482861
-482967
-483012
-483100
-483146
-483204
-483324
-483353
-483477
-483572
-483614
-483778
-483790
-483828
-483920
-484001
-484042
-484109
-484116
-484189
-484228
-484278
-484359
-484337
-484338
-484555
-484495
-484486
-484433
-484536
-484558
-484615
-484546
-484542
-484558
-484675
-484628
-484685
-484675
-484658
-484703
-484767
-484741
-484775
-484800
-484801
-484822
-484797
-484820
-484828
-484863
-485100
-484914
-484934
-484952
-484954
-484975
-484996
-485060
-485164
-485157
-485221
-485514
-485378
-485475
-485379
-485356
-485366
-485464
-485576
-485510
-485551
-485632
-485753
-485671
-485701
-485752
-485806
-485854
-485824
-485840
-485931
-485981
-485974
-485953
-486350
-486256
-486172
-486203
-486218
-486240
-486300
-486319
-486349
-486327
-486425
-486497
-486537
-486625
-486572
-486640
-486637
-486652
-486733
-486753
-486832
-486904
-486985
-486987
-487034
-487316
-487305
-487315
-487225
-487206
-487211
-487086
-487043
-486926
-486703
-486520
-486210
-486002
-485661
-485285
-484969
-484492
-484108
-483633
-483177
-482667
-482018
-481507
-480967
-480395
-479832
-479106
-478517
-477932
-477284
-476720
-476133
-475474
-474948
-474474
-473937
-473339
-472824
-472396
-471990
-471485
-471067
-470682
-470341
-469979
-469639
-469298
-469101
-468872
-468648
-468462
-468288
-468174
-468111
-467986
-468199
-467842
-467841
-467790
-467731
-467734
-467808
-467781
-467892
-468027
-468055
-468103
-468234
-468362
-468512
-468661
-468697
-468873
-469092
-469165
-469394
-469533
-469773
-469896
-470101
-470236
-470366
-470520
-470621
-470831
-470928
-471088
-471247
-471379
-471518
-471736
-471843
-471975
-472161
-472316
-472462
-472521
-472680
-472713
-472894
-472991
-473055
-473170
-473317
-473382
-473395
-473455
-473574
-473569
-473625
-473640
-473611
-473710
-473769
-473815
-473868
-473802
-473880
-473879
-473962
-474030
-474024
-473702
-474032
-474214
-474223
-474180
-474307
-474431
-474461
-474452
-474484
-474674
-474665
-474802
-474917
-474947
-474982
-475050
-475159
-475261
-475287
-475396
-475424
-475425
-475440
-475502
-475823
-475632
-475519
-475617
-475533
-475527
-475548
-475413
-475389
-475220
-475260
-475147
-475122
-475003
-474925
-474777
-474679
-474505
-474416
-474335
-474203
-474078
-473784
-473772
-473657
-473533
-473463
-473307
-473292
-473069
-472981
-472850
-472744
-472660
-472468
-472397
-472461
-472273
-472179
-471971
-471973
-471941
-471807
-471730
-471536
-471540
-471584
-471533
-471455
-471343
-471321
-471260
-471228
-471706
-471121
-471175
-471096
-471037
-471070
-471028
-471080
-471050
-471103
-471014
-471031
-471003
-471101
-471074
-471031
-471135
-471192
-471188
-471252
-471344
-471338
-471420
-471391
-471484
-471559
-471578
-471607
-471656
-471704
-471870
-471955
-471983
-472092
-472130
-472198
-472242
-472336
-472436
-472489
-472485
-472645
-472745
-472855
-472992
-473030
-473082
-473188
-473309
-473386
-473487
-473495
-473546
-473770
-473853
-473918
-473899
-473977
-474110
-474187
-474286
-474373
-474536
-474659
-474897
-474849
-474906
-475065
-475154
-475137
-475313
-475694
-475598
-475666
-475768
-475847
-475965
-476340
-476237
-476512
-476498
-476460
-476566
-476754
-476823
-476962
-477062
-477166
-477327
-477446
-477611
-477982
-477866
-477941
-478033
-478118
-478242
-478436
-478521
-478469
-478825
-478774
-478821
-478852
-479013
-479060
-479053
-479264
-479324
-479482
-479439
-479480
-479552
-479916
-479638
-479717
-479839
-479842
-479963
-480029
-480009
-480041
-480032
-480097
-480239
-480304
-480298
-480310
-480428
-480532
-480433
-480596
-480735
-480810
-480906
-480914
-480891
-480940
-481026
-481173
-481197
-481230
-481261
-481294
-481403
-481492
-481394
-481475
-481401
-481135
-481044
-481102
-481111
-481108
-481152
-481203
-481254
-481329
-481337
-481311
-481344
-481381
-481506
-481566
-481568
-481530
-481529
-481428
-481368
-481452
-481478
-481491
-481619
-481621
-481746
-481829
-481755
-481655
-481823
-481948
-482242
-482049
-481857
-481860
-481748
-481737
-481801
-481911
-481822
-481851
-482156
-482097
-482092
-482386
-482107
-482018
-482092
-482042
-482110
-482184
-482130
-482113
-482131
-482177
-482195
-482186
-482307
-482224
-482250
-482199
-482281
-482251
-482256
-482195
-482260
-482051
-482179
-482112
-482271
-482240
-482177
-482496
-482349
-482178
-482098
-482002
-481985
-481737
-481689
-481601
-481344
-481045
-481120
-480736
-480264
-479727
-479061
-478486
-477918
-477423
-477225
-476473
-475857
-475301
-474534
-474004
-473371
-472739
-472378
-471587
-471202
-470321
-469555
-469027
-468485
-467850
-467370
-466831
-466319
-465692
-465246
-464817
-464287
-463969
-463589
-463147
-462851
-462569
-462279
-462316
-461804
-461370
-461195
-461085
-460953
-460819
-460719
-460600
-460508
-460449
-460648
-460441
-460389
-460339
-460715
-460461
-460412
-460438
-460399
-460448
-460488
-460564
-460682
-460786
-460835
-460923
-461007
-461083
-461205
-461320
-461356
-461493
-461579
-461583
-461613
-461664
-461796
-461900
-461921
-462050
-462081
-462207
-462221
-462302
-462322
-462445
-462454
-462610
-462656
-462626
-462663
-462691
-462796
-462812
-462845
-462783
-462805
-462931
-462941
-462888
-462883
-463004
-462927
-462966
-462959
-462947
-462973
-462914
-462808
-462801
-462773
-462715
-462756
-462654
-462586
-462568
-462535
-462578
-462504
-462360
-462390
-462403
-462434
-462405
-462291
-462396
-462321
-462363
-462350
-462308
-462436
-462393
-462468
-462380
-462406
-462456
-462429
-462377
-462425
-462436
-462411
-462454
-462363
-462313
-462287
-462258
-462213
-462160
-462118
-461903
-461857
-461840
-461754
-461652
-461547
-461442
-461367
-461248
-461161
-461017
-460884
-460780
-460683
-460557
-460428
-460284
-460158
-460076
-460005
-459892
-459857
-459750
-459654
-459605
-459337
-459256
-459110
-459154
-459075
-459084
-459013
-458941
-458953
-458916
-458970
-458947
-458878
-458884
-458937
-458950
-458930
-458866
-458905
-458879
-459011
-458969
-458907
-459052
-459034
-459039
-459094
-459089
-459140
-459180
-459267
-459278
-459334
-459411
-459511
-459495
-459462
-459463
-459493
-459649
-459618
-459656
-459727
-459747
-459811
-459866
-459855
-459874
-460030
-460008
-460065
-460083
-460131
-460253
-460267
-460291
-460375
-460383
-460415
-460489
-460566
-460676
-460753
-460829
-460821
-460836
-460937
-460966
-461097
-461159
-461241
-461316
-461389
-461480
-461526
-461648
-461718
-461889
-461918
-462030
-462198
-462201
-462303
-462377
-462561
-462660
-462771
-462773
-462862
-463021
-463203
-463269
-463427
-463591
-463702
-463766
-463927
-463941
-464105
-464107
-464243
-464427
-464512
-464570
-464666
-464783
-464779
-464847
-465012
-465084
-465184
-465274
-465299
-465443
-465513
-465556
-465682
-465760
-465916
-466006
-466053
-466164
-466145
-466254
-466322
-466325
-466433
-466477
-466592
-466665
-466715
-466748
-466835
-466945
-467004
-467022
-467124
-467091
-467172
-467244
-467305
-467351
-467372
-467400
-467402
-467437
-467444
-467393
-467580
-467777
-467866
-467915
-468050
-468083
-468020
-468035
-467998
-467977
-468016
-468022
-468086
-468241
-468183
-468199
-468184
-468119
-468112
-468127
-468186
-468327
-468389
-468416
-468423
-468319
-468343
-468292
-468257
-468352
-468435
-468572
-468615
-468604
-468601
-468650
-468778
-468679
-468754
-468700
-468786
-468826
-468855
-468832
-468888
-468914
-469005
-469129
-469147
-469341
-469339
-469431
-469471
-469501
-469604
-469714
-469674
-469764
-469836
-469854
-469872
-470027
-470061
-470084
-470220
-470288
-470285
-470402
-470450
-470473
-470498
-470585
-470726
-470724
-470830
-470986
-471255
-471408
-471490
-471551
-471612
-471653
-471690
-471815
-471849
-471953
-471993
-472028
-472069
-472195
-472255
-472327
-472471
-472542
-472624
-472765
-472827
-472849
-472864
-472983
-472993
-473013
-473059
-473045
-472935
-473018
-472819
-472679
-472530
-472370
-472081
-471868
-471540
-471131
-470771
-470348
-469958
-469409
-468907
-468404
-467864
-467207
-466660
-466058
-465381
-464788
-464195
-463636
-462924
-462368
-461708
-461218
-460624
-460115
-459552
-459148
-458631
-458180
-457735
-457356
-456942
-456615
-456268
-456063
-455733
-455513
-455240
-455052
-454801
-454650
-454497
-454410
-454328
-454286
-454232
-454341
-454272
-454316
-454329
-454358
-454399
-454485
-454570
-454719
-454884
-454900
-455059
-455227
-455420
-455507
-455700
-455916
-456070
-456218
-456306
-456450
-456735
-456851
-456995
-457225
-457409
-457566
-457684
-457894
-458074
-458202
-458386
-458546
-458658
-458810
-458888
-459054
-459237
-459308
-459518
-459613
-459758
-459844
-459900
-460056
-460199
-460329
-460404
-460551
-460672
-460753
-460930
-460973
-461066
-461191
-461291
-461512
-461594
-461596
-461760
-461869
-461950
-462027
-462103
-462193
-462260
-462406
-462494
-462601
-462807
-462890
-462935
-463090
-463142
-463296
-463438
-463492
-463575
-463597
-463780
-463918
-463978
-464089
-464157
-464166
-464305
-464275
-464284
-464414
-464454
-464515
-464516
-464533
-464550
-464526
-464478
-464561
-464521
-464519
-464521
-464452
-464480
-464425
-464390
-464319
-464329
-464277
-464225
-464140
-464106
-464014
-464007
-463958
-463816
-463793
-463668
-463615
-463526
-463492
-463309
-463303
-463190
-463140
-463023
-463054
-462982
-462872
-462901
-462846
-462742
-462684
-462645
-462562
-462501
-462452
-462412
-462373
-462339
-462269
-462277
-462301
-462207
-462264
-462236
-462262
-462229
-462171
-462134
-462031
-462066
-462109
-462103
-462165
-462079
-462218
-462215
-462184
-462271
-462242
-462253
-462284
-462371
-462355
-462395
-462419
-462490
-462598
-462635
-462724
-462794
-462899
-462925
-463053
-463116
-463171
-463276
-463446
-463483
-463541
-463643
-463760
-463910
-464010
-464052
-464207
-464367
-464502
-464650
-464734
-464783
-464961
-465147
-465273
-465431
-465474
-465753
-465861
-465883
-465988
-466201
-466340
-466514
-466560
-466646
-466844
-466985
-467161
-467248
-467363
-467542
-467635
-467726
-467977
-467975
-468109
-468242
-468388
-468472
-468584
-468717
-468918
-468891
-469079
-469150
-469276
-469408
-469536
-469568
-469720
-469905
-470034
-470126
-470186
-470346
-470331
-470529
-470634
-470706
-470741
-470904
-470963
-471066
-471210
-471199
-471332
-471456
-471458
-471528
-471511
-471659
-471739
-471791
-471838
-471901
-471926
-471954
-472009
-472165
-472020
-472112
-472198
-472187
-472198
-472182
-472277
-472326
-472324
-472351
-472321
-472379
-472350
-472384
-472365
-472432
-472475
-472460
-472500
-472494
-472406
-472471
-472466
-472533
-472590
-472581
-472615
-472655
-472648
-472746
-472784
-472849
-472876
-472881
-472926
-473021
-473122
-473118
-473167
-473221
-473264
-473374
-473416
-473541
-473470
-473604
-473662
-473684
-473738
-473846
-473874
-473986
-474015
-474106
-474126
-474179
-474226
-474364
-474395
-474458
-474468
-474597
-474682
-474679
-474690
-474674
-474826
-474855
-474875
-474863
-474923
-475052
-475032
-475088
-475101
-475156
-475271
-475337
-475315
-475337
-475321
-475423
-475425
-475501
-475554
-475529
-475610
-475603
-475567
-475596
-475570
-475490
-475481
-475486
-475422
-475312
-475210
-475125
-474934
-474719
-474506
-474335
-474004
-473755
-473400
-472911
-472557
-472110
-471649
-471244
-470744
-470209
-469636
-469071
-468618
-467987
-467457
-466960
-466353
-465793
-465264
-464762
-464233
-463732
-463199
-462659
-462213
-461775
-461329
-460940
-460579
-460170
-459843
-459520
-459243
-458889
-458625
-458524
-458244
-458082
-457935
-457828
-457723
-457680
-457604
-457497
-457437
-457441
-457437
-457516
-457458
-457613
-457722
-457799
-457849
-457928
-458046
-458244
-458389
-458482
-458626
-458862
-459030
-459180
-459316
-459955
-460245
-460363
-460511
-460718
-460900
-461097
-461148
-461288
-461565
-461638
-461743
-461910
-462057
-462150
-462240
-462424
-462471
-462642
-462783
-462813
-462974
-463085
-463186
-463292
-463422
-463487
-463527
-463559
-463713
-463798
-463855
-463912
-464018
-464087
-464202
-464317
-464344
-464443
-464621
-464691
-464842
-464909
-465031
-465199
-465342
-465439
-465539
-465709
-465861
-465920
-466031
-466232
-466328
-466510
-466548
-466654
-466744
-466919
-467048
-467075
-467230
-467206
-467321
-467371
-467486
-467538
-467561
-467576
-467505
-467527
-467580
-467505
-467490
-467485
-467475
-467339
-467302
-467239
-467180
-467152
-467056
-466985
-466911
-466802
-466756
-466609
-466422
-466364
-466288
-466204
-466073
-465966
-465749
-465824
-465749
-465559
-465434
-465369
-465314
-465179
-465106
-464982
-464939
-464860
-464760
-464725
-464606
-464494
-464481
-464395
-464410
-464329
-464287
-464249
-464202
-464162
-464117
-464108
-464115
-464059
-464138
-464100
-464031
-464100
-464125
-464089
-464127
-464239
-464192
-464273
-464255
-464360
-464367
-464455
-464495
-464619
-464735
-464813
-464800
-464893
-465010
-465023
-465176
-465188
-465291
-465364
-465422
-465484
-465622
-465738
-465789
-465893
-466048
-466049
-466118
-466316
-466341
-466416
-466507
-466659
-466757
-466870
-466977
-467051
-467196
-467308
-467368
-467539
-467628
-467734
-467839
-467933
-468049
-468111
-468195
-468400
-468457
-468536
-468627
-468793
-468892
-468986
-469110
-469245
-469339
-469379
-469484
-469658
-469808
-469822
-469936
-470088
-470119
-470281
-470357
-470527
-470598
-470713
-470750
-470814
-471008
-471013
-471177
-471241
-471379
-471539
-471565
-471711
-471800
-471954
-472074
-472032
-472207
-472233
-472307
-472431
-472542
-472610
-472636
-472755
-472924
-472933
-472950
-472968
-473121
-473170
-473185
-473382
-473409
-473444
-473577
-473565
-473686
-473734
-473736
-473778
-473787
-473852
-473908
-473867
-473958
-473954
-474042
-474101
-474119
-474099
-473988
-474036
-474161
-474233
-474275
-474242
-474256
-474303
-474293
-474283
-474316
-474347
-474399
-474491
-474501
-474475
-474543
-474648
-474682
-474775
-474715
-474764
-474897
-474978
-474979
-475092
-475141
-475210
-475315
-475338
-475391
-475432
-475478
-475592
-475619
-475645
-475674
-475710
-475776
-475781
-475754
-475827
-475862
-475969
-475978
-476031
-475929
-476015
-476000
-475981
-476039
-475952
-475980
-475922
-475866
-475788
-475673
-475539
-475468
-475263
-474978
-474841
-474652
-474247
-473975
-473625
-473256
-472867
-472469
-472005
-471406
-470974
-470369
-469798
-469304
-468698
-468138
-467594
-467013
-466431
-465764
-465281
-464708
-464088
-463694
-463123
-462589
-462147
-461723
-461245
-460803
-460324
-459971
-459619
-459309
-458900
-458608
-458349
-458033
-457703
-457572
-457462
-457330
-457216
-457088
-457004
-456914
-456862
-456743
-456770
-456767
-456691
-456786
-456814
-456840
-456913
-457009
-457190
-457202
-457357
-457400
-457419
-457586
-457723
-457931
-458009
-458182
-458363
-458500
-458668
-458745
-458890
-459053
-459209
-459386
-459503
-459641
-459825
-459967
-460128
-460172
-460325
-460438
-460621
-460746
-460712
-460960
-460996
-461088
-461157
-461191
-461272
-461405
-461435
-461527
-461526
-461625
-461745
-461709
-461803
-461743
-461849
-461905
-461919
-461930
-461924
-461973
-462004
-461955
-462101
-462084
-462155
-462104
-462195
-462285
-462337
-462399
-462532
-462583
-462595
-462674
-462677
-462805
-462846
-463027
-463074
-463184
-463302
-463294
-463403
-463498
-463581
-463759
-463775
-463792
-463875
-464045
-464057
-464161
-464245
-464248
-464224
-464245
-464251
-464166
-464210
-464212
-464178
-464100
-464086
-463938
-463966
-463795
-463705
-463707
-463617
-463542
-463538
-463374
-463205
-463137
-462940
-462914
-462830
-462654
-462607
-462431
-462347
-462285
-462192
-462043
-461918
-461892
-461822
-461728
-461661
-461679
-461609
-461555
-461502
-461350
-461327
-461329
-461412
-461346
-461288
-461265
-461370
-461328
-461355
-461332
-461267
-461285
-461394
-461465
-461440
-461472
-461548
-461614
-461643
-461700
-461770
-461834
-461890
-462019
-461991
-462124
-462133
-462212
-462326
-462338
-462444
-462502
-462621
-462690
-462693
-462806
-462914
-462963
-463039
-463073
-463233
-463299
-463466
-463551
-463611
-463756
-463893
-464036
-464074
-464233
-464351
-464473
-464568
-464673
-464740
-464847
-465060
-465135
-465212
-465336
-465465
-465577
-465618
-465792
-465947
-466105
-466218
-466354
-466455
-466580
-466766
-466892
-467022
-467105
-467249
-467395
-467565
-467732
-467861
-467980
-468103
-468248
-468428
-468454
-468701
-468799
-468908
-469071
-469171
-469419
-469431
-469544
-469755
-469875
-469982
-470116
-470283
-470396
-470471
-470618
-470683
-470816
-470882
-470961
-471131
-471159
-471260
-471411
-471416
-471560
-471645
-471702
-471764
-471851
-471901
-472049
-472107
-472144
-472194
-472236
-472352
-472379
-472490
-472511
-472644
-472725
-472822
-472771
-472893
-472877
-472963
-472990
-473078
-473041
-473163
-473147
-473255
-473246
-473269
-473327
-473394
-473416
-473472
-473494
-473567
-473547
-473632
-473638
-473607
-473667
-473734
-473721
-473742
-473793
-473779
-473806
-473814
-473750
-473776
-473870
-473920
-473890
-474016
-473953
-474002
-474007
-474060
-474030
-474010
-474049
-474102
-474109
-474130
-474161
-474211
-474218
-474238
-474244
-474321
-474672
-474435
-474425
-474419
-474375
-474427
-474418
-474556
-474483
-474544
-474627
-474637
-474653
-474720
-474691
-474791
-474785
-474929
-474980
-474999
-475075
-475214
-475290
-475359
-475374
-475459
-475619
-475629
-475806
-475788
-475885
-475946
-475973
-476135
-476127
-476221
-476236
-476321
-476374
-476783
-476551
-476618
-476565
-476719
-476741
-476788
-476783
-476865
-476833
-476739
-476804
-476693
-476628
-476526
-476352
-476236
-476077
-475814
-475483
-475200
-474804
-474413
-473943
-473549
-473042
-472508
-471929
-471283
-470643
-469957
-469397
-468761
-468210
-467497
-466865
-466219
-465584
-464928
-464363
-463690
-463441
-462623
-461996
-461549
-461075
-460593
-460125
-459693
-459277
-458864
-458606
-458614
-458334
-457879
-457548
-457294
-457079
-456954
-456800
-456595
-456505
-456441
-456394
-456373
-456266
-456292
-456243
-456219
-456296
-456310
-456345
-456418
-456432
-456607
-456691
-457122
-457208
-457258
-457428
-457516
-457767
-457898
-458557
-459550
-460115
-460582
-460799
-460845
-460958
-461079
-461104
-461226
-461313
-461472
-461516
-461549
-461613
-461630
-461632
-461677
-461683
-461722
-461811
-461789
-461842
-461813
-461894
-461874
-461933
-461891
-461912
-461916
-462011
-462047
-462041
-462053
-462176
-462250
-462267
-462323
-462383
-462458
-462565
-462620
-462649
-462723
-462917
-462967
-463142
-463151
-463243
-463356
-463397
-463410
-463558
-463616
-463619
-463658
-463712
-463802
-463708
-463773
-463881
-463834
-463809
-463818
-463759
-463750
-463766
-463732
-463691
-463627
-463556
-463511
-463415
-463426
-463372
-463295
-463287
-463219
-463098
-463107
-463093
-463114
-463020
-463026
-462991
-462967
-462866
-462838
-462828
-462780
-462746
-462691
-462656
-462644
-462645
-462615
-462602
-462637
-462602
-463099
-462749
-462709
-462683
-462684
-462676
-462755
-462739
-462779
-462780
-462862
-462886
-462888
-462941
-462952
-463070
-463162
-463215
-463301
-463396
-463421
-463918
-463688
-463709
-463765
-463828
-463893
-464107
-464124
-464129
-464233
-464319
-464448
-464615
-464634
-464820
-464932
-465033
-465089
-465201
-465307
-465421
-465493
-465650
-465706
-465853
-466053
-466077
-466119
-466167
-466270
-466446
-466461
-466559
-466613
-466703
-466784
-466902
-466998
-467043
-467121
-467192
-467271
-467304
-467347
-467480
-467662
-467635
-467734
-467742
-467879
-468068
-468102
-468209
-468300
-468447
-468481
-468632
-468668
-468801
-468845
-469019
-469111
-469178
-469232
-469402
-469556
-469669
-469728
-469784
-469901
-469984
-470092
-470215
-470380
-470295
-470536
-470605
-470676
-470744
-470837
-470829
-470983
-471022
-471130
-471170
-471255
-471300
-471262
-471392
-471409
-471540
-471550
-471582
-471537
-471618
-471689
-471747
-471709
-471621
-471741
-471800
-471830
-471801
-471754
-471926
-471885
-471839
-471955
-471948
-472018
-472054
-472099
-472107
-472092
-472198
-472223
-472304
-472390
-472371
-472409
-472483
-472473
-472582
-472652
-472721
-472736
-472827
-472895
-472894
-472895
-472940
-473037
-473094
-473102
-473196
-473247
-473174
-473287
-473257
-473337
-473347
-473437
-473472
-473492
-473487
-473462
-473546
-473804
-473592
-473544
-473510
-473632
-473675
-473670
-473702
-473823
-473764
-473903
-473900
-473966
-473981
-474112
-474198
-474211
-474359
-474382
-474565
-474484
-474406
-474645
-474695
-474731
-474886
-474988
-475046
-475065
-475166
-475256
-475348
-475371
-475322
-475501
-475543
-475608
-475652
-475831
-475818
-475830
-475997
-475988
-476009
-476068
-476089
-476252
-476335
-476360
-476388
-476421
-476544
-476561
-476565
-476609
-476648
-476766
-476773
-476839
-476915
-476898
-477048
-477072
-477105
-477180
-477219
-477277
-477295
-477411
-477442
-477469
-477608
-477596
-477711
-477803
-477903
-477996
-478066
-478149
-478347
-478348
-478463
-478531
-478641
-478723
-478760
-478805
-478953
-478993
-479162
-479090
-479260
-479311
-479419
-479471
-479542
-479567
-479693
-479669
-479822
-479841
-479878
-479972
-480041
-480038
-480056
-480217
-480244
-480289
-480243
-480292
-480360
-480371
-480369
-480364
-480321
-480314
-480263
-480124
-479921
-479818
-479643
-479366
-479081
-478830
-478262
-478067
-477565
-477112
-476562
-476021
-475525
-474853
-474203
-473639
-472915
-472184
-471447
-470898
-470169
-469472
-468851
-468179
-467619
-467008
-466352
-465823
-465284
-464699
-464152
-463733
-463291
-462770
-462416
-462092
-461638
-461348
-461034
-460783
-460451
-460169
-459937
-459674
-459649
-459581
-459413
-459326
-459291
-459289
-459263
-459171
-459285
-459276
-459387
-459459
-459533
-459670
-459683
-459906
-460027
-460108
-460257
-460449
-460597
-460790
-460935
-461139
-461337
-461583
-461776
-461854
-462053
-462312
-462475
-462689
-462793
-462988
-463009
-463257
-463419
-463534
-463684
-463847
-463954
-464203
-464255
-464395
-464503
-464575
-464769
-464851
-464968
-465070
-465089
-465229
-465269
-465322
-465468
-465575
-465570
-465584
-465660
-465734
-465803
-465852
-465891
-466043
-466125
-466104
-466188
-466196
-466298
-466333
-466393
-466472
-466542
-466677
-466736
-467266
-467108
-467082
-467182
-467270
-467339
-467445
-467606
-467713
-467851
-467868
-467929
-467992
-468071
-468119
-468180
-468568
-468450
-468389
-468416
-468370
-468387
-468417
-468416
-468485
-468434
-468414
-468383
-468314
-468342
-468177
-468161
-468156
-468100
-467958
-467896
-467888
-467843
-467557
-467617
-467592
-467485
-467354
-467259
-467280
-467107
-467047
-466893
-466918
-466859
-466734
-466670
-466563
-466568
-466716
-466391
-466346
-466250
-466194
-466158
-466043
-466008
-466031
-465946
-465906
-465807
-465886
-465880
-465812
-465814
-465766
-465744
-465689
-465727
-465787
-465693
-465718
-465769
-465748
-465753
-465850
-465934
-466005
-465962
-466053
-466089
-466536
-466308
-466289
-466301
-466367
-466421
-466448
-466498
-466579
-466611
-466784
-466834
-466887
-466971
-466986
-466907
-467232
-467301
-467382
-467458
-467566
-467673
-467760
-467809
-467838
-467937
-468072
-468080
-468252
-468253
-468390
-468463
-468547
-468696
-468790
-468871
-468820
-468987
-469110
-469160
-469275
-469366
-469411
-469491
-469544
-469692
-469751
-469761
-470017
-470052
-470132
-470310
-470328
-470418
-470542
-470632
-470712
-470740
-470853
-470925
-471040
-471067
-471241
-471311
-471349
-471517
-471604
-471637
-471790
-471921
-472029
-472119
-472250
-472372
-472441
-472530
-472661
-472782
-472825
-472939
-473007
-473167
-473217
-473351
-473494
-473573
-473689
-473758
-473860
-473994
-474032
-474159
-474264
-474390
-474394
-474657
-474638
-474754
-474838
-474908
-475017
-475146
-475164
-475193
-475245
-475341
-475423
-475517
-475581
-475586
-475750
-475801
-475882
-476187
-476082
-476084
-476038
-476132
-476169
-476233
-476410
-476404
-476488
-476560
-476547
-476573
-476519
-476355
-476414
-476447
-476504
-476544
-476629
-476720
-476820
-476833
-476875
-476988
-477043
-477106
-477201
-477140
-477317
-477468
-477414
-477474
-477591
-477654
-477929
-477815
-477832
-477897
-477862
-477981
-478082
-478030
-478086
-478195
-478181
-478199
-478288
-478344
-478310
-478443
-478497
-478541
-478510
-478642
-478717
-478786
-478816
-478867
-478893
-478889
-479008
-478987
-479032
-479325
-479150
-479282
-479254
-479353
-479410
-479449
-479430
-479560
-479569
-479706
-479768
-479820
-479912
-479995
-480068
-480144
-480189
-480324
-480415
-480471
-480482
-480593
-480624
-480765
-480876
-480906
-481056
-480984
-481079
-481241
-481254
-481346
-481431
-481505
-481616
-481638
-481746
-481714
-482128
-481841
-481978
-482122
-482150
-482222
-482346
-482362
-482429
-482554
-482620
-482681
-482771
-482774
-482681
-482882
-483043
-483040
-483145
-483206
-483272
-483307
-483288
-483466
-483557
-483729
-483728
-483697
-483822
-483821
-483850
-483944
-484044
-484016
-483982
-483940
-483875
-483821
-483701
-483539
-483358
-483168
-482840
-482574
-482291
-481830
-481326
-480881
-480353
-479788
-479220
-478572
-477916
-477276
-476572
-475857
-475208
-474484
-473759
-473155
-472452
-471730
-471153
-470471
-469799
-469198
-468608
-468007
-467476
-466901
-466429
-465931
-465496
-465151
-464700
-464256
-463853
-463532
-463292
-463282
-463043
-462659
-462332
-462286
-462018
-461985
-461944
-461913
-461871
-461907
-461902
-461907
-461989
-462035
-462089
-462181
-462191
-462403
-462574
-462669
-463089
-463288
-463477
-463651
-463788
-463933
-464149
-464381
-464550
-464703
-464848
-465093
-465249
-465330
-465320
-465260
-465282
-465433
-465598
-465697
-465878
-466118
-466323
-466489
-466523
-466715
-466822
-466988
-467308
-467273
-467318
-467398
-467309
-467476
-467518
-467566
-467635
-467684
-467755
-467734
-467800
-467851
-467912
-467890
-467936
-467928
-467934
-468076
-468081
-468056
-468011
-468060
-468157
-468250
-468298
-468361
-468414
-468456
-468435
-468511
-468581
-468655
-468736
-468816
-468821
-468897
-468982
-469129
-469156
-469171
-469213
-469315
-469369
-469427
-469497
-469493
-469499
-469567
-469498
-469600
-469574
-469623
-469567
-469573
-469466
-469436
-469344
-469266
-469103
-469023
-469024
-468938
-468869
-468696
-468566
-468527
-468329
-468268
-468153
-467997
-467973
-467799
-467695
-467533
-467445
-467338
-467166
-467072
-466935
-466836
-466815
-466721
-466608
-466500
-466435
-466379
-466342
-466338
-466225
-466223
-466235
-466145
-466123
-466050
-466081
-466142
-466160
-466206
-466202
-466222
-466312
-466333
-466375
-466357
-466481
-466550
-466628
-466729
-466815
-466873
-466998
-467135
-467225
-467373
-467436
-467480
-467657
-467792
-467908
-468050
-468158
-468653
-468490
-468512
-468663
-468755
-468815
-469066
-469219
-469173
-469348
-469496
-469658
-469720
-469843
-469955
-470107
-470185
-470334
-470375
-470563
-470705
-470785
-470971
-471046
-471178
-471364
-471434
-471478
-471569
-471690
-471824
-471980
-472023
-472153
-472338
-472455
-472573
-472700
-472821
-472843
-472981
-473120
-473162
-473326
-473475
-473512
-473684
-473621
-473681
-473780
-473714
-473794
-473933
-474092
-474229
-474346
-474445
-474512
-474615
-474781
-474810
-474958
-474995
-475127
-475269
-475349
-475384
-475443
-475750
-475807
-475840
-475831
-475910
-475951
-476040
-476118
-476163
-476210
-476306
-476416
-476522
-476611
-476533
-476696
-476761
-476734
-476860
-476973
-477017
-477084
-477279
-477337
-477318
-477445
-477518
-477538
-477584
-477669
-477727
-477815
-477825
-477966
-477889
-477994
-478115
-478072
-478092
-478101
-478269
-478301
-478303
-478396
-478340
-478386
-478428
-478491
-478502
-478457
-478525
-478545
-478593
-478565
-478589
-478601
-478607
-478633
-478748
-478665
-478736
-478911
-478821
-478819
-478865
-478916
-478989
-479047
-479081
-479063
-479142
-479164
-479253
-479305
-479303
-479316
-479376
-479448
-479463
-479420
-479485
-479548
-479575
-479624
-479547
-479668
-479690
-479706
-479785
-479775
-479776
-479787
-479755
-479798
-479774
-479841
-479840
-479855
-479880
-480005
-479990
-479983
-480058
-480060
-480101
-480193
-480149
-480238
-480255
-480236
-480379
-480343
-480494
-480490
-480546
-480982
-480716
-480650
-480656
-480684
-480714
-480881
-480806
-480909
-481005
-481103
-481168
-481118
-481228
-481319
-481370
-481429
-481456
-481439
-481583
-481579
-481734
-481765
-481832
-481867
-481976
-482063
-482209
-482147
-482282
-482289
-482493
-482505
-482773
-482818
-482946
-482994
-483146
-483158
-483298
-483457
-483588
-483640
-483684
-483843
-484002
-484036
-484129
-484194
-484305
-484410
-484541
-484613
-484649
-484801
-484951
-485040
-485023
-485114
-485224
-485262
-485394
-485418
-485541
-485566
-485582
-485531
-485557
-485531
-485447
-485428
-485264
-485077
-484911
-484670
-484412
-484154
-483679
-483292
-482899
-482402
-481940
-481287
-480745
-480097
-479550
-478877
-478174
-477481
-476753
-476082
-475461
-474798
-474153
-473437
-472855
-472162
-471596
-471032
-470410
-469839
-469399
-468866
-468460
-468034
-467570
-467220
-467139
-466597
-466310
-466020
-465758
-465524
-465322
-465126
-465013
-464846
-464736
-464715
-464650
-464597
-464580
-464586
-464638
-464650
-464733
-464882
-464742
-464939
-464966
-465091
-465239
-465352
-465437
-465598
-465759
-465935
-466127
-466268
-466477
-466546
-466761
-466915
-467076
-467360
-467451
-467668
-467762
-467969
-468135
-468310
-468487
-468611
-468751
-468937
-469145
-469254
-469414
-469574
-469683
-469817
-469966
-470051
-470126
-470303
-470418
-470494
-470533
-470661
-470697
-470757
-470845
-470824
-471007
-471019
-471102
-471036
-471045
-471087
-471155
-471201
-471218
-471202
-471244
-471232
-471230
-471339
-471322
-471343
-471349
-471464
-471494
-471436
-471628
-471583
-471688
-471759
-471735
-471883
-471901
-471988
-472059
-472130
-472168
-472263
-472376
-472437
-472426
-472511
-472601
-472668
-473139
-472909
-472837
-472934
-472987
-473029
-472926
-473011
-472967
-472985
-473060
-472926
-472998
-472973
-472972
-472943
-472872
-472851
-472745
-472670
-472702
-472567
-472569
-472506
-472405
-472336
-472194
-472130
-472132
-472085
-471990
-471891
-471875
-471822
-471784
-471740
-471650
-471486
-471502
-471465
-471413
-471345
-471305
-471245
-471251
-471194
-471147
-471121
-471056
-471087
-471112
-471031
-471019
-471081
-471143
-471118
-471108
-471168
-471245
-471261
-471287
-471308
-471363
-471381
-471444
-471490
-471524
-471515
-471651
-471653
-471814
-471755
-471891
-471906
-472083
-472073
-472174
-472204
-472313
-472417
-472519
-472570
-472771
-472765
-472948
-473071
-473041
-473181
-473333
-473465
-473553
-473920
-473890
-473979
-473949
-474135
-474238
-474436
-474470
-474631
-474699
-474775
-474887
-475049
-475191
-475273
-475325
-475575
-475702
-475719
-475865
-475867
-476021
-476198
-476269
-476369
-476454
-476619
-476763
-476852
-476994
-477098
-477213
-477263
-477482
-477525
-477665
-477722
-477764
-477998
-478138
-478206
-478314
-478513
-478606
-478748
-478855
-479030
-479086
-479208
-479198
-479279
-479593
-479306
-479230
-479227
-479295
-479416
-479589
-479764
-479889
-479956
-480087
-480146
-480213
-480417
-480497
-480571
-480728
-480771
-480883
-480957
-481033
-481132
-481173
-481254
-481328
-481412
-481557
-481611
-481696
-481753
-482206
-482011
-482020
-482005
-482006
-482149
-482198
-482249
-482276
-482381
-482517
-482520
-482639
-482591
-482653
-482712
-482717
-482914
-482878
-482897
-482996
-483048
-483187
-483154
-483212
-483287
-483305
-483414
-483427
-483365
-483411
-483418
-483525
-483624
-483560
-483662
-483649
-484004
-483824
-483794
-483856
-483794
-483902
-483941
-484002
-484080
-484098
-484156
-484187
-484235
-484321
-484365
-484512
-484629
-484576
-484620
-484732
-484848
-484905
-484979
-485109
-485198
-485275
-485331
-485335
-485493
-485547
-485644
-485637
-485796
-485875
-485918
-485968
-485983
-486273
-486202
-486379
-486444
-486576
-486609
-486649
-486780
-486770
-486793
-486872
-486947
-486978
-487016
-487072
-487104
-487193
-487285
-487381
-487363
-487465
-487561
-487689
-487782
-487859
-487946
-488025
-488126
-488198
-488283
-488391
-488484
-488631
-488671
-488779
-488837
-488933
-489009
-489140
-489208
-489282
-489438
-489523
-489701
-489659
-489702
-489753
-489777
-489700
-489701
-489630
-489837
-489966
-490064
-490104
-490122
-490205
-490368
-490393
-490553
-490615
-490703
-490776
-490917
-491001
-491051
-491127
-491190
-491363
-491443
-491486
-491849
-491803
-491826
-491855
-491911
-491985
-492033
-492121
-492196
-492221
-492312
-492353
-492393
-492378
-492385
-492438
-492392
-492386
-492308
-492160
-492062
-491799
-491681
-491449
-491088
-490751
-490401
-490002
-489566
-488994
-488476
-487924
-487373
-486774
-486094
-485499
-484914
-484229
-483442
-482802
-482177
-481539
-480966
-480368
-479817
-479164
-478654
-478096
-477585
-477056
-476704
-476214
-475858
-475347
-474980
-474712
-474459
-474150
-473783
-473532
-473452
-473211
-473063
-472922
-472859
-472808
-472818
-472757
-472592
-472589
-472683
-472785
-472815
-472872
-472896
-473038
-473136
-473441
-473518
-473541
-473743
-473859
-473968
-474147
-474364
-474616
-474747
-474938
-475133
-475248
-475474
-475635
-475818
-475932
-476181
-476297
-476524
-476753
-476825
-476942
-477135
-477310
-477414
-477479
-477591
-477808
-477938
-478049
-478196
-478250
-478343
-478439
-478521
-478621
-478661
-478767
-478691
-478889
-479067
-479083
-479134
-479193
-479243
-479225
-479268
-479329
-479408
-479494
-479486
-479529
-479599
-479607
-479609
-479601
-479666
-479736
-479700
-479699
-479805
-479903
-480003
-480055
-480083
-480162
-480177
-480339
-480374
-480457
-480511
-480554
-480644
-480629
-480724
-480784
-480766
-480870
-480995
-480981
-481005
-481022
-481116
-481021
-481106
-481099
-481118
-481094
-481067
-481069
-480903
-480962
-481022
-480959
-480884
-480845
-480732
-480706
-480599
-480433
-480352
-480311
-480160
-480071
-479983
-479849
-479741
-479636
-479507
-479390
-479334
-479160
-479064
-479034
-478920
-478760
-478651
-478603
-478410
-478344
-478267
-478333
-478157
-478200
-478080
-478070
-478075
-478066
-478062
-477869
-477979
-478048
-478009
-477934
-477913
-477921
-477899
-477922
-477947
-478053
-478082
-478087
-478080
-478187
-478282
-478315
-478392
-478450
-478419
-478525
-478661
-478652
-478714
-478753
-478853
-478890
-478884
-479022
-479115
-479226
-479305
-479316
-479483
-479457
-479564
-479623
-479692
-479635
-479843
-479968
-480064
-480172
-480265
-480202
-480385
-480495
-480539
-480667
-480765
-480787
-480892
-480903
-481473
-481223
-481270
-481364
-481442
-481613
-481625
-481731
-481848
-481911
-482064
-482198
-482730
-482498
-482516
-482617
-482737
-482790
-482917
-483103
-483186
-483247
-483353
-483506
-483684
-483779
-483863
-484051
-484187
-484326
-484739
-484572
-484617
-484669
-484714
-484927
-485130
-485245
-485289
-485359
-485415
-485534
-485589
-485576
-485676
-485778
-485855
-485970
-486085
-486045
-486114
-486242
-486223
-486369
-486739
-486550
-486583
-486624
-486717
-486766
-486733
-486904
-486925
-487043
-487132
-487118
-487241
-487285
-487356
-487416
-487436
-487566
-487539
-487562
-487741
-487809
-487868
-487870
-488002
-488052
-488057
-488141
-488281
-488345
-488393
-488461
-488456
-488493
-488525
-488623
-488687
-488679
-488724
-488844
-488829
-488866
-488984
-489018
-489054
-489119
-489140
-489179
-489189
-489270
-489405
-489401
-489483
-489399
-489538
-489583
-489679
-489704
-489759
-489832
-489915
-489910
-489942
-490010
-490055
-490429
-490213
-490260
-490250
-490270
-490402
-490376
-490456
-490438
-490604
-490632
-490755
-490828
-490837
-490878
-491033
-491043
-491076
-491070
-491235
-491219
-491270
-491305
-491341
-491475
-491459
-491532
-491624
-491584
-491657
-491751
-491831
-491835
-491886
-492010
-492032
-492050
-492084
-492169
-492209
-492213
-492284
-492402
-492392
-492427
-492481
-492462
-492617
-492705
-492856
-492816
-492940
-492964
-493008
-493143
-493208
-493316
-493461
-493467
-493536
-493625
-493561
-493737
-493886
-493987
-494057
-494556
-494318
-494426
-494547
-494634
-494637
-494766
-494870
-494955
-495079
-495163
-495246
-495372
-495454
-495553
-495551
-495520
-495696
-495808
-495964
-496031
-496114
-496219
-496257
-496434
-496429
-496550
-496651
-496692
-496832
-496866
-496972
-497075
-497025
-497191
-497279
-497263
-497472
-497411
-497619
-497724
-497799
-497887
-497938
-498048
-498049
-498080
-498102
-498184
-498149
-498141
-498243
-498127
-498071
-497824
-497705
-497447
-497291
-497002
-496690
-496360
-495910
-495619
-495106
-494454
-494103
-493656
-493044
-492626
-491972
-491439
-490856
-490265
-489737
-489153
-488569
-488052
-487566
-487054
-486509
-486152
-485643
-485203
-484757
-484338
-484006
-483588
-483264
-483039
-482702
-482564
-482350
-482111
-481856
-481644
-481525
-481371
-481302
-481223
-481150
-481159
-481140
-481179
-481175
-481236
-481282
-481321
-481369
-481521
-481562
-481733
-481869
-482006
-482073
-482241
-482483
-482609
-482767
-482941
-483110
-483314
-483496
-483677
-483918
-484009
-484170
-484383
-484558
-484831
-484867
-485233
-485345
-485479
-485766
-485883
-486144
-486335
-486507
-486641
-486859
-487109
-487364
-487529
-487759
-487933
-488133
-488306
-488521
-488712
-488908
-489188
-489364
-489521
-489723
-489849
-489995
-490240
-490326
-490498
-490641
-490816
-490945
-490942
-490926
-490746
-490712
-490878
-490978
-491154
-491255
-491473
-491702
-491784
-491700
-491681
-491700
-491773
-491902
-492009
-492053
-492126
-492305
-492360
-492413
-492392
-492470
-492507
-492527
-492541
-492461
-492433
-492425
-492397
-492162
-492143
-492155
-492042
-491873
-491849
-491783
-491621
-491422
-491366
-491251
-491012
-490692
-490329
-490066
-489938
-489774
-489609
-489400
-489211
-488962
-488761
-488594
-488417
-488177
-488031
-487869
-487763
-487589
-487354
-487221
-487093
-486977
-486933
-486841
-486770
-486705
-486641
-486540
-486554
-486539
-486491
-486527
-486494
-486462
-486584
-486561
-486657
-486662
-486705
-486720
-486791
-486859
-486986
-487103
-487255
-487385
-487464
-487470
-487568
-487706
-487754
-487930
-487990
-488154
-488302
-488386
-488457
-488630
-488845
-489002
-489100
-489282
-489456
-489644
-489714
-489789
-489907
-490135
-490197
-490368
-490464
-490512
-490731
-490888
-490809
-491058
-491238
-491266
-491397
-491510
-491482
-491492
-491598
-491720
-491835
-491741
-491903
-491976
-492003
-492034
-492069
-492032
-492063
-492161
-492069
-492093
-492130
-492153
-492123
-492116
-492039
-492074
-492102
-491897
-492000
-492016
-491993
-492033
-492003
-491909
-491878
-491886
-491782
-491766
-491662
-491597
-491540
-491477
-491498
-491630
-491216
-491191
-491102
-491041
-490960
-490944
-490874
-491079
-490790
-490659
-490551
-490538
-490466
-490397
-490456
-490474
-490406
-490470
-490507
-490496
-490523
-490540
-490537
-490583
-490688
-490715
-491184
-490898
-490782
-490851
-490841
-490837
-490865
-490841
-490931
-490991
-490943
-490956
-490964
-491404
-491048
-490958
-490940
-490927
-490820
-490815
-490836
-490806
-490743
-490678
-490615
-490540
-490487
-490330
-490343
-490349
-490452
-490582
-490514
-490419
-490359
-490352
-490235
-490175
-490245
-490222
-490285
-490393
-490382
-490305
-490248
-490224
-490156
-490175
-490199
-490370
-490425
-490442
-490390
-490433
-490386
-490310
-490391
-490282
-490315
-490407
-490600
-490758
-490745
-490719
-490667
-490696
-491076
-490832
-490769
-490982
-491136
-491213
-491176
-491121
-491238
-491220
-491271
-491387
-491731
-491906
-491831
-491907
-491904
-491986
-492093
-492191
-492259
-492387
-492567
-492717
-492762
-492904
-493166
-493279
-493557
-493705
-493912
-494123
-494381
-494533
-494780
-494989
-495005
-495329
-495604
-495756
-495867
-496013
-496199
-496420
-496515
-496674
-496776
-496976
-497054
-497102
-497232
-497216
-497333
-497299
-497261
-497337
-497290
-497162
-497085
-496900
-496734
-496636
-496526
-496355
-496126
-495877
-495610
-495309
-495001
-494527
-494410
-493820
-493265
-492810
-492393
-492002
-491617
-491140
-490472
-489989
-489333
-488693
-488033
-487505
-486839
-486129
-485501
-484837
-484223
-483659
-483158
-482566
-481959
-481402
-480755
-480224
-479782
-479311
-478923
-478470
-478050
-477651
-477280
-476984
-476746
-476508
-476260
-476037
-475833
-475686
-475526
-475356
-475282
-475159
-475027
-474989
-475040
-475061
-475157
-475139
-475227
-475378
-475480
-475672
-475801
-476072
-476299
-476527
-476749
-477065
-477366
-477532
-477880
-478240
-478498
-478830
-479153
-479447
-479790
-480126
-480413
-480741
-481065
-481360
-481666
-481945
-482260
-482587
-482831
-483091
-483358
-483690
-484264
-484279
-484375
-484547
-484811
-485065
-485168
-485352
-485561
-485687
-485872
-486032
-486216
-486308
-486366
-486593
-486711
-486806
-486955
-486984
-486969
-486942
-487046
-487151
-487234
-487242
-487264
-487403
-487396
-487387
-487478
-487516
-487434
-487482
-487871
-487642
-487639
-487627
-487629
-487642
-487677
-487720
-487678
-487712
-487809
-487862
-487907
-488035
-488062
-488019
-488145
-488294
-488394
-488449
-488458
-488616
-488597
-488635
-488712
-488623
-488526
-488535
-488508
-488399
-488556
-488589
-488511
-488659
-488673
-488616
-488596
-488561
-488463
-488411
-488292
-488149
-488120
-488012
-488027
-487950
-487919
-487908
-487847
-487864
-487805
-487705
-487607
-487439
-487433
-487422
-487417
-487348
-487071
-487208
-487239
-487197
-487267
-487165
-487210
-487182
-487130
-487088
-487095
-487092
-487089
-487080
-487052
-486943
-486984
-486898
-486876
-486821
-486755
-486742
-486720
-486661
-486613
-486598
-486529
-486451
-486452
-486431
-486370
-486326
-486320
-486270
-486322
-486200
-486180
-486118
-486051
-486055
-486016
-486015
-486002
-486071
-485890
-485885
-485959
-486023
-486022
-486104
-485906
-485988
-486110
-486171
-486145
-486192
-486313
-486328
-486373
-486417
-486379
-486503
-486580
-486622
-486738
-486691
-486817
-486881
-486924
-486966
-487018
-487077
-487213
-487222
-487240
-487259
-487405
-487441
-487410
-487472
-487505
-487671
-487689
-487698
-487762
-487715
-487772
-487912
-487877
-487806
-487869
-487936
-487927
-487950
-488058
-488102
-488112
-488052
-488127
-488171
-488209
-488267
-488253
-488382
-488370
-488434
-488462
-488509
-488636
-488661
-488755
-488774
-488823
-488825
-488855
-488933
-488985
-489023
-489107
-489024
-489058
-489092
-489203
-489235
-489306
-489328
-489307
-489318
-489320
-489315
-489408
-489399
-489464
-489506
-489504
-489554
-489665
-489642
-489723
-489740
-489810
-489939
-490140
-490121
-490159
-490296
-490458
-490565
-490708
-490700
-490865
-490935
-491089
-491215
-491283
-491493
-491570
-491767
-491848
-492022
-492276
-492353
-492522
-492735
-492972
-493172
-493280
-493561
-493740
-493953
-494168
-494417
-494611
-494564
-494446
-494412
-494467
-494524
-494609
-494650
-494775
-494718
-494635
-494702
-494602
-494071
-494428
-494541
-494584
-494575
-494588
-494597
-494524
-494543
-494421
-494328
-494274
-494236
-494171
-494044
-493980
-494159
-493781
-493731
-493584
-493379
-493130
-492868
-492596
-492137
-491768
-491231
-490753
-490138
-489543
-488930
-488170
-487550
-486864
-486172
-485465
-484900
-484367
-483672
-483014
-482425
-481905
-481327
-480812
-480237
-479710
-479249
-478778
-478382
-477863
-477346
-476896
-476516
-476178
-475840
-475568
-475263
-474989
-474802
-474516
-474346
-474158
-474005
-474010
-473823
-473822
-473647
-473689
-473543
-473552
-473624
-473725
-473762
-473823
-473862
-474005
-474512
-474397
-474537
-474681
-474838
-475080
-475304
-475527
-475751
-476018
-476203
-476369
-476578
-476754
-476949
-477107
-477366
-477426
-477617
-477673
-477859
-477897
-477899
-477937
-477957
-477951
-477928
-477843
-477665
-477705
-477767
-477989
-478089
-478025
-477971
-477912
-477881
-477807
-477632
-477691
-477577
-477485
-477371
-477188
-477125
-476945
-476796
-476623
-476488
-476326
-476096
-475910
-475830
-475569
-475405
-475256
-475033
-474779
-474625
-474474
-474360
-474348
-474242
-474238
-474219
-474326
-474570
-474645
-474716
-475050
-475263
-475729
-476053
-476365
-476722
-477118
-477529
-477820
-478138
-478510
-478776
-479092
-479230
-479535
-479887
-480130
-480383
-480618
-480813
-481121
-481338
-481611
-481842
-481998
-482189
-482319
-482576
-482711
-482897
-483116
-483268
-483390
-483504
-483595
-483734
-483848
-483994
-484063
-484166
-484172
-484321
-484430
-484486
-484540
-484661
-484738
-484823
-484781
-484713
-484844
-484912
-484945
-484987
-485005
-485076
-484925
-484999
-484839
-484797
-484703
-484634
-484501
-484332
-484180
-484109
-484046
-483833
-483575
-483450
-483284
-483137
-482934
-482825
-482682
-482511
-482333
-482249
-481940
-481784
-481653
-481505
-481342
-481172
-481075
-480910
-480825
-480707
-480557
-480397
-480360
-480179
-480198
-480020
-479976
-479885
-479710
-479717
-479699
-479675
-479724
-479726
-479727
-479758
-479781
-479842
-479908
-480023
-480141
-480312
-480366
-480572
-480783
-480942
-481034
-481259
-481554
-481774
-481907
-482229
-482541
-482775
-483058
-483316
-483622
-483949
-484206
-484551
-484871
-485145
-485510
-485852
-486069
-486037
-486163
-486378
-486560
-486839
-487075
-487399
-487733
-487773
-487854
-488033
-488284
-488452
-488683
-488888
-489065
-489195
-489482
-489744
-489912
-490128
-490333
-490593
-490717
-490828
-490947
-491165
-491422
-491599
-491838
-491963
-492130
-492389
-492517
-492752
-492872
-493078
-493244
-493398
-493628
-493802
-494008
-494074
-494397
-494581
-494724
-494882
-495055
-495136
-495368
-495432
-495650
-495737
-495928
-495929
-495986
-496110
-496155
-496156
-496197
-496204
-496240
-496116
-496065
-496035
-495952
-495888
-495758
-495675
-495540
-495318
-495208
-495058
-495017
-494769
-494748
-494772
-494738
-494758
-494618
-494526
-494381
-494311
-494309
-494202
-494035
-494059
-493897
-493808
-493701
-493524
-493322
-493247
-493165
-492939
-492706
-492537
-492240
-492100
-491896
-491686
-491451
-491130
-490859
-490687
-490417
-490101
-489850
-489423
-489048
-488570
-488144
-487739
-487277
-486774
-486274
-485789
-485260
-484610
-484103
-483477
-482921
-482520
-482021
-481569
-481182
-480749
-480387
-480118
-479913
-479646
-479428
-479319
-479134
-478976
-479152
-478941
-478829
-478685
-478623
-478664
-478801
-478715
-478694
-478628
-478578
-478690
-478787
-478985
-479156
-479198
-479294
-479463
-479637
-479850
-479976
-480123
-480300
-480569
-480846
-480997
-481341
-481565
-481879
-482198
-482434
-482749
-483062
-483315
-483609
-483930
-484263
-484485
-484910
-485158
-485372
-485739
-486002
-486210
-486566
-486872
-487131
-487453
-487720
-487958
-488204
-488483
-488697
-488945
-489178
-489424
-489747
-489976
-490193
-490407
-490620
-490740
-490998
-491239
-491348
-491585
-491856
-492121
-492364
-492503
-492654
-492833
-492947
-492980
-493039
-493027
-493047
-493095
-493094
-493032
-492944
-492779
-492666
-492459
-492431
-492335
-492167
-492057
-491916
-491695
-491479
-491340
-491166
-490998
-490909
-490676
-490554
-490520
-490437
-490227
-490017
-489912
-489779
-489587
-489360
-489096
-488935
-488859
-488602
-488448
-488282
-488161
-488008
-487953
-487820
-487660
-487547
-487464
-487414
-487281
-487182
-487209
-487157
-487362
-487138
-487001
-486960
-486930
-486895
-486930
-486905
-486921
-487043
-486953
-487017
-487011
-487071
-487076
-487222
-487268
-487324
-487342
-487403
-487395
-487543
-487580
-487632
-487835
-488060
-488158
-488323
-488475
-488642
-488795
-489018
-489085
-489097
-489193
-489349
-489506
-489662
-489845
-490060
-490253
-490542
-490722
-490962
-491075
-491356
-491575
-491703
-491798
-491775
-491866
-492079
-492344
-492584
-492894
-493164
-493238
-493232
-493280
-493383
-493534
-493858
-494120
-494272
-494370
-494445
-494554
-494685
-495002
-495229
-495301
-495481
-495536
-495707
-495822
-495980
-496228
-496294
-496418
-496544
-496681
-496762
-496801
-496925
-497052
-497209
-497214
-497197
-497249
-497252
-497206
-497197
-497045
-496957
-496890
-496803
-496664
-496395
-496302
-496181
-495986
-495866
-495616
-495503
-495352
-495291
-495092
-494906
-494843
-494686
-494615
-494496
-494414
-494317
-494334
-494218
-494253
-494189
-494190
-494154
-494249
-494202
-494178
-494315
-494371
-494495
-494525
-494618
-494656
-494784
-494854
-495031
-495146
-495285
-495335
-495455
-495568
-495642
-495828
-495904
-496112
-496182
-496293
-496437
-496662
-496779
-496840
-496942
-497127
-497253
-497343
-497602
-497687
-497796
-497913
-498032
-498174
-498251
-498402
-498457
-498613
-498762
-498900
-499010
-499169
-499305
-499423
-499493
-499679
-499761
-499892
-500084
-500260
-500405
-500593
-500789
-500890
-501040
-501144
-501174
-501296
-501238
-501515
-501677
-501715
-501917
-501964
-502138
-502154
-502308
-502446
-502462
-502588
-502995
-502642
-502601
-502488
-502414
-502358
-502219
-502065
-501947
-501650
-501382
-501076
-500774
-500301
-499971
-499445
-498988
-498551
-498079
-497652
-497119
-496550
-496043
-495484
-494978
-494474
-493966
-493487
-492871
-492459
-492083
-491735
-491276
-491001
-490724
-490412
-490117
-489901
-489622
-489518
-489353
-489268
-489141
-489034
-489017
-489014
-489063
-489089
-489088
-489156
-489262
-489327
-489632
-489666
-489915
-490076
-490244
-490436
-490600
-490877
-491166
-491362
-491675
-491843
-492201
-492375
-492629
-492874
-493109
-493475
-493791
-493990
-494242
-494459
-494706
-494936
-495160
-495515
-495762
-496012
-496250
-496413
-496601
-496800
-497032
-497201
-497429
-497623
-497705
-497875
-498063
-498071
-498322
-498425
-498580
-498680
-498756
-498947
-498927
-499096
-499312
-499354
-499447
-499497
-499601
-499683
-499792
-499892
-499926
-500054
-500165
-500231
-500352
-500376
-500427
-500586
-500661
-500684
-500686
-500862
-500906
-501002
-501099
-501199
-501235
-501297
-501436
-501514
-501521
-501665
-501754
-501832
-501886
-501919
-502065
-502178
-502195
-502333
-502315
-502408
-502426
-502484
-502488
-502505
-502517
-502446
-502374
-502322
-502276
-502239
-502223
-502073
-501919
-501785
-501649
-501438
-501375
-501138
-500930
-500720
-500746
-500759
-500730
-500647
-500422
-500270
-500088
-499973
-499858
-499788
-499746
-499709
-499506
-499311
-499140
-499130
-499001
-498979
-498814
-498626
-498594
-498449
-498341
-498272
-498132
-497977
-497960
-497788
-497692
-497706
-497663
-497600
-497420
-497371
-497246
-497271
-497237
-497052
-497110
-497054
-497013
-497034
-497043
-496959
-497004
-497001
-497035
-497000
-496931
-497014
-497024
-497116
-497122
-497123
-497113
-497086
-497129
-497198
-497235
-497322
-497455
-497620
-497832
-497979
-498150
-498466
-498712
-498982
-499139
-499610
-499818
-500239
-500597
-500933
-501289
-501644
-502034
-502418
-502698
-502938
-503440
-503738
-504011
-504168
-504499
-504845
-505132
-505435
-505598
-505934
-506179
-506428
-506730
-507006
-507245
-507468
-507694
-507895
-508078
-508326
-508477
-508741
-508986
-509095
-509368
-509498
-509729
-509942
-510170
-510385
-510525
-510718
-512865
-512969
-513140
-513331
-513316
-513530
-513752
-513865
-513992
-514047
-514157
-514328
-514515
-514627
-514786
-515084
-515248
-515412
-515513
-515577
-515716
-515794
-515862
-516093
-516077
-516137
-516087
-516288
-516286
-516244
-516305
-516326
-516354
-516296
-516279
-516308
-516205
-516123
-515962
-515863
-515775
-515614
-515439
-515172
-514907
-514685
-514383
-514052
-513678
-513277
-512908
-512422
-511926
-511397
-510777
-510231
-509659
-509063
-508420
-507816
-507231
-506598
-506047
-505533
-505058
-504557
-503980
-503399
-502797
-502349
-501913
-501588
-501247
-500844
-500470
-500170
-499786
-499425
-499225
-499004
-498885
-498737
-498587
-498390
-498256
-498098
-498061
-497959
-497947
-498069
-498131
-498144
-498216
-498175
-498233
-498316
-498439
-498511
-498595
-498737
-498823
-499002
-499161
-499258
-499497
-499644
-499767
-499925
-500094
-500137
-500306
-500573
-500626
-500808
-500935
-501098
-501325
-501466
-501515
-501583
-501747
-501937
-502053
-502155
-502288
-502417
-502550
-502706
-502962
-503268
-503559
-503780
-503818
-503886
-504007
-504176
-504280
-504388
-504480
-504607
-504860
-504969
-505112
-505267
-505423
-505522
-505734
-505962
-506178
-506238
-506370
-506512
-506553
-506723
-506941
-507075
-507127
-507405
-507565
-507724
-507841
-508045
-508184
-508319
-508426
-508606
-508655
-508771
-508804
-508916
-509010
-509166
-509182
-509310
-509407
-509537
-509524
-509563
-509616
-509660
-509793
-509732
-509772
-509865
-509846
-509923
-509986
-509956
-509905
-509885
-509892
-509907
-509808
-509784
-509798
-509718
-509659
-509706
-509627
-509613
-509494
-509432
-509304
-509318
-509194
-509063
-508999
-508970
-508878
-508809
-508737
-508722
-508572
-508469
-508482
-508453
-508313
-508321
-508172
-508175
-508196
-508130
-508079
-508113
-508114
-508116
-508050
-508330
-508129
-508183
-508224
-508266
-508265
-508232
-508380
-508431
-508575
-508525
-508586
-508611
-508726
-508813
-508937
-509065
-509066
-509235
-509361
-509358
-509368
-509452
-509599
-509598
-509780
-509739
-509902
-509959
-510083
-510151
-510156
-510275
-510322
-510367
-510472
-510527
-510657
-510685
-510800
-510825
-510934
-510977
-511025
-511127
-511251
-511365
-511483
-511512
-511613
-511692
-511744
-511917
-511906
-512054
-512235
-512316
-512392
-512554
-512719
-512836
-512939
-512987
-513236
-513345
-513507
-513542
-513730
-513850
-514039
-514106
-514169
-514214
-514311
-514419
-514522
-514609
-514651
-514733
-514752
-514814
-514798
-514924
-515024
-514969
-515071
-514997
-515118
-515073
-515137
-515169
-515052
-515100
-515153
-515169
-515146
-515172
-515165
-515108
-515133
-515257
-515636
-515962
-516091
-516060
-515988
-515871
-515947
-516053
-516273
-516468
-516540
-516618
-516505
-516476
-516475
-516595
-516831
-516864
-517003
-516980
-516807
-516815
-516758
-516799
-516874
-516973
-517016
-516861
-516661
-516499
-516297
-516052
-515801
-515463
-515175
-514843
-514469
-514183
-513825
-513346
-512774
-512209
-511734
-511182
-510579
-509967
-509432
-508894
-508372
-507946
-507580
-507221
-506850
-506321
-505827
-505335
-504939
-504560
-504254
-503977
-503639
-503394
-503112
-502894
-502848
-502845
-502783
-502707
-502585
-502471
-502422
-502311
-502347
-502221
-502306
-502398
-502417
-502498
-502519
-502684
-502714
-502897
-502975
-503136
-503420
-503898
-503761
-503929
-504166
-504368
-504500
-504743
-505004
-505348
-505465
-505755
-506008
-506276
-506568
-506825
-507050
-507304
-507490
-507672
-507938
-508118
-508387
-508566
-508765
-508902
-508964
-509272
-509350
-509478
-509620
-509779
-509827
-509898
-510096
-510234
-510166
-510264
-510373
-510395
-510370
-510348
-510398
-510506
-510485
-510525
-510461
-510520
-510519
-510375
-510285
-510449
-510545
-510633
-510740
-510777
-510810
-510858
-510910
-510997
-511093
-511163
-511382
-511460
-511495
-511685
-511764
-511883
-512040
-512225
-512376
-512478
-512634
-512862
-513018
-513172
-513203
-513360
-513463
-513649
-513775
-513900
-513975
-514088
-514155
-514304
-514292
-514314
-514394
-514515
-514483
-514538
-514547
-514636
-514690
-514701
-514668
-514810
-514878
-514806
-514834
-514835
-514874
-515008
-515041
-515009
-514980
-515015
-515010
-515077
-515070
-515172
-515187
-515180
-515229
-515169
-515175
-515158
-515560
-515111
-514980
-514982
-514957
-514952
-514956
-514951
-514881
-514869
-514864
-514837
-514786
-514756
-514739
-514762
-514719
-514610
-514551
-514641
-514584
-514517
-514565
-514508
-514505
-514522
-514508
-514491
-514455
-514453
-514438
-514316
-514417
-514294
-514376
-514396
-514358
-514344
-514219
-514304
-514252
-514276
-514240
-514278
-514179
-514268
-514280
-514181
-514127
-514209
-514184
-514246
-514201
-514195
-514129
-514257
-514203
-514239
-514149
-514017
-514179
-514251
-514286
-514402
-514466
-514449
-514590
-514589
-514645
-514708
-514786
-514880
-514885
-514913
-515050
-515133
-515231
-515190
-515307
-515341
-515425
-515417
-515802
-515714
-515775
-515831
-515894
-515931
-515989
-516087
-516215
-516364
-516381
-516806
-516604
-516587
-516590
-516622
-516681
-516764
-516859
-516910
-516990
-517124
-517182
-517202
-517147
-517245
-517336
-517341
-517356
-517330
-517428
-517541
-517557
-517525
-517566
-517597
-517583
-517642
-517576
-517529
-517535
-517512
-517413
-517264
-517149
-516952
-516800
-516486
-516150
-515874
-515583
-515136
-514693
-514336
-513871
-513405
-512972
-512470
-511900
-511388
-510718
-510313
-509795
-509270
-508735
-508203
-507725
-507221
-506818
-506349
-505929
-505519
-505133
-504760
-504441
-504143
-503825
-503542
-503320
-503146
-502881
-502783
-502579
-502498
-502395
-502259
-502194
-502157
-501961
-502162
-502157
-502173
-502210
-502274
-502374
-502446
-502620
-502645
-502659
-502852
-502892
-502993
-503249
-503383
-503460
-503527
-503679
-504018
-503992
-504091
-504186
-504296
-504440
-504504
-504691
-504764
-504951
-505037
-505175
-505346
-505387
-505535
-505540
-505710
-505774
-505913
-505932
-506236
-506095
-506182
-506255
-506306
-506276
-506338
-506438
-506437
-506454
-506500
-506528
-506446
-506521
-506541
-506737
-506951
-506964
-507037
-507005
-507046
-507065
-507054
-507075
-507064
-507160
-507246
-507361
-507387
-507524
-507657
-507679
-507728
-507795
-507931
-507991
-508126
-508079
-508176
-508173
-508272
-508344
-508422
-508464
-508533
-508644
-508765
-508783
-508724
-508877
-509135
-508997
-509093
-508981
-509077
-509054
-509090
-509158
-509136
-509029
-509062
-509113
-509151
-509142
-509061
-508993
-509006
-508954
-508846
-508875
-508843
-508812
-508745
-508704
-508689
-508687
-508581
-508586
-508531
-508511
-508523
-508469
-508356
-508339
-508303
-508353
-508279
-508254
-508230
-508187
-508248
-508192
-508132
-508185
-508199
-508180
-508285
-508225
-508281
-508275
-508262
-508374
-508419
-508437
-508552
-508605
-508620
-508572
-508667
-508733
-508814
-508926
-509043
-509042
-509174
-509277
-509428
-509465
-509554
-509608
-509644
-509755
-509823
-509915
-510054
-510023
-510153
-510204
-510183
-510280
-510264
-510332
-510363
-510413
-510396
-510488
-510431
-510416
-510353
-510397
-510403
-510421
-510446
-510465
-510528
-510482
-510527
-510572
-510632
-510625
-510708
-510722
-510976
-511091
-511228
-511395
-511367
-511548
-511747
-511913
-512013
-512120
-512386
-512542
-512768
-512919
-513030
-513195
-513424
-513543
-514108
-514002
-514201
-514244
-514374
-514514
-514725
-514904
-515059
-515259
-515370
-515548
-515664
-515864
-516002
-516047
-516121
-516302
-516387
-516458
-516614
-516727
-516857
-517243
-517348
-517448
-517472
-517519
-517647
-517814
-517839
-517840
-517895
-517886
-517935
-518057
-518082
-518072
-518094
-518007
-518029
-517985
-517966
-517924
-517778
-517725
-517628
-517437
-517186
-516952
-516663
-516353
-516062
-515637
-515255
-514823
-514411
-513894
-513340
-512871
-512270
-511748
-511129
-510568
-510112
-509584
-509026
-508814
-507982
-507409
-507360
-506492
-505931
-505388
-504918
-504581
-504200
-503740
-503395
-503076
-502736
-502575
-502171
-501854
-501572
-501449
-501258
-501078
-500942
-500761
-500648
-500536
-500447
-500260
-500191
-500171
-500058
-500018
-499938
-499962
-499973
-499884
-499841
-499794
-499849
-499922
-499877
-499975
-499935
-499926
-500028
-500080
-500145
-500227
-500246
-500210
-500310
-500343
-500403
-500507
-500600
-500750
-500787
-500736
-500879
-500963
-501007
-501094
-501129
-501179
-501263
-501387
-501522
-501524
-501689
-501761
-501828
-501834
-501955
-501985
-502003
-502006
-501989
-501997
-502103
-502102
-502130
-502169
-502226
-502290
-502279
-502312
-502324
-502456
-502556
-502518
-502572
-502647
-502733
-502850
-502942
-503032
-503126
-503216
-503281
-503310
-503548
-503686
-503812
-503920
-504082
-504242
-504140
-504407
-504539
-504732
-504768
-504885
-504994
-505177
-505205
-505417
-505450
-505580
-505684
-505669
-505747
-505895
-505892
-505891
-505939
-506053
-505951
-506073
-505964
-506109
-506117
-506048
-506309
-506078
-505989
-505927
-505805
-505804
-505742
-505711
-505593
-505624
-505619
-505537
-505462
-505336
-505335
-505336
-505306
-505229
-505208
-505109
-505141
-505121
-505196
-505149
-505132
-505129
-505186
-505191
-505160
-505188
-505479
-505416
-505317
-505413
-505365
-505411
-505463
-505515
-505596
-505589
-505631
-505737
-505723
-505815
-505770
-505871
-505932
-505999
-506083
-506043
-506116
-506185
-506165
-506153
-506126
-506194
-506227
-506283
-506375
-506378
-506504
-506484
-506451
-506541
-506579
-506558
-506574
-506600
-506530
-506617
-506734
-506824
-506825
-506852
-506879
-506941
-506954
-507139
-507149
-507115
-507297
-507323
-507445
-507444
-507450
-507457
-507622
-507713
-507770
-507823
-507819
-507951
-508066
-508092
-508061
-508090
-508186
-508248
-508353
-508388
-508470
-508436
-508462
-508642
-508537
-508591
-508630
-508726
-508804
-508882
-508849
-508841
-508891
-508897
-508894
-508959
-509001
-509048
-509118
-509067
-509081
-509328
-509490
-509312
-509148
-509226
-509203
-509287
-509341
-509273
-509368
-509446
-509579
-509577
-509596
-509646
-509637
-509731
-509734
-509742
-509810
-509936
-510069
-510025
-510003
-510002
-510077
-509987
-510005
-510032
-510104
-510070
-510039
-510079
-510067
-510166
-510045
-510123
-510109
-510086
-510115
-510095
-510126
-510160
-510006
-510044
-509952
-509968
-509821
-509697
-509656
-509481
-509258
-509034
-508822
-508581
-508281
-508072
-507658
-507174
-506820
-506319
-505844
-505337
-504832
-504617
-503836
-503236
-502675
-502135
-501607
-501050
-500528
-500018
-499411
-498949
-498481
-498028
-497501
-497122
-496644
-496329
-495936
-495473
-495187
-494953
-494750
-494505
-494293
-494135
-493946
-493850
-493684
-493574
-493552
-493545
-493506
-493449
-493444
-493503
-493592
-493648
-493762
-493858
-493995
-494074
-494232
-494415
-494498
-494767
-494898
-495061
-495226
-495339
-495551
-495731
-495875
-496133
-496289
-496463
-496574
-496780
-497010
-497214
-497317
-497526
-497623
-497739
-497867
-498049
-498230
-498320
-498433
-498437
-498596
-498664
-498654
-498866
-498806
-498909
-499053
-499019
-499110
-499132
-499157
-499151
-499193
-499169
-499112
-499125
-499122
-499105
-499302
-499170
-499107
-499033
-499001
-499059
-498976
-499014
-499320
-499024
-498902
-498978
-499078
-499047
-499085
-498987
-499100
-499198
-499224
-499326
-499371
-499403
-499543
-499569
-499712
-499767
-499826
-499876
-499988
-500013
-500098
-500178
-500228
-500247
-500364
-500353
-500383
-500361
-500466
-500489
-500507
-500444
-500500
-500489
-500411
-500933
-500564
-500400
-500319
-500301
-500281
-500229
-500138
-500093
-500007
-499999
-499867
-499882
-499887
-499835
-499688
-499664
-499566
-499277
-499346
-499282
-499266
-499207
-499174
-499109
-499006
-499052
-499001
-498920
-498830
-498879
-498814
-498773
-498707
-498576
-498688
-498672
-498657
-498665
-498669
-498775
-498689
-498685
-498765
-498760
-498736
-498653
-498729
-498778
-498773
-498795
-498798
-498865
-498917
-498952
-498881
-498922
-499029
-499000
-499059
-499054
-499157
-499127
-499189
-499185
-499177
-499186
-499221
-499191
-499190
-499171
-499098
-499058
-499033
-498950
-498953
-498867
-498808
-498757
-498618
-498539
-498482
-498451
-498345
-498269
-498236
-498228
-498117
-498045
-498038
-497923
-497920
-498137
-498562
-498749
-498887
-498751
-498722
-498644
-498657
-498634
-498663
