PPG
-608167
-608199
-608287
-608252
-607990
-607840
-607778
-607872
-608501
-608346
-608502
-608656
-608697
-608552
-608365
-608276
-608297
-608249
-608417
-608742
-608935
-609193
-609158
-609120
-608745
-608808
-608810
-608940
-609089
-609385
-609705
-609808
-609852
-609754
-609620
-609462
-609435
-609462
-609733
-609926
-610138
-610038
-610152
-610217
-609953
-609847
-609832
-609830
-610002
-610175
-610473
-610531
-610372
-610352
-610149
-610042
-609964
-609918
-610126
-610248
-610468
-610585
-610516
-610410
-610202
-609994
-609879
-609856
-610008
-610140
-610445
-610481
-610352
-610295
-610010
-609899
-609841
-609793
-609938
-610121
-610408
-610510
-610492
-610377
-610090
-609995
-609943
-609861
-610042
-610310
-610468
-610652
-610587
-610497
-610213
-610052
-610130
-610150
-610297
-610488
-610783
-610886
-610932
-610818
-610626
-610513
-610462
-610451
-610672
-610957
-611085
-611276
-611289
-611214
-610977
-610885
-610837
-610920
-611139
-611282
-611548
-611680
-611710
-612069
-611577
-611383
-611303
-611383
-611583
-611618
-611931
-612101
-612059
-612050
-611844
-611848
-611788
-611701
-611935
-612172
-612587
-612629
-612485
-612222
-612139
-612171
-612204
-612454
-612582
-612826
-612939
-612735
-612829
-612677
-612527
-612560
-612505
-612793
-612981
-613205
-613307
-613301
-613121
-612951
-612873
-612894
-612875
-613090
-613365
-613562
-613643
-613629
-613557
-613129
-613227
-613195
-613245
-613404
-613602
-613905
-614056
-614041
-613903
-613643
-613642
-613416
-613539
-613752
-613893
-614235
-614294
-614450
-614352
-614119
-614081
-614004
-614062
-614084
-614448
-614738
-614865
-614855
-614750
-614576
-614456
-614488
-614547
-614806
-615036
-615284
-615414
-615344
-615203
-614998
-614884
-614900
-614896
-615167
-615395
-615621
-615709
-615739
-615880
-615581
-615414
-615352
-615865
-615672
-615825
-615945
-616122
-616174
-615957
-615632
-615637
-615704
-615737
-615875
-616176
-616684
-616630
-616587
-616463
-616247
-616079
-616026
-616052
-616288
-616446
-616732
-616730
-616833
-616559
-616439
-616333
-616339
-616267
-616482
-616696
-616973
-617005
-617114
-616866
-616751
-616653
-616600
-616680
-616866
-616993
-617283
-617409
-617468
-617245
-617029
-616973
-616933
-616883
-616962
-617316
-617540
-617628
-617700
-617549
-617294
-617235
-617171
-617145
-617412
-618011
-617875
-617819
-617820
-617682
-617537
-617423
-617345
-617392
-617533
-617733
-618054
-618140
-618123
-617910
-617638
-617617
-617654
-617605
-617875
-618101
-618267
-618283
-618434
-618251
-617990
-617956
-617945
-617877
-618072
-618371
-618608
-618688
-618842
-618648
-618449
-618325
-618213
-618271
-618513
-618777
-619006
-619031
-619115
-618879
-618710
-618645
-618664
-618621
-618801
-619022
-619309
-619422
-619290
-619168
-618899
-618716
-618600
-618467
-618579
-618553
-618571
-618409
-618230
-617690
-617202
-616766
-616328
-616007
-615888
-615705
-615441
-615164
-614888
-614310
-613722
-613304
-612962
-612602
-612462
-612329
-612260
-611942
-611814
-611344
-610833
-610502
-610277
-610110
-610030
-610075
-610098
-610058
-609976
-609560
-609228
-609190
-609078
-608940
-609110
-609230
-609452
-609493
-609528
-609291
-609058
-609014
-608986
-608989
-609229
-609397
-609718
-609838
-609973
-609716
-609574
-609558
-609599
-609701
-609964
-610151
-610436
-610643
-610761
-610625
-610445
-610414
-610435
-610566
-610845
-611134
-611395
-611549
-611648
-611461
-611313
-611294
-611327
-611381
-611628
-611849
-612171
-612249
-612469
-612232
-612008
-611950
-612011
-612044
-612310
-612586
-612663
-612926
-612790
-612471
-612567
-613162
-613291
-613234
-613437
-613730
-613994
-614200
-614611
-614434
-614056
-614652
-614420
-614135
-614110
-614025
-614021
-614221
-614415
-614621
-614685
-614744
-614467
-614305
-614216
-614075
-614088
-614764
-614601
-614688
-614753
-614779
-614252
-614196
-614181
-614121
-614151
-614342
-614430
-614651
-614741
-614763
-614353
-614232
-614166
-614141
-614100
-614288
-614478
-614746
-614656
-614690
-614478
-614152
-614136
-614105
-614068
-614381
-614562
-614663
-614679
-614731
-614372
-614299
-614226
-614176
-614494
-614515
-614679
-614807
-614824
-614894
-614671
-614463
-614350
-614323
-614391
-614608
-614792
-614916
-614945
-615087
-614826
-614714
-614647
-614621
-614595
-614860
-615039
-615193
-615316
-615391
-615036
-614855
-614892
-614870
-614901
-615202
-615435
-615585
-615719
-615776
-615592
-615396
-615333
-615342
-615393
-615674
-616009
-616176
-616263
-616340
-616058
-615939
-615935
-616017
-616062
-616311
-616517
-616678
-616869
-616894
-616668
-616468
-616515
-616561
-616577
-616818
-617088
-617236
-617447
-617475
-617226
-617065
-617104
-617021
-617112
-617823
-617804
-617906
-617957
-618031
-617734
-617571
-617611
-617663
-617704
-617954
-618249
-618314
-618427
-618555
-618276
-618211
-618052
-618055
-618157
-618397
-618605
-618780
-618834
-618942
-618692
-618543
-618476
-618499
-618526
-618728
-619030
-619195
-619212
-619252
-619042
-618902
-618813
-618866
-618915
-619193
-619399
-619510
-619609
-619677
-619388
-619200
-619125
-619093
-619119
-619338
-619689
-619869
-619927
-619866
-619605
-619464
-619413
-619430
-619473
-619600
-619831
-620019
-620115
-620049
-619870
-619684
-619634
-619595
-619659
-619881
-620175
-620251
-620376
-620280
-620104
-620006
-619902
-619961
-619942
-620092
-620397
-620607
-620713
-620648
-620402
-620230
-620276
-620149
-620238
-620471
-620788
-620916
-620926
-620864
-620685
-620537
-620837
-620518
-620567
-620731
-621013
-621147
-621247
-621205
-621011
-620817
-620794
-620819
-620913
-621190
-621376
-621496
-621540
-621624
-621341
-621233
-621231
-621219
-621231
-621469
-621732
-621828
-622044
-621968
-621751
-621554
-621590
-621617
-621640
-621873
-622075
-622343
-622355
-622346
-622137
-621998
-621930
-621924
-622045
-622269
-622526
-622636
-622695
-622687
-622414
-622252
-622222
-622168
-622250
-622498
-622860
-622968
-623012
-622953
-622659
-622574
-622512
-622464
-622496
-622719
-622896
-622998
-622990
-622820
-622447
-622233
-621939
-621731
-621550
-621508
-621303
-621065
-620713
-620182
-619736
-619185
-618842
-618535
-618346
-618264
-617995
-617682
-617358
-616790
-616332
-615946
-615639
-615372
-615324
-615362
-615260
-615060
-614718
-614271
-613912
-613636
-613544
-613477
-613555
-613675
-613632
-613563
-613404
-613068
-612841
-612714
-612646
-612768
-612972
-613121
-613116
-613215
-613115
-612823
-612659
-612672
-612723
-612855
-613070
-613352
-613520
-613579
-613563
-613333
-613235
-613200
-613271
-613431
-613732
-614063
-614233
-614303
-614315
-614167
-614043
-614047
-614075
-614190
-614435
-614740
-614932
-614985
-615044
-614845
-614705
-614667
-614766
-614973
-615150
-615442
-615640
-615620
-615710
-615421
-615261
-615280
-615351
-615507
-615700
-615978
-616131
-616237
-616220
-616016
-615866
-615890
-615940
-616029
-616235
-616524
-616684
-616744
-616646
-616470
-616430
-616423
-616488
-616561
-616839
-617134
-617248
-617377
-617306
-617067
-616994
-617007
-617042
-617148
-617360
-617697
-617882
-617901
-617812
-617669
-617518
-617432
-617458
-617599
-617752
-618067
-617910
-618087
-618045
-617845
-617719
-617611
-617595
-617751
-617964
-618209
-618267
-618212
-618107
-617776
-617718
-617658
-617615
-617656
-617806
-617972
-618004
-618030
-618001
-617684
-617486
-617404
-617421
-617513
-617570
-617818
-617801
-617945
-617767
-617442
-617315
-617273
-617245
-617275
-617436
-617741
-617785
-617720
-617700
-617448
-617254
-617133
-617174
-617298
-617432
-617640
-618072
-617874
-617731
-617516
-617402
-617411
-617296
-617441
-617669
-617945
-618063
-618021
-617898
-617796
-617673
-617650
-617709
-617794
-618032
-618216
-618477
-618523
-618365
-618121
-617997
-618054
-618064
-618261
-618385
-618698
-618871
-618918
-618808
-618551
-618467
-618356
-618443
-618553
-618860
-619142
-619242
-619275
-619165
-618930
-618912
-618968
-618922
-619048
-619260
-619518
-619696
-619676
-619642
-619424
-619344
-619335
-619257
-619403
-619635
-619980
-620105
-620134
-620063
-619859
-619682
-619630
-619736
-619836
-620059
-620379
-620449
-620377
-620378
-620162
-620035
-620099
-620021
-620194
-620487
-620678
-620782
-620804
-620759
-620567
-620423
-620471
-620407
-620584
-620690
-620991
-621155
-621143
-620967
-620786
-620738
-620683
-620773
-620899
-621095
-621233
-621474
-621475
-621389
-621158
-621067
-621009
-620984
-621165
-621429
-621638
-621768
-621715
-621718
-621442
-621315
-621275
-621237
-621497
-621662
-621959
-622090
-622093
-622008
-621760
-621686
-621693
-621623
-621721
-621996
-622269
-622381
-622393
-622194
-622039
-621947
-621913
-621825
-622064
-622244
-622544
-622637
-622651
-622536
-622343
-622219
-622174
-622079
-622357
-622520
-622658
-622828
-622857
-622562
-622793
-622993
-623125
-623149
-623129
-622884
-622693
-622654
-622612
-622907
-623116
-623357
-623414
-623447
-623315
-623066
-623057
-622998
-622927
-623174
-623467
-623595
-623743
-623775
-623629
-623480
-623367
-623284
-623263
-623540
-623744
-623932
-624041
-624022
-623928
-623763
-623677
-623665
-623624
-623702
-623946
-624157
-624235
-624066
-623880
-623522
-623295
-623117
-622912
-622759
-622731
-622743
-622593
-622218
-621802
-621273
-620793
-620409
-620057
-619878
-619688
-619539
-619269
-618923
-618506
-617876
-617503
-617203
-616787
-616666
-616690
-616726
-616500
-616167
-615867
-615453
-615098
-614918
-614758
-614788
-614910
-615065
-614995
-614800
-614635
-614302
-614220
-614125
-614088
-614310
-614395
-614650
-614723
-614783
-614649
-614392
-614307
-614330
-614348
-614591
-614909
-615166
-615256
-615310
-615232
-615113
-614997
-615129
-615159
-615439
-615746
-615956
-616104
-616256
-616236
-615992
-615952
-615949
-616050
-616247
-616617
-616804
-616920
-616963
-616955
-616780
-616746
-616758
-616821
-616989
-617305
-617506
-617675
-617618
-617594
-617399
-617348
-617267
-617365
-617589
-617810
-618077
-618227
-618151
-618064
-617882
-617869
-617887
-617921
-617896
-618319
-618501
-618638
-618675
-618604
-618415
-618306
-618398
-618351
-618636
-618811
-619493
-619345
-619254
-619143
-619063
-618922
-618886
-618899
-619178
-619286
-619549
-619751
-619704
-619570
-619417
-619315
-619310
-619341
-619524
-619541
-619810
-619948
-619927
-619852
-619599
-619475
-619396
-619302
-619525
-619647
-619808
-619922
-619806
-619679
-619488
-619240
-619137
-619100
-619307
-619454
-619612
-619705
-619567
-619441
-619292
-619089
-619049
-618961
-619062
-619219
-619511
-619416
-619396
-619370
-619110
-618881
-618932
-618908
-618995
-619210
-619406
-619409
-619420
-619307
-619068
-618970
-618858
-618919
-619050
-619286
-619545
-619654
-619578
-619574
-619311
-619213
-619155
-619125
-619305
-619579
-619834
-619972
-619853
-619825
-619539
-619467
-619456
-619463
-619790
-619998
-620265
-620369
-620350
-620207
-620094
-620048
-620027
-620097
-620318
-620544
-620746
-620844
-620825
-620781
-620642
-620608
-620544
-620653
-620788
-621040
-621266
-621400
-621439
-621253
-621099
-621019
-621072
-621288
-621501
-621720
-621860
-621838
-621732
-621571
-621455
-621469
-621470
-621673
-621897
-622181
-622269
-622211
-622110
-621908
-621869
-621839
-621782
-621994
-622261
-622388
-622585
-622622
-622509
-622313
-622262
-622277
-622352
-622464
-622599
-622866
-622983
-623057
-622906
-622684
-622588
-622637
-622693
-622840
-623025
-623283
-623342
-623400
-623250
-623077
-622998
-622896
-622854
-623081
-623374
-623508
-623640
-623687
-623471
-623237
-623144
-623169
-623620
-623509
-623598
-623794
-623857
-623847
-623745
-623573
-623766
-623498
-623425
-623627
-623854
-624085
-624130
-624109
-624021
-623814
-623653
-623765
-623737
-623995
-624132
-624422
-624405
-624394
-624333
-624039
-623973
-624002
-624079
-624185
-624345
-624557
-624683
-624710
-624547
-624317
-624195
-624238
-624271
-624438
-624519
-624869
-624960
-624923
-624765
-624642
-624551
-624565
-624602
-624821
-624976
-625159
-625253
-625312
-625266
-624984
-624908
-624966
-624902
-625044
-625230
-625485
-625657
-625682
-625524
-625308
-625184
-625182
-625242
-625432
-625891
-625807
-625914
-625959
-625709
-625552
-625508
-625479
-625478
-625704
-625824
-625966
-625991
-626033
-625780
-625488
-625121
-624914
-624760
-624804
-624698
-624633
-624342
-624084
-623499
-622863
-622347
-621991
-621646
-621357
-621137
-620966
-620552
-620178
-619601
-619611
-618664
-618189
-617817
-617759
-617534
-617421
-617155
-616865
-616486
-616010
-615663
-615331
-615141
-615230
-615144
-615213
-615099
-614996
-614729
-614434
-614155
-614169
-614087
-614201
-614303
-614497
-614510
-614503
-614420
-614200
-614052
-614020
-614046
-614270
-614533
-614738
-614783
-614921
-614803
-614601
-614593
-614667
-614611
-614796
-615025
-615395
-615535
-615617
-615514
-615206
-615169
-615213
-615126
-615452
-615788
-616371
-616253
-616238
-616098
-615859
-615758
-615787
-615808
-616060
-616236
-616428
-616521
-616624
-616494
-616287
-616158
-616118
-616234
-616378
-616522
-616789
-616873
-616992
-616810
-616595
-616490
-616359
-616394
-616543
-616738
-616938
-617024
-617068
-616906
-616651
-616627
-616577
-616766
-616924
-616994
-617266
-617331
-617107
-617224
-616993
-616881
-616897
-617203
-617454
-617694
-618198
-617908
-617758
-617528
-617394
-617494
-617555
-617749
-618009
-618174
-618330
-618402
-618166
-617992
-617872
-617910
-617963
-618067
-618306
-618537
-618539
-618695
-618544
-618295
-618176
-618142
-618203
-618322
-618552
-618761
-618807
-618817
-618933
-618416
-618228
-618144
-618197
-618442
-618553
-618808
-618799
-618765
-618541
-618249
-618128
-618116
-618083
-618181
-618376
-618592
-618723
-618795
-618554
-618289
-618046
-618106
-618038
-618269
-618456
-618642
-618767
-618799
-618493
-618304
-618230
-618242
-618194
-618388
-618523
-618816
-618842
-619006
-618690
-618698
-618863
-619097
-619179
-619318
-619038
-618848
-618704
-618679
-618725
-618949
-619167
-619447
-619548
-619528
-619332
-619174
-619118
-619115
-619122
-619359
-619536
-619857
-619986
-620123
-619827
-619686
-619535
-619397
-619493
-619859
-620061
-620314
-620435
-620420
-620278
-620111
-620069
-620074
-619975
-620301
-620456
-620632
-620833
-620945
-620723
-620480
-620460
-620406
-620489
-620646
-620893
-621071
-621156
-621225
-621080
-620785
-620678
-620713
-620854
-621003
-621209
-621493
-621524
-621693
-621407
-621189
-621094
-621097
-621145
-621361
-621556
-621746
-621899
-621972
-621694
-621502
-621512
-621573
-621829
-622001
-622163
-622077
-622289
-622071
-621864
-621836
-621826
-621792
-622109
-622396
-622505
-622556
-622678
-622416
-622180
-622175
-622155
-622212
-622465
-622652
-622768
-622947
-622994
-622722
-622635
-622516
-622444
-622522
-622741
-623000
-623225
-623268
-623363
-623111
-622888
-622872
-622866
-622830
-623011
-623168
-623756
-623555
-623593
-623250
-623010
-622987
-623014
-623051
-623237
-623430
-623651
-623721
-623830
-623555
-623357
-623277
-623324
-623293
-623579
-623695
-623860
-623916
-624026
-623828
-623609
-623637
-623547
-623519
-623814
-624101
-624206
-624377
-624276
-624048
-623892
-623798
-623874
-623916
-624118
-624275
-624531
-624553
-624632
-624192
-624121
-624165
-624130
-624366
-624431
-624736
-624942
-624711
-624536
-624492
-624516
-624460
-624701
-624917
-625139
-625225
-625396
-625143
-624848
-624835
-624892
-624814
-625089
-625259
-625504
-625645
-625661
-625384
-625757
-625823
-625276
-625087
-625001
-624775
-624681
-624668
-624678
-624536
-624210
-623911
-623568
-622755
-622269
-621923
-621412
-621207
-620955
-620774
-620400
-619966
-619341
-618690
-618176
-617775
-617453
-617296
-617068
-616936
-616730
-616429
-615803
-615310
-615101
-615262
-614681
-614589
-614527
-614538
-614444
-614392
-614007
-613624
-613524
-613446
-613295
-613522
-613644
-614230
-613937
-613748
-613339
-613272
-613269
-613345
-613324
-613562
-613692
-613868
-614073
-614145
-613865
-613690
-613717
-613752
-613829
-614020
-614290
-614513
-614575
-614642
-614457
-614345
-614301
-614290
-614304
-614672
-614942
-614998
-615073
-615233
-614981
-614840
-614811
-614665
-614646
-614947
-615132
-615368
-615395
-615530
-615158
-614955
-614888
-615106
-614796
-615093
-615282
-615454
-615589
-615540
-615661
-615184
-615084
-615069
-614911
-615199
-615351
-615492
-615600
-615573
-615327
-615077
-615115
-615098
-615084
-615342
-615517
-615670
-615760
-615815
-615535
-615418
-615189
-615352
-615437
-615684
-615970
-616170
-616248
-616294
-616001
-615876
-615872
-615905
-615964
-616694
-616682
-616690
-616815
-616891
-616594
-616404
-616411
-616447
-616376
-616692
-617004
-617148
-617224
-617229
-616960
-616771
-616768
-616782
-616777
-617058
-617236
-617403
-617461
-617560
-617142
-616871
-616870
-616792
-616787
-617084
-617238
-617257
-617346
-617411
-617094
-616865
-616874
-617254
-616946
-617011
-617258
-617302
-617375
-617416
-617099
-616834
-616817
-616724
-616707
-616877
-617080
-617268
-617308
-617332
-617038
-616915
-616875
-617139
-616957
-617073
-617205
-617329
-617408
-617476
-617188
-616989
-616896
-616941
-616997
-617233
-617493
-617622
-617659
-617694
-617972
-617492
-617262
-617224
-617242
-617579
-617800
-618004
-617939
-618078
-617796
-617663
-617660
-617643
-617635
-618383
-618281
-618397
-618468
-618506
-618267
-618090
-618141
-618065
-617938
-618295
-618556
-618775
-618856
-618901
-618690
-618544
-618536
-618567
-618560
-618847
-619101
-619070
-619297
-619424
-619176
-618938
-618988
-618961
-618990
-619250
-619562
-619680
-619754
-619770
-619496
-619326
-619360
-619347
-619315
-619633
-619892
-620103
-620252
-620218
-619833
-619816
-619772
-619770
-619803
-619941
-620085
-620461
-620535
-620599
-620326
-620121
-620095
-620062
-620141
-620397
-620585
-620799
-620910
-620889
-620600
-620492
-620452
-620435
-620446
-620697
-620957
-621081
-621172
-621149
-620960
-620861
-620737
-620702
-620728
-620795
-621246
-621435
-621496
-621489
-621330
-621127
-621055
-621126
-621130
-621406
-621581
-621700
-621837
-621784
-621636
-621365
-621359
-621363
-621399
-621665
-621856
-622115
-622212
-622179
-621899
-621703
-621675
-621600
-621737
-621903
-622196
-622333
-622356
-622424
-622175
-622048
-621955
-622021
-622049
-622198
-622459
-622646
-622743
-622690
-622498
-622375
-622261
-622291
-622350
-622551
-622823
-623034
-623005
-622630
-622845
-623097
-623253
-623414
-623449
-623100
-622989
-622970
-623027
-623020
-623198
-623441
-623504
-623601
-623647
-623409
-623264
-623251
-623185
-623312
-623532
-623801
-623955
-624009
-623956
-623698
-623558
-623557
-623509
-623601
-623754
-623962
-624164
-624287
-624327
-624030
-623843
-623759
-623768
-623764
-623968
-624275
-624458
-624513
-624583
-624260
-624190
-624071
-624104
-624123
-624294
-624538
-624732
-624772
-624804
-624618
-624551
-624476
-624444
-624570
-624661
-624999
-625095
-625269
-625238
-625041
-624875
-624781
-624739
-624815
-625064
-625369
-625516
-625519
-625601
-625332
-625230
-625171
-625137
-625173
-625412
-625700
-625791
-625866
-625940
-625632
-625513
-625454
-625417
-625556
-625632
-625887
-625997
-625916
-625807
-625503
-625200
-625012
-624704
-624610
-624515
-624421
-624237
-623868
-623455
-622805
-622242
-621795
-621311
-620993
-620693
-620506
-620089
-619780
-619331
-618663
-617922
-617612
-617287
-616934
-616785
-616678
-616460
-616241
-615935
-615383
-614971
-614669
-614465
-614354
-614369
-614417
-614434
-614262
-614147
-613789
-613538
-613385
-613331
-613419
-613533
-613671
-613869
-613945
-613883
-613643
-613474
-613510
-613490
-613528
-613777
-613986
-614148
-614279
-614359
-614103
-613952
-613942
-613987
-614099
-614308
-614637
-614814
-614899
-614968
-614753
-614560
-614668
-614706
-614713
-615011
-615247
-615449
-615498
-615472
-615216
-615133
-615080
-615087
-615180
-615462
-615690
-615738
-615745
-616087
-615617
-615474
-615366
-615373
-615413
-615595
-615769
-616003
-615985
-615963
-615630
-615454
-615428
-615461
-615515
-615674
-615812
-615897
-615926
-615880
-615659
-615577
-615457
-615455
-615527
-615645
-615942
-616158
-616234
-616024
-615884
-615910
-615905
-615947
-616255
-616491
-616597
-616751
-616748
-616558
-616478
-616465
-616447
-616626
-616845
-617114
-617282
-617322
-617343
-617040
-616969
-616919
-616865
-617063
-617271
-617453
-617660
-617609
-617669
-617360
-617162
-617091
-617163
-617225
-617411
-617603
-617633
-617677
-617619
-617394
-617177
-617099
-617163
-617120
-617383
-617536
-617659
-617658
-617588
-617312
-617127
-617027
-617034
-617049
-617203
-617362
-617455
-617485
-617454
-617138
-617026
-616879
-616923
-616984
-617193
-617356
-617537
-617558
-617466
-617240
-617142
-617001
-617051
-617162
-617289
-617501
-617664
-617636
-617630
-617372
-617228
-617147
-617233
-617249
-617548
-617819
-617857
-617962
-617910
-617679
-617622
-617537
-617651
-617682
-617834
-618095
-618289
-618316
-618333
-618128
-617955
-617706
-617913
-618037
-618284
-618597
-618678
-618746
-618711
-618464
-618364
-618288
-618187
-618331
-618551
-619462
-619186
-619682
-619065
-619206
-618829
-618795
-618625
-618865
-619084
-619422
-619559
-619639
-619578
-619263
-619174
-619205
-619170
-619320
-619540
-619840
-619943
-619911
-619892
-619689
-619564
-619526
-619532
-619604
-619843
-620166
-620229
-620390
-620329
-620047
-619915
-619854
-619909
-620095
-620310
-620533
-620622
-620645
-620560
-620359
-620171
-620072
-620097
-620295
-620590
-620787
-620927
-620770
-620815
-620717
-620593
-620569
-620583
-620590
-620891
-621097
-621211
-621207
-621156
-621029
-620848
-620750
-620780
-620974
-621148
-621436
-621433
-621537
-621498
-621280
-621090
-621025
-621093
-621228
-621484
-621678
-621797
-621765
-621787
-621559
-621452
-621332
-621479
-621514
-621679
-621975
-622102
-622106
-622031
-621906
-621683
-621657
-621652
-621770
-621906
-622123
-622331
-622356
-622364
-622111
-622014
-621963
-621899
-622042
-622237
-622562
-622573
-622642
-622624
-622434
-622051
-622145
-622276
-622434
-622531
-622836
-622922
-623003
-622879
-622611
-622586
-622485
-622478
-622622
-622762
-623123
-623174
-623188
-623204
-622943
-622804
-622756
-622779
-622921
-623024
-623197
-623340
-623404
-623449
-623217
-623098
-623081
-622988
-623043
-623294
-623471
-623660
-623796
-623601
-623416
-623323
-623366
-623395
-623440
-623662
-623933
-623977
-624054
-624002
-623739
-623629
-623567
-623597
-623657
-623878
-624169
-624269
-624291
-624343
-624013
-623916
-623818
-623810
-623975
-624236
-624498
-624570
-624581
-624570
-624398
-624221
-624127
-624216
-624295
-624545
-624779
-624869
-624889
-624863
-624611
-624468
-624506
-624508
-624539
-624719
-624854
-624972
-624957
-624784
-624391
-624167
-623862
-623746
-623515
-623422
-623415
-623135
-622891
-622411
-621706
-621229
-620856
-620398
-620048
-619838
-619668
-619409
-618982
-618543
-617916
-617472
-616920
-616624
-616410
-616227
-616132
-615998
-615786
-615478
-614974
-614586
-614247
-614091
-614068
-614017
-614160
-614031
-613961
-613769
-613523
-613305
-613163
-613137
-613155
-613389
-613586
-613639
-613644
-613586
-613365
-613240
-613202
-613211
-613345
-613574
-613830
-613985
-614019
-614056
-613807
-613768
-613704
-613800
-613918
-614602
-614662
-614445
-614314
-614338
-614397
-614501
-614700
-614995
-615192
-615218
-615677
-615128
-614917
-614890
-614932
-614918
-615120
-615425
-615501
-615626
-615536
-615267
-615185
-615073
-615138
-615211
-615360
-615549
-615707
-615701
-615602
-615370
-615301
-615188
-615258
-615383
-615453
-615641
-615764
-615785
-615842
-615597
-615370
-615296
-615384
-615595
-615790
-616081
-616179
-616226
-616217
-615964
-615961
-615985
-615934
-616148
-616326
-616551
-616621
-616789
-616679
-616482
-616329
-616371
-616462
-616513
-616684
-617011
-617118
-617117
-617037
-616782
-616528
-616590
-616625
-616633
-616906
-617097
-617112
-617175
-617020
-616749
-616595
-616522
-616496
-616514
-616719
-616935
-617003
-617027
-616888
-616562
-616388
-616371
-616322
-616200
-616379
-616657
-616711
-616771
-616684
-616382
-616128
-616045
-616065
-616182
-616329
-616534
-616566
-616653
-616472
-616147
-616022
-615954
-616068
-616079
-616277
-616513
-616567
-616716
-616544
-616254
-616217
-616149
-616169
-616226
-616420
-616731
-616874
-616814
-616591
-616439
-616457
-616442
-616578
-616798
-617039
-617143
-617205
-617055
-616883
-616559
-616657
-616769
-616833
-617052
-617351
-617472
-617518
-617515
-617186
-617192
-617099
-617125
-617288
-617459
-617742
-617836
-617895
-617825
-617594
-617540
-617549
-617548
-617638
-617876
-618110
-618262
-618388
-618060
-617925
-617943
-617877
-617932
-618051
-618235
-618433
-618577
-618636
-618678
-618404
-618300
-618164
-618268
-618328
-618629
-618835
-618972
-619010
-618962
-618939
-618566
-618507
-618529
-618605
-618788
-619041
-619096
-619170
-619084
-618931
-618846
-618748
-618764
-618875
-618996
-619339
-619474
-619394
-619302
-619067
-618931
-618920
-618897
-619055
-619195
-619446
-619541
-619549
-619488
-619272
-619069
-619066
-619024
-619148
-619353
-619541
-619637
-619597
-619556
-619339
-619178
-619146
-619182
-619275
-619334
-619609
-619680
-619722
-619706
-619413
-619242
-619279
-619304
-619386
-619560
-619796
-619833
-619925
-619826
-619600
-619500
-619381
-619459
-619628
-619761
-620010
-620149
-620228
-620150
-619869
-619801
-619660
-619766
-619884
-620040
-620356
-620460
-620444
-620358
-620153
-620052
-620036
-620056
-620277
-620449
-620700
-620751
-620833
-620815
-620471
-620414
-620375
-620402
-620504
-620792
-620980
-621093
-621158
-621111
-620884
-620770
-620811
-620870
-620906
-621092
-621358
-621406
-621478
-621450
-621220
-621173
-621079
-621180
-621332
-621505
-621751
-621887
-621905
-621849
-621596
-621473
-621525
-621553
-621689
-621847
-622149
-622240
-622343
-622199
-621979
-621855
-621828
-621877
-622040
-622227
-622447
-622580
-622461
-622415
-622210
-622161
-622136
-622130
-622220
-622451
-622707
-622722
-622714
-622726
-622480
-622398
-622331
-622364
-622479
-622610
-622883
-623004
-623027
-622996
-622806
-622591
-622614
-622618
-622684
-622954
-623122
-623274
-623404
-623253
-622887
-622853
-622806
-622773
-623003
-623166
-623440
-623581
-623512
-623484
-623263
-623148
-623159
-623106
-623278
-623477
-623682
-623744
-623811
-623797
-623581
-623368
-623323
-623420
-623439
-623618
-623813
-623989
-623897
-623815
-623489
-623231
-623097
-623023
-622908
-622969
-622935
-622701
-622445
-622031
-621427
-620834
-620385
-620027
-619699
-619372
-619221
-618841
-618372
-617761
-617073
-616508
-615990
-615552
-615292
-614978
-614806
-614544
-614094
-613695
-613110
-612686
-612270
-612005
-611810
-611763
-611812
-611691
-611486
-611320
-610910
-610549
-610390
-610276
-610204
-610331
-610492
-610570
-610497
-610365
-610167
-609946
-609969
-609919
-610086
-610228
-610485
-610596
-610560
-610523
-610391
-610201
-610177
-610308
-610397
-610637
-610975
-611047
-611100
-611097
-610873
-610761
-610677
-610660
-610847
-610978
-611259
-611497
-611516
-611342
-611193
-611066
-610961
-611000
-611086
-611301
-611603
-611677
-611673
-611522
-611420
-611244
-611116
-611192
-611384
-611594
-611614
-611589
-611578
-611223
-611117
-611071
-611113
-611171
-611255
-611424
-611494
-611526
-611284
-611104
-610892
-610885
-610859
-610857
-611077
-611316
-611413
-611379
-611332
-611054
-610968
-610936
-610930
-611063
-611324
-611567
-611633
-611624
-611628
-611415
-611329
-611332
-611437
-611547
-611764
-611995
-612161
-612227
-612282
-612039
-611842
-611876
-611867
-612007
-612205
-612481
-612596
-612652
-612608
-612279
-612176
-612139
-612174
-612283
-612514
-612640
-612780
-612797
-612660
-612499
-612351
-612308
-612261
-612404
-612562
-612805
-612897
-612936
-612839
-612519
-612403
-612307
-612352
-612414
-612578
-612656
-612855
-612821
-612784
-612534
-612348
-612309
-612282
-612436
-612358
-612684
-612848
-612879
-612804
-612569
-612393
-612357
-612466
-612479
-612676
-612900
-612990
-613042
-612898
-612734
-612534
-612475
-612530
-612717
-612877
-613085
-613236
-613214
-613227
-612931
-612811
-612844
-612888
-612948
-613199
-613399
-613538
-613554
-613453
-613245
-613153
-613131
-613133
-613239
-613552
-613704
-613921
-613499
-613542
-613576
-613697
-613903
-614195
-614241
-614364
-614256
-613970
-613963
-613838
-613980
-614138
-614313
-614531
-614693
-614702
-614647
-614378
-614308
-614278
-614344
-614476
-614640
-614908
-614889
-615594
-615108
-614780
-614598
-614587
-614627
-614757
-614909
-615203
-615337
-615342
-615285
-615086
-614904
-614841
-614896
-614994
-615244
-615413
-615546
-615566
-615513
-615271
-615203
-615139
-615228
-615320
-615450
-615698
-615823
-615889
-615890
-615674
-615484
-615503
-615507
-615557
-615694
-615993
-616139
-616132
-616127
-615910
-615736
-615751
-615861
-615933
-616128
-616327
-616442
-616466
-616464
-616176
-616095
-616033
-616182
-616267
-616516
-616691
-616758
-616737
-616748
-616362
-616422
-616338
-616374
-616554
-616674
-617022
-617128
-617147
-617075
-616885
-616741
-616812
-616863
-616898
-617191
-617425
-617467
-617361
-617246
-617165
-617127
-617190
-617241
-617426
-617680
-617856
-617907
-617869
-617604
-617429
-617453
-617477
-617696
-617808
-618123
-618177
-618286
-618235
-617910
-617865
-617873
-617954
-618090
-618263
-618427
-618613
-618614
-618655
-618399
-618358
-618259
-618438
-618530
-618703
-618926
-619110
-619107
-618942
-618741
-618732
-618727
-618858
-619080
-619376
-619479
-619502
-619499
-619204
-619190
-619119
-619192
-619279
-619491
-619727
-619821
-619858
-619815
-619635
-619359
-619410
-619446
-619611
-619763
-620008
-620081
-620095
-620073
-619827
-619645
-619650
-619609
-619727
-619963
-620155
-620250
-620224
-620204
-620018
-619839
-619745
-619810
-619885
-620103
-620379
-620506
-620513
-620429
-620233
-620010
-620026
-620056
-620204
-620655
-620605
-620737
-620682
-620609
-620368
-620274
-620200
-620274
-620358
-620631
-620893
-620964
-620938
-620842
-620638
-620485
-620388
-620384
-620550
-620767
-620981
-621092
-621158
-621118
-620816
-620649
-620594
-620581
-620726
-620923
-621143
-621190
-621191
-621096
-620837
-620635
-620469
-620436
-620447
-620468
-620576
-620412
-620146
-619799
-619271
-618785
-618324
-618062
-617752
-617413
-617237
-616892
-616405
-615945
-615269
-614711
-614196
-614145
-613664
-613392
-613163
-612881
-612545
-612056
-611496
-611082
-610685
-610438
-610236
-610103
-610122
-610065
-609842
-609626
-609203
-608930
-608708
-608645
-608492
-608693
-608824
-608843
-608816
-608660
-608458
-608335
-608193
-608254
-608358
-608473
-608716
-608945
-608923
-608911
-608662
-608571
-608527
-608572
-608971
-608973
-609205
-609307
-609356
-609668
-609254
-609148
-609136
-609086
-609242
-609459
-609648
-609731
-609879
-609593
-609527
-609457
-609388
-609357
-609534
-609650
-609909
-610035
-610032
-609987
-609725
-609635
-609542
-609577
-609740
-609868
-609987
-610155
-610030
-610042
-609739
-609544
-609457
-609589
-609664
-609751
-609986
-610043
-610079
-609944
-609692
-609545
-609487
-609498
-609609
-609830
-610065
-610149
-610226
-610104
-609922
-609747
-609763
-609781
-609916
-610161
-610337
-610510
-610555
-610545
-610327
-610165
-610209
-610261
-610432
-610664
-610967
-611112
-611159
-611167
-610919
-610826
-610827
-610901
-610959
-611101
-611375
-611508
-611625
-611535
-611306
-611713
-611398
-611258
-611292
-611463
-611652
-611756
-611739
-611650
-611359
-611281
-611175
-611198
-611264
-611402
-611605
-611769
-611766
-611682
-611358
-611232
-611082
-611074
-611145
-611329
-611618
-611697
-611632
-611554
-611329
-611080
-611103
-611047
-611153
-611242
-611497
-611576
-611557
-611380
-611130
-610947
-610849
-610902
-611067
-611178
-611408
-611516
-611432
-611391
-611106
-611009
-610957
-610944
-611002
-611190
-611505
-611489
-611507
-611430
-611292
-611186
-611076
-611096
-611183
-611351
-611644
-611775
-611845
-611764
-611545
-611303
-611286
-611383
-611385
-611680
-611965
-612098
-612071
-612445
-611965
-611820
-611743
-611735
-611856
-612070
-612283
-612470
-612518
-612509
-612274
-612056
-612100
-612152
-612360
-612475
-612785
-612965
-612962
-612948
-612744
-612706
-612544
-612562
-612683
-612939
-613140
-613309
-613353
-613347
-613086
-612997
-613014
-613078
-613235
-613416
-613675
-613752
-613855
-613775
-613573
-613340
-613379
-613493
-613627
-614275
-614125
-614199
-614226
-614184
-614014
-613814
-613746
-613875
-613977
-614216
-614466
-614523
-614610
-614567
-614236
-614132
-614148
-614217
-614222
-614515
-614818
-614836
-614916
-614767
-614585
-614422
-614447
-614477
-614518
-614707
-615019
-615052
-615168
-615079
-614916
-614608
-614673
-614687
-614783
-614990
-615234
-615355
-615386
-615319
-615090
-614769
-614821
-614926
-615059
-615260
-615548
-615595
-615544
-615556
-615315
-615143
-615173
-615212
-615230
-615377
-615656
-615617
-615427
-615370
-616063
-616062
-616079
-615828
-615674
-615582
-615644
-615780
-616369
-616058
-615933
-615913
-615944
-616011
-616354
-616600
-616694
-616651
-616384
-616239
-616264
-616192
-616257
-616498
-616810
-616920
-616969
-616998
-616690
-616542
-616520
-616604
-616799
-617105
-617229
-617279
-617289
-617110
-616850
-616854
-616899
-616945
-617140
-617479
-617606
-617631
-617578
-617381
-617270
-617204
-617196
-617353
-617606
-617860
-618001
-617734
-617914
-617761
-617673
-617607
-617606
-617753
-617927
-618267
-618370
-618413
-618383
-618182
-618038
-618035
-618084
-618147
-618390
-618673
-618776
-618826
-618701
-618484
-618314
-618365
-618337
-618805
-618758
-619003
-618948
-619029
-619001
-618750
-618681
-618649
-618568
-618799
-618925
-619202
-619393
-619455
-619370
-619190
-619108
-619440
-619218
-619278
-619358
-619654
-619767
-619808
-619825
-619629
-619485
-619430
-619498
-619546
-619749
-619946
-620167
-620278
-620239
-620055
-619929
-619870
-619867
-619926
-620235
-620488
-620553
-620628
-620639
-620331
-620617
-620192
-620073
-620038
-620131
-620359
-620317
-620150
-619934
-619448
-618966
-618590
-618301
-618215
-617982
-617825
-617475
-617048
-616565
-615895
-615361
-614915
-614510
-614122
-613881
-613768
-613438
-613103
-612710
-612093
-611588
-611153
-610905
-610754
-610581
-610494
-610410
-610248
-609955
-609529
-609142
-609284
-608893
-608764
-608851
-609019
-609021
-608972
-608856
-608556
-608308
-608401
-608315
-608364
-608640
-608812
-608933
-609028
-608977
-608832
-608726
-608694
-608736
-608858
-609074
-609449
-609544
-609706
-609571
-609475
-609436
-609364
-609442
-609576
-609724
-609988
-610274
-610379
-610336
-610098
-610016
-609988
-610010
-610079
-610400
-610670
-610760
-610845
-610961
-610621
-610477
-610455
-610471
-610513
-610789
-611098
-611216
-611203
-611192
-610934
-610709
-610834
-610725
-610765
-610982
-611224
-611373
-611377
-611219
-611038
-610884
-610891
-610776
-610992
-611115
-611395
-611462
-611611
-611509
-611260
-611048
-611081
-611152
-611255
-611478
-611709
-611887
-612020
-611925
-611763
-611707
-611559
-611588
-611742
-611952
-612301
-612437
-612425
-612480
-612232
-612129
-612144
-612084
-612087
-612260
-612609
-612779
-612766
-612756
-612533
-612395
-612330
-612267
-612351
-612585
-612799
-612880
-612920
-612784
-612533
-612405
-612268
-612254
-612348
-612531
-612636
-612774
-612753
-612674
-612451
-612266
-612231
-612163
-612297
-612324
-612540
-612748
-612699
-612599
-612366
-612156
-612130
-612028
-612086
-612267
-612527
-612644
-612586
-612537
-612346
-612061
-611999
-612121
-612295
-612520
-612646
-612693
-612640
-612344
-612197
-612140
-612244
-612313
-612468
-612709
-612844
-612984
-612947
-612725
-612648
-612512
-612544
-612705
-612888
-613135
-613262
-613373
-613387
-613222
-613001
-612937
-612819
-612992
-613189
-613524
-613653
-613674
-613753
-613533
-613325
-613228
-613289
-613362
-613603
-613903
-614057
-614101
-614105
-613865
-613794
-613802
-613762
-613830
-614117
-614328
-614461
-614601
-614535
-614303
-614222
-614106
-614166
-614289
-614422
-614655
-614976
-614955
-614842
-614734
-614666
-614589
-614583
-614639
-614888
-615157
-615371
-615286
-615328
-615161
-614962
-614938
-614941
-615049
-615279
-615496
-615691
-615721
-615713
-615382
-615334
-615243
-615276
-615349
-615639
-615820
-615935
-616035
-616013
-615834
-615652
-615612
-615488
-615604
-615791
-616166
-616272
-616220
-616327
-616059
-615952
-615961
-615831
-615912
-616189
-616395
-616513
-616701
-616542
-616307
-616219
-616176
-616218
-616235
-616493
-616702
-616783
-616950
-616832
-616636
-616544
-616424
-616386
-616489
-616704
-616917
-617181
-617201
-617156
-616943
-616734
-616718
-616750
-617006
-617270
-617314
-617469
-617511
-617178
-617085
-616964
-616923
-617024
-617290
-617614
-617681
-617693
-617663
-617465
-617316
-617159
-617188
-617305
-617548
-617831
-617907
-617926
-618003
-617675
-617437
-617416
-617479
-617613
-617789
-617991
-618191
-618220
-618168
-617910
-617718
-617739
-617731
-617726
-617915
-618240
-618290
-618352
-618316
-618191
-617997
-617970
-617909
-618021
-618193
-618491
-618568
-618666
-618699
-618392
-618240
-618177
-618153
-618195
-618433
-618672
-618830
-618932
-618951
-618683
-618500
-618440
-618449
-618542
-618805
-618969
-619174
-619221
-619249
-618997
-618809
-618711
-618769
-618774
-618995
-619256
-619406
-619437
-619446
-619238
-619032
-619058
-619047
-619122
-619364
-619581
-619673
-619753
-619733
-619464
-619379
-619307
-619346
-619457
-619612
-619836
-620069
-620107
-620082
-619835
-619669
-619508
-619474
-619542
-619704
-619824
-619808
-618487
-618216
-617948
-617864
-617726
-617517
-617214
-616941
-616309
-615723
-615227
-614809
-614516
-614342
-614211
-613897
-613645
-613295
-612704
-612212
-611836
-611520
-611293
-611271
-611155
-611102
-610912
-610651
-610175
-609799
-609641
-609408
-609336
-609390
-609596
-609668
-609521
-609541
-609156
-608932
-608829
-608764
-608814
-609060
-609218
-609438
-609475
-609534
-609282
-609152
-609131
-609159
-609217
-609515
-609929
-610088
-610156
-610303
-610086
-609964
-609997
-610009
-610170
-610435
-610784
-610910
-611023
-611106
-610860
-610729
-610813
-610885
-610914
-611180
-611478
-611645
-611739
-611850
-611578
-611554
-611491
-611505
-612017
-611937
-612155
-612310
-612414
-611687
-611982
-611835
-611888
-612027
-612037
-612285
-612528
-612735
-612763
-612840
-612569
-612409
-612448
-612478
-612554
-612780
-613070
-613267
-613296
-613368
-613072
-612996
-613014
-613101
-613059
-613348
-613644
-613899
-613853
-613938
-613593
-613604
-613688
-613766
-613782
-614089
-614339
-614510
-614602
-614665
-614415
-614289
-614204
-614191
-614360
-614566
-614871
-614905
-615098
-615081
-614807
-614650
-614615
-614585
-614604
-614884
-615137
-615177
-615237
-615254
-614986
-614893
-614824
-614807
-614815
-615019
-615250
-615724
-615532
-615391
-615142
-614887
-614698
-614799
-614814
-615010
-615220
-615390
-615458
-615451
-615118
-614887
-614807
-614774
-614787
-615044
-615276
-615397
-615489
-615288
-615194
-614985
-614977
-614908
-614960
-615185
-615408
-615605
-615778
-615759
-615393
-615244
-615218
-615256
-615258
-615509
-615805
-615861
-615977
-616037
-615813
-615738
-615606
-615723
-615714
-615992
-616252
-616412
-616511
-616507
-616306
-616049
-616014
-616055
-616129
-616158
-616536
-616700
-616809
-616892
-616649
-616449
-616475
-616314
-616377
-616638
-616932
-617178
-617276
-617321
-617090
-616895
-616921
-616914
-616965
-617305
-617452
-617657
-617775
-617861
-617642
-617480
-617418
-617390
-617404
-617690
-617978
-618087
-618270
-618331
-618089
-617840
-617760
-617757
-617984
-618239
-618406
-618509
-618591
-618305
-618135
-618062
-618051
-618037
-618242
-618518
-618703
-618744
-618856
-618554
-618394
-618345
-618390
-618384
-618652
-618849
-618946
-618998
-619074
-618833
-618629
-618605
-618654
-618554
-618766
-619040
-619176
-619353
-619414
-619220
-618829
-618851
-618898
-618964
-619213
-619488
-619576
-619701
-619696
-619508
-619359
-619262
-619295
-619360
-619523
-619759
-619884
-620047
-620132
-619822
-619694
-619635
-619648
-619630
-619960
-620056
-620253
-620319
-620372
-620127
-619883
-619857
-619775
-619781
-620048
-620287
-620400
-620495
-620540
-620207
-620088
-620042
-620064
-619951
-620302
-620496
-620665
-620742
-620849
-620600
-620298
-620251
-620288
-620263
-620501
-620689
-620928
-620755
-620986
-620811
-620665
-620503
-620498
-620517
-620704
-620926
-621164
-621182
-621301
-621019
-620842
-620837
-620754
-620791
-620950
-621252
-621390
-621405
-621511
-621218
-621083
-620945
-621016
-620944
-621160
-621418
-621547
-621596
-621601
-621342
-621120
-621157
-621104
-621211
-621374
-621526
-621767
-621821
-621930
-621641
-621395
-621418
-621344
-621632
-621890
-622078
-621969
-622040
-621874
-621677
-621606
-621630
-621591
-621863
-622212
-622324
-622412
-622464
-622152
-622026
-621930
-621842
-621891
-622160
-622381
-622523
-622585
-622611
-622365
-622205
-622176
-622204
-622117
-622296
-622571
-622700
-622894
-622966
-622627
-622506
-622474
-622395
-622367
-622691
-622853
-623027
-623111
-623162
-622906
-622741
-622657
-622572
-622658
-622807
-623119
-623287
-623434
-623493
-623125
-622697
-622775
-622647
-622646
-622708
-622794
-622845
-622736
-622617
-622053
-621489
-621136
-620745
-620380
-620200
-619954
-619725
-619497
-619059
-618312
-617703
-617203
-616838
-616346
-616129
-615996
-615792
-615436
-615089
-614381
-613879
-613502
-613330
-612816
-612661
-612710
-612680
-612635
-612561
-612028
-611606
-611408
-611266
-611431
-611420
-611367
-611522
-611421
-611442
-611183
-611029
-610885
-610871
-610788
-611040
-611354
-611504
-611607
-611718
-611482
-611312
-611161
-611217
-611180
-611407
-611746
-612002
-612074
-612275
-612039
-611913
-611838
-611854
-612081
-612443
-612670
-612809
-612913
-612642
-612466
-612362
-612350
-612341
-612625
-612834
-613126
-613117
-613222
-612949
-612808
-612789
-612793
-612852
-613091
-613232
-613383
-613455
-613597
-613283
-613074
-613028
-612921
-612942
-613086
-613305
-613558
-613608
-613621
-613423
-613155
-613142
-613027
-613048
-613295
-613555
-613699
-613841
-613956
-613760
-613494
-613446
-613413
-613458
-613693
-613921
-614168
-614377
-614513
-614220
-614100
-614064
-614122
-614076
-614319
-614674
-614841
-615082
-614956
-614734
-614668
-614648
-615430
-615580
-615738
-615492
-615223
-615203
-615125
-615107
-615334
-615561
-615770
-615807
-615860
-615684
-615310
-615324
-615365
-615277
-615503
-615670
-615855
-615920
-616044
-615709
-615483
-615413
-615321
-615335
-615540
-615679
-615828
-615978
-615942
-615769
-615535
-615430
-615407
-615313
-615516
-615754
-615854
-615840
-615823
-615825
-615549
-615520
-615388
-615397
-615565
-615854
-616013
-616075
-616185
-615948
-615732
-615640
-615654
-615621
-615828
-616073
-616326
-616376
-616436
-616273
-616088
-616073
-615902
-615969
-616205
-616426
-616604
-616784
-616856
-616624
-616383
-616286
-616346
-616366
-616639
-616869
-617193
-617164
-617330
-617103
-616900
-616750
-616764
-616787
-617071
-617294
-617517
-617634
-617715
-617453
-617277
-617250
-617262
-617319
-617468
-617707
-617920
-618059
-618129
-617957
-617715
-617709
-617636
-617648
-617870
-618102
-618373
-618441
-618485
-618302
-618040
-617819
-617901
-617964
-618278
-618475
-618645
-618686
-618846
-618678
-618417
-618359
-618330
-618222
-618522
-618766
-618959
-619025
-619186
-618939
-618733
-618691
-618612
-618650
-618918
-619159
-619276
-619412
-619514
-619269
-619046
-618991
-618908
-618869
-619153
-619356
-619603
-619780
-619729
-619565
-619314
-619193
-619102
-619177
-619354
-619519
-619793
-619742
-619789
-619596
-619391
-619272
-619269
-619210
-619499
-619625
-619765
-619928
-620018
-619785
-619500
-619371
-619439
-619438
-619610
-619823
-620036
-620125
-620183
-619958
-619717
-619607
-619529
-619650
-619888
-620041
-620276
-620414
-620440
-620284
-620001
-619902
-619921
-619911
-620225
-620472
-620679
-620734
-620759
-620668
-620396
-620288
-620355
-620349
-620610
-620790
-621041
-621231
-620999
-620819
-620641
-620663
-620830
-621021
-621181
-621507
-621542
-621659
-621446
-621188
-621070
-621057
-621299
-621515
-621792
-621884
-621977
-621776
-621582
-621290
-621444
-621502
-621745
-621971
-622297
-622363
-622366
-622256
-621979
-621918
-621906
-621882
-622128
-622480
-622714
-622768
-622625
-622559
-622498
-622447
-622537
-622788
-622987
-623264
-623351
-623388
-623165
-623054
-623034
-622954
-623060
-623267
-623500
-623741
-623913
-623920
-623796
-623586
-623508
-623579
-623617
-623796
-623987
-624723
-624892
-624602
-624253
-624090
-624036
-624029
-623971
-624273
-624444
-624660
-624803
-624907
-624755
-624575
-624458
-624394
-624397
-624694
-624887
-625098
-625216
-625210
-625109
-624841
-624857
-624683
-624718
-625230
-625051
-625103
-625081
-624923
-624663
-624267
-623862
-623639
-623334
-623268
-623072
-622936
-622648
-622247
-621753
-621011
-620547
-620064
-619672
-619437
-619225
-619099
-618793
-618408
-617905
-617326
-616881
-616351
-616026
-615982
-615879
-615785
-615630
-615422
-614995
-614613
-614228
-614023
-613904
-613909
-613939
-614049
-613990
-613948
-613689
-613770
-613299
-613192
-613113
-613350
-613564
-613769
-613739
-613667
-613622
-613457
-613396
-613379
-613522
-613704
-613939
-614226
-614286
-614329
-614253
-614105
-614026
-614092
-614170
-614380
-614991
-615036
-615365
-615274
-615056
-614889
-614851
-614873
-614894
-615164
-615366
-615608
-615729
-615857
-615691
-615507
-615406
-615394
-615529
-615740
-615902
-616136
-616244
-616141
-615980
-615898
-615875
-615892
-616139
-616348
-616611
-616636
-616632
-616459
-616239
-616164
-616656
-616174
-616451
-616563
-616722
-616934
-616868
-616581
-616426
-616413
-616483
-616471
-616701
-616902
-617134
-617325
-617226
-617126
-616889
-616849
-616802
-616861
-617210
-617406
-617752
-617914
-617863
-617765
-617616
-617582
-617528
-617579
-617783
-617931
-618140
-618338
-618330
-618229
-617973
-618042
-617961
-617998
-618108
-618386
-618568
-618665
-618613
-618491
-618261
-618192
-618199
-618170
-618383
-618528
-618722
-618871
-619398
-618818
-618484
-618350
-618134
-618171
-618376
-618496
-618717
-618747
-618689
-618540
-618333
-618252
-618541
-618219
-618299
-618499
-618643
-618695
-618691
-618563
-618308
-618206
-618131
-618189
-618220
-618439
-618673
-618794
-618800
-618596
-618478
-618335
-618234
-618530
-618475
-618646
-618918
-618957
-618989
-618876
-618727
-618555
-618596
-618573
-618722
-619013
-619105
-619317
-619293
-619157
-619003
-618864
-618953
-618873
-619080
-619328
-619595
-619679
-619667
-619588
-619374
-619269
-619322
-619355
-619524
-619773
-620011
-619948
-620091
-620121
-619820
-619729
-619820
-619780
-620043
-620224
-620467
-620598
-620619
-620492
-620296
-620164
-620110
-620202
-620384
-620631
-620858
-620899
-620978
-620848
-620631
-620571
-620565
-620594
-620839
-620999
-621301
-621472
-621384
-621360
-621195
-621011
-620963
-620950
-621151
-621345
-621577
-621781
-621764
-621684
-621470
-621472
-621443
-621394
-621540
-621723
-622061
-622133
-622125
-622090
-621925
-621813
-621768
-621815
-622056
-622316
-622525
-622599
-622502
-622390
-622321
-622255
-622266
-622888
-622902
-622815
-622582
-622539
-622498
-622570
-622772
-622914
-623146
-623253
-623156
-623192
-622936
-622898
-622835
-622776
-623078
-623259
-623448
-623611
-623493
-623446
-623209
-623089
-623058
-623065
-623157
-623404
-623626
-623750
-623691
-623698
-623466
-623237
-623249
-623231
-623528
-623722
-623888
-623948
-623932
-623890
-623691
-623535
-623567
-623524
-623739
-623915
-624242
-624220
-624214
-624167
-623908
-623829
-623790
-623750
-623967
-624124
-624376
-624388
-624359
-624397
-624124
-624051
-623985
-623989
-624182
-624318
-624617
-624735
-624692
-624552
-624345
-624291
-624287
-624199
-624420
-624653
-624924
-624969
-624912
-624924
-624723
-624607
-624583
-624490
-624743
-624899
-625114
-625215
-625167
-625116
-624941
-624905
-624901
-624864
-625041
-625296
-625505
-625667
-625636
-625611
-625691
-625308
-625280
-625179
-625337
-625583
-625724
-625699
-625683
-625523
-625212
-624926
-624634
-624532
-624475
-624353
-624355
-624151
-623825
-623366
-622765
-622321
-621959
-621477
-621359
-621023
-621037
-620713
-620345
-619886
-619309
-618797
-618481
-618107
-617962
-617803
-617813
-618126
-617547
-617001
-616499
-616193
-615988
-615769
-615779
-615758
-615944
-615813
-615723
-615448
-615213
-615065
-614905
-614867
-614955
-615192
-615374
-615395
-615452
-615449
-615227
-615074
-615124
-615087
-615396
-615567
-615736
-615956
-615970
-615917
-615763
-615786
-615781
-615747
-616093
-616246
-616646
-616739
-616806
-616864
-616728
-616677
-616767
-616736
-616991
-617119
-617515
-617728
-617838
-617845
-617755
-617628
-617649
-617690
-617903
-618209
-618519
-618622
-618703
-618683
-618397
-618995
-618528
-618459
-618689
-618895
-619091
-619341
-619306
-619317
-619105
-618964
-618981
-618953
-619178
-619483
-619722
-619805
-619886
-619771
-619662
-619478
-619509
-619514
-619757
-620018
-620232
-620424
-620538
-620508
-620259
-620212
-620127
-620073
-620263
-620536
-620851
-620965
-620969
-620857
-620603
-620534
-620511
-620454
-620632
-620862
-621062
-621175
-621237
-621020
-620833
-620684
-620635
-620541
-620759
-620827
-621062
-621138
-621104
-621037
-620762
-620554
-620491
-620388
-620538
-620628
-620866
-620931
-620803
-620738
-620463
-620241
-620149
-620121
-620313
-620482
-620591
-620624
-620615
-620462
-620245
-620119
-620068
-619988
-620245
-620302
-620564
-620553
-620542
-620424
-620250
-619920
-620051
-619943
-620046
-620318
-620511
-620584
-620605
-620481
-620319
-620188
-620037
-619866
-620259
-620449
-620654
-620756
-620758
-620780
-620473
-620438
-620352
-620431
-620617
-620857
-621086
-621158
-621148
-621046
-620849
-620794
-620798
-620882
-620989
-621289
-621523
-621631
-621650
-621608
-621360
-621254
-621342
-621317
-621443
-621708
-621904
-622127
-622144
-622107
-621898
-621723
-621706
-621696
-622030
-622084
-622332
-622521
-622448
-622517
-622322
-622270
-622215
-622179
-622244
-622434
-622733
-622893
-622811
-622863
-622567
-622453
-622498
-622468
-622678
-622853
-623062
-623182
-623147
-623097
-622846
-623234
-622901
-622838
-622977
-623142
-623372
-623409
-623519
-623413
-623237
-623163
-623112
-623105
-623294
-623410
-623662
-623827
-623875
-623789
-623679
-623506
-623447
-623488
-623527
-623784
-624061
-624152
-624251
-624224
-624420
-623997
-623870
-623665
-623859
-624120
-624456
-624559
-624470
-624508
-624236
-624161
-624135
-624150
-624248
-624453
-624628
-624724
-624778
-624726
-624493
-624313
-624238
-624351
-624480
-624715
-624821
-625024
-624951
-624868
-624669
-624609
-624542
-624582
-624684
-624786
-625025
-625080
-625078
-625060
-624856
-624782
-624685
-624651
-624755
-625034
-625267
-625415
-625483
-625365
-625173
-625041
-625018
-625014
-625131
-625355
-625542
-625643
-625716
-625589
-625436
-625308
-625241
-625202
-625258
-625483
-625689
-625770
-625802
-625746
-625569
-625433
-625320
-625355
-625429
-625637
-625943
-626000
-625997
-626000
-625700
-625593
-625620
-625632
-625752
-626025
-626220
-626323
-626348
-626182
-625939
-625933
-625853
-625841
-625897
-626094
-626404
-626438
-626476
-626506
-626219
-626169
-626092
-626089
-626257
-626271
-626614
-626683
-627259
-626814
-626618
-627085
-626589
-626573
-626558
-626857
-627014
-627113
-627067
-626940
-626668
-626378
-626183
-625990
-625871
-625568
-625609
-625334
-624968
-624362
-623850
-623271
-622796
-622346
-622065
-621491
-619550
-618966
-618543
-618061
-617856
-617625
-617520
-617317
-616977
-616605
-616135
-615615
-615408
-615179
-615000
-614945
-614986
-614882
-614767
-614541
-614261
-614068
-613911
-613818
-613782
-613981
-614182
-614212
-614164
-614151
-613904
-613715
-613620
-613613
-613823
-614028
-614344
-614413
-614593
-614440
-614288
-614097
-614185
-614252
-614292
-614554
-614830
-615039
-615073
-614984
-614801
-614649
-614657
-614659
-614791
-614900
-615145
-615301
-615342
-615198
-615035
-614928
-614827
-614825
-614871
-615457
-615487
-615434
-615465
-615123
-614940
-614917
-614994
-614990
-615254
-615370
-615482
-615508
-615505
-615254
-615178
-615087
-615135
-615209
-615365
-615649
-615779
-615858
-615841
-615628
-615469
-615440
-615469
-615572
-615827
-616079
-616249
-616286
-616352
-616130
-616015
-615940
-615951
-616660
-616508
-616727
-616775
-616802
-616772
-616588
-616493
-616474
-616405
-616536
-616701
-616952
-617077
-617215
-617121
-616663
-616583
-616529
-616528
-616636
-616755
-616946
-617040
-617055
-616892
-616676
-616479
-616392
-616386
-616374
-616537
-616664
-616830
-616720
-616451
-616312
-616208
-616087
-616056
-616349
-616507
-616608
-616520
-616534
-616301
-616065
-616067
-616049
-616072
-616278
-616565
-616746
-616754
-616689
-616422
-616285
-616207
-616230
-616359
-616540
-616773
-616971
-617046
-617082
-616771
-616748
-616650
-616686
-616807
-617001
-617242
-617437
-617518
-617519
-617289
-617208
-617121
-617156
-617298
-617477
-617741
-617841
-618011
-617912
-617784
-617642
-617581
-617622
-617664
-617904
-618101
-618311
-618391
-618355
-618140
-618012
-617914
-618034
-618078
-618296
-618479
-618700
-618803
-618735
-618562
-618410
-618384
-618450
-618586
-618669
-619018
-619212
-619275
-619292
-619103
-618949
-618903
-618919
-619033
-619204
-619442
-619685
-619802
-619724
-619562
-619451
-619482
-619389
-619461
-619739
-619911
-620161
-620246
-620330
-620121
-619955
-619863
-619962
-619989
-620148
-620623
-620771
-620828
-620790
-620582
-620512
-620393
-620452
-620480
-620712
-620934
-621109
-621184
-621034
-620840
-620755
-620675
-620652
-620730
-620871
-621112
-621168
-621163
-621275
-620996
-620774
-620784
-620621
-620650
-620764
-621179
-621248
-621331
-621326
-620963
-620500
-620556
-620615
-620640
-620796
-621051
-621120
-621275
-621472
-621014
-620494
-620578
-620453
-620553
-620811
-620912
-621114
-621522
-621087
-620843
-620525
-620516
-620328
-620413
-620617
-620846
-621003
-620991
-620823
-620652
-620561
-620519
-620435
-620472
-620697
-620825
-621075
-621106
-621086
-620653
-620592
-620561
-620605
-620585
-620841
-621139
-621237
-621336
-621316
-621085
-620930
-620854
-620885
-620883
-621078
-621366
-621599
-621621
-621697
-621412
-621292
-621241
-621209
-621279
-621549
-621886
-622074
-622147
-622204
-621970
-621863
-621856
-621907
-621933
-622088
-622406
-622572
-622667
-622779
-622566
-622401
-622381
-622464
-622479
-622743
-622864
-623176
-623339
-623395
-623225
-623043
-623023
-623014
-622992
-623332
-623589
-623525
-623776
-623832
-623577
-623323
-623348
-623252
-623149
-623214
-623439
-623412
-623253
-623043
-622509
-622073
-621788
-621414
-621104
-620997
-620904
-620615
-620208
-620002
-619260
-618722
-618223
-617870
-617446
-617348
-617199
-616987
-616707
-616343
-615810
-615401
-614980
-614432
-614403
-614429
-614401
-614714
-614297
-614114
-613614
-613354
-612976
-612888
-612848
-613021
-613207
-613255
-613201
-613273
-612894
-612719
-612664
-612616
-612689
-612917
-613145
-613694
-613486
-613437
-613150
-613006
-612949
-612783
-612984
-613224
-613500
-613682
-613841
-613948
-613609
-613420
-613470
-613422
-613517
-613825
-614035
-614204
-614149
-614336
-614120
-614014
-613979
-613947
-613982
-614237
-614491
-614668
-614797
-614759
-614454
-614306
-614355
-614271
-614331
-614582
-614813
-615009
-615598
-615260
-615338
-614790
-614538
-614565
-614486
-614802
-615025
-615084
-615241
-615298
-614923
-614800
-614664
-614731
-614754
-615079
-615270
-615404
-615496
-615573
-615285
-615200
-615223
-615176
-615180
-615517
-615821
-616027
-616216
-616230
-615874
-615791
-615518
-615634
-615729
-616394
-616348
-616473
-616475
-616493
-616276
-616049
-616014
-615927
-615974
-616195
-616387
-616536
-616571
-616554
-616357
-616171
-615979
-615943
-615974
-616204
-616406
-616566
-616532
-616576
-616270
-615949
-615891
-615867
-615775
-615963
-616206
-616319
-616300
-616283
-615875
-615672
-615620
-615587
-615491
-615715
-615898
-615969
-615984
-616043
-615625
-615560
-615365
-615338
-615312
-615437
-615677
-615834
-615874
-615867
-615604
-615351
-615327
-615300
-615287
-615448
-615587
-615842
-615872
-615946
-615684
-615499
-615418
-615415
-615448
-615717
-615821
-616102
-616048
-616181
-615902
-615690
-615691
-615683
-615661
-615908
-616065
-616343
-616461
-616582
-616213
-616061
-616063
-616002
-616067
-616308
-616454
-616790
-616874
-616985
-616699
-616500
-616545
-616440
-616409
-616742
-617021
-617176
-617325
-617358
-617137
-616920
-616949
-616918
-616976
-617192
-617462
-617634
-617760
-617865
-617604
-617310
-617237
-617173
-617283
-617556
-617747
-618075
-618061
-618189
-617949
-617622
-617758
-617688
-617741
-617947
-618255
-618494
-618585
-618602
-618368
-618189
-618138
-618187
-618216
-618468
-618742
-619036
-619140
-619259
-619015
-618750
-618683
-618730
-618691
-619025
-619327
-619424
-619544
-619663
-619444
-619176
-619178
-619172
-619205
-619456
-619601
-619826
-619932
-620069
-619791
-619474
-619464
-619565
-619445
-619668
-619850
-620063
-620158
-620257
-620003
-619856
-619742
-619754
-619703
-619951
-620114
-620370
-620483
-620463
-620279
-620075
-619926
-619911
-619837
-620079
-620400
-620485
-620571
-620648
-620378
-620200
-620036
-620112
-620027
-620243
-620514
-620691
-620723
-620760
-620585
-620269
-620179
-620178
-620114
-620398
-620538
-620812
-620898
-621018
-620765
-620472
-620420
-620362
-620392
-620575
-620755
-620854
-621032
-621140
-620787
-620673
-620612
-620567
-620598
-620824
-621104
-621242
-621316
-621473
-621214
-620992
-620973
-620918
-620955
-621132
-621397
-621482
-621548
-621561
-621209
-620993
-620853
-620730
-620609
-620653
-620688
-620786
-620559
-620500
-619954
-619389
-619138
-618780
-618506
-618423
-618181
-618157
-617863
-617653
-617077
-616481
-616121
-615849
-615474
-615402
-615265
-615200
-615007
-614855
-614356
-613863
-613605
-613410
-613166
-613149
-613205
-613248
-613163
-613108
-612709
-612404
-612275
-612197
-612060
-612193
-612393
-612540
-612607
-612598
-612360
-612075
-612052
-612024
-612112
-612356
-612605
-612835
-612958
-612682
-612921
-613152
-613319
-613408
-613557
-613297
-613064
-613042
-613033
-613150
-613371
-613631
-613798
-613865
-614037
-613764
-613537
-613425
-613499
-613525
-613656
-613871
-614101
-614258
-614256
-614009
-613800
-613718
-613689
-613707
-614000
-614047
-614245
-614439
-614390
-614237
-613946
-613840
-613936
-613906
-614077
-614286
-614587
-614602
-614818
-614441
-614290
-614122
-614160
-614190
-614409
-614689
-614957
-615032
-615097
-614885
-614656
-614718
-614728
-614834
-614932
-615227
-615382
-615564
-615605
-615425
-615308
-615185
-615181
-615185
-615424
-615629
-615897
-615980
-615947
-615764
-615495
-615431
-615288
-615326
-615527
-615713
-615871
-615951
-615953
-615764
-615535
-615406
-615271
-615248
-615450
-615646
-615748
-615929
-615881
-615640
-615308
-615197
-615150
-615094
-615223
-615415
-615529
-615655
-615630
-615360
-615052
-614939
-614951
-614926
-615017
-615230
-615422
-615391
-615463
-615233
-615048
-614924
-614861
-614752
-615086
-615217
-615438
-615463
-615504
-615239
-614903
-614930
-614918
-614959
-614994
-615193
-615455
-615512
-615547
-615317
-615182
-615140
-614985
-615020
-615291
-615451
-615607
-615694
-615764
-615647
-615356
-615267
-615284
-615326
-615440
-615696
-615968
-615974
-616122
-615796
-615634
-615590
-615558
-615540
-615774
-615915
-616284
-616342
-616366
-616163
-615941
-615824
-615846
-615850
-616059
-616257
-616583
-616589
-616743
-616519
-616333
-616226
-616276
-616207
-616481
-616657
-616839
-617058
-617086
-616862
-616601
-616463
-616612
-616585
-616802
-616986
-617206
-617272
-617364
-617139
-617032
-616883
-616921
-616972
-617187
-617268
-617664
-617649
-617682
-617553
-617393
-617189
-617161
-617221
-617420
-617642
-617778
-618018
-618089
-617913
-617722
-617642
-617687
-617803
-617959
-618222
-618442
-618502
-618637
-618431
-618240
-618134
-618247
-618250
-618376
-618703
-618830
-618909
-618949
-618740
-618445
-618405
-618318
-618340
-618559
-618775
-619076
-619104
-619136
-618863
-618545
-618455
-618492
-618444
-618698
-618818
-619085
-618985
-619034
-618913
-618703
-618594
-618477
-618492
-618784
-618910
-619102
-619204
-619196
-619130
-618878
-618755
-618773
-618735
-619021
-619174
-619419
-619596
-619565
-619381
-619206
-619139
-619097
-619203
-619360
-619593
-619893
-620011
-620013
-619925
-619772
-619610
-619670
-619696
-619965
-620062
-620396
-620460
-620589
-620381
-620232
-620075
-620036
-620217
-620329
-620483
-620503
-620443
-620151
-619781
-619526
-619291
-619024
-619041
-618927
-618808
-618559
-618135
-617543
-616950
-616457
-616026
-615583
-615368
-615115
-614905
-614474
-614084
-613526
-612846
-612361
-611937
-611527
-611415
-611222
-611146
-610924
-610672
-610223
-609732
-609327
-609093
-608865
-608900
-608871
-608950
-608943
-608811
-608494
-608248
-607982
-607914
-607838
-608080
-608163
-608350
-608496
-608471
-608380
-608156
-608039
-608102
-608080
-608304
-608587
-608799
-609018
-609012
-608994
-608827
-608751
-608800
-608816
-609084
-609302
-609603
-609698
-609753
-609630
-609490
-609466
-609495
-609480
-609794
-609919
-610166
-610299
-610303
-610236
-609991
-609884
-609962
-610032
-610192
-610386
-610689
-610821
-610815
-610644
-610523
-610479
-610419
-610463
-610661
-610901
-611134
-611171
-611149
-610994
-610883
-610782
-610778
-610796
-611000
-611234
-611432
-611642
-611697
-611661
-611423
-611408
-611419
-611494
-611653
-611930
-612096
-612208
-612291
-612300
-612115
-611983
-611986
-612069
-612325
-612496
-612778
-612958
-612894
-612687
-612622
-612561
-612453
-612538
-612729
-612915
-613197
-613221
-613277
-613153
-612888
-612698
-612676
-612745
-612885
-613036
-613282
-613408
-613358
-613151
-612936
-612860
-612770
-612693
-612811
-612974
-613228
-613128
-613180
-613035
-612714
-612644
-612460
-612446
-612561
-612668
-612860
-612888
-612850
-612703
-612397
-612312
-612332
-612261
-612299
-612521
-612740
-612814
-612903
-612671
-612433
-612327
-612222
-612233
-612461
-612681
-612870
-612868
-612980
-612900
-612624
-612545
-612608
-612586
-612754
-612941
-613173
-613214
-613320
-613278
-613050
-613034
-613095
-612934
-613232
-613450
-613669
-613759
-613773
-613750
-613565
-613407
-613462
-613541
-613731
-613981
-614229
-614380
-614309
-614315
-614181
-614120
-614088
-614120
-614213
-614454
-614806
-614867
-614912
-614877
-614666
-614583
-614601
-614572
-614858
-615030
-615291
-615457
-615516
-615445
-615126
-615023
-615160
-615147
-615400
-615534
-615777
-615927
-616025
-615888
-615706
-615633
-615618
-615607
-615840
-616130
-616327
-616466
-616439
-616386
-616229
-616146
-616174
-616106
-616368
-616575
-616884
-616942
-616912
-616889
-616726
-616604
-616549
-616489
-616823
-616981
-617250
-617306
-617292
-617256
-617152
-617009
-616988
-617097
-617332
-617427
-617662
-617784
-617783
-617751
-617560
-617427
-617431
-617385
-617623
-617825
-617993
-618133
-618049
-618037
-617738
-617650
-617583
-617615
-617846
-617892
-618157
-618356
-618202
-618159
-617944
-617732
-617669
-617745
-617969
-618188
-618350
-618354
-618334
-618299
-617995
-617940
-617895
-617909
-618131
-618225
-618516
-618579
-618541
-618537
-618300
-618259
-618172
-618180
-618401
-618564
-618756
-618911
-618950
-618847
-618654
-618462
-618538
-618485
-618716
-618961
-619142
-619275
-619221
-619151
-618859
-618703
-618629
-618516
-618660
-618670
-618743
-618640
-618403
-618063
-617606
-617223
-616929
-616596
-616474
-616376
-616205
-615999
-615566
-615149
-614570
-614111
-613726
-613413
-613194
-613015
-612920
-612639
-612122
-611854
-611321
-611008
-610695
-610343
-610301
-610297
-610263
-610204
-609942
-609586
-609248
-608975
-608750
-608644
-608739
-608817
-608972
-608931
-608793
-608649
-608349
-608238
-608108
-608187
-608304
-608532
-608783
-608809
-608761
-608698
-608547
-608411
-608347
-608437
-608687
-608787
-609042
-609275
-609220
-609170
-609047
-608937
-608902
-609022
-609120
-609325
-609523
-609716
-609690
-609616
-609404
-609287
-609329
-609529
-609651
-609877
-609941
-609985
-609886
-609680
-609555
-609569
-609562
-609730
-609806
-610139
-610108
-610078
-610031
-609781
-609672
-609630
-609623
-609801
-609869
-610143
-610214
-610155
-610072
-609801
-609638
-609649
-609667
-609874
-609976
-610335
-610345
-610331
-610251
-610048
-609987
-610023
-609981
-610176
-610459
-610715
-610818
-610917
-610868
-610613
-610486
-610541
-610475
-610697
-610941
-611276
-611805
-611489
-611386
-611101
-610989
-610888
-610961
-611141
-611417
-611551
-611762
-611692
-611576
-611407
-611274
-611271
-611306
-611515
-611716
-611974
-612022
-612014
-611879
-611635
-611496
-611489
-611703
-612212
-612276
-612181
-612025
-611851
-611758
-611665
-611592
-611808
-611960
-612241
-612309
-612241
-612225
-612045
-611855
-611881
-611790
-611998
-612238
-612431
-612456
-612470
-612410
-612165
-611978
-611871
-611870
-612071
-612275
-612521
-612568
-612586
-612529
-612224
-612154
-612052
-612011
-612205
-612456
-612692
-612727
-612745
-612632
-612443
-612309
-612312
-612231
-612426
-612695
-612848
-612985
-613001
-612938
-612827
-612597
-612636
-612698
-612853
-613146
-613373
-613576
-613473
-613491
-613277
-613108
-613169
-613235
-613486
-613652
-613884
-614016
-614020
-614070
-613882
-613767
-613799
-613842
-614040
-614276
-614601
-614798
-614752
-614728
-614494
-614409
-614434
-614433
-614620
-614893
-615140
-615296
-615297
-615258
-615075
-615051
-615000
-615023
-615220
-615282
-615617
-615603
-615804
-615746
-615599
-615486
-615436
-615461
-615662
-615799
-616090
-616210
-616272
-616213
-615927
-615821
-615848
-615791
-616029
-616193
-616457
-616542
-616514
-616616
-616263
-616216
-616218
-616088
-616363
-616441
-616807
-616967
-617006
-616847
-616686
-616580
-616494
-616658
-616878
-617186
-617283
-617290
-617289
-617042
-616832
-616806
-616758
-616962
-617230
-617516
-617672
-617733
-617621
-617432
-617299
-617262
-617170
-617506
-617682
-617882
-617959
-618014
-617942
-617748
-617634
-617640
-617557
-617846
-618030
-618259
-618365
-618402
-618305
-618148
-618033
-617919
-617944
-618226
-618368
-618670
-618661
-618728
-618614
-618444
-618425
-618347
-618328
-618469
-618643
-618917
-618983
-618945
-618848
-618555
-618360
-618171
-618028
-617986
-618008
-617893
-617654
-617258
-616725
-616290
-615883
-615450
-615293
-615135
-614946
-615194
-614332
-613723
-613075
-612502
-612105
-611675
-611589
-611137
-611222
-610962
-610720
-610149
-609740
-609451
-609070
-608850
-608749
-608782
-608878
-608868
-608449
-608359
-607930
-607722
-607643
-607420
-607637
-608057
-608010
-607982
-608313
-607913
-607619
-607416
-607392
-607288
-607474
-607736
-607965
-608107
-608087
-608012
-607815
-607753
-607614
-607640
-607738
-607963
-608222
-608405
-608359
-608397
-608465
-608006
-607904
-607845
-608012
-608202
-608404
-608453
-608539
-608462
-608069
-607996
-607898
-607847
-608003
-608136
-608352
-608376
-608383
-608236
-608029
-607856
-607809
-607657
-607897
-608046
-608142
-608240
-608209
-608133
-607774
-607559
-607508
-607418
-607614
-607824
-608058
-608155
-607887
-607945
-607677
-607550
-607536
-607499
-607587
-607814
-608113
-608241
-608197
-608175
-607975
-607727
-607794
-607835
-607925
-608255
-608541
-608785
-608869
-608836
-608606
-608626
-608553
-608360
-608846
-609112
-609461
-609581
-609707
-609657
-609463
-609406
-609444
-609463
-609574
-609826
-610148
-610072
-610247
-610238
-610075
-609919
-609901
-609945
-610012
-610270
-610315
-610600
-610669
-610603
-610268
-610243
-610148
-610110
-610207
-610380
-610632
-610698
-610683
-610579
-610401
-610226
-610208
-610073
-610258
-610698
-610732
-610739
-610710
-610684
-610459
-610378
-610236
-609972
-610367
-610588
-610862
-610892
-610927
-610860
-610485
-610434
-610360
-610322
-610599
-610740
-610963
-611154
-611112
-611074
-610866
-610681
-610676
-610726
-610914
-611148
-611320
-611545
-611506
-611459
-611227
-611094
-611134
-611213
-611370
-611652
-611819
-611999
-612004
-611959
-611766
-611678
-611725
-611854
-612085
-612326
-612496
-612479
-612513
-612321
-612195
-612263
-612308
-612529
-612718
-613012
-613188
-613230
-613119
-612946
-612893
-612817
-612788
-613013
-613153
-613524
-613565
-613745
-613605
-613372
-613267
-613377
-613355
-613567
-613753
-614017
-614171
-614195
-614089
-613866
-613816
-613847
-613770
-614007
-614212
-614518
-614682
-614637
-614595
-614426
-614294
-614312
-614301
-614458
-614654
-614954
-614995
-615036
-615023
-614828
-614721
-614747
-614763
-614922
-615132
-615368
-615459
-615454
-615463
-615231
-615194
-615104
-615189
-615263
-615543
-615823
-615927
-615878
-615914
-615668
-615592
-615609
-615638
-615715
-615861
-616141
-616298
-616070
-615975
-615914
-615882
-615950
-616071
-616277
-616577
-616605
-616664
-616662
-616419
-616239
-616169
-616208
-616350
-616559
-616828
-617012
-616974
-616955
-616672
-616507
-616431
-616567
-616624
-616845
-617110
-617220
-617175
-617108
-616946
-616831
-616857
-616821
-616977
-617214
-617400
-617594
-617598
-617497
-617362
-617178
-617211
-617144
-617327
-617585
-617785
-617930
-617986
-617975
-617715
-617599
-618051
-617699
-617830
-617953
-618223
-618357
-618424
-618368
-617766
-617982
-618055
-618016
-618108
-618365
-618705
-618778
-618868
-618841
-618590
-618490
-618432
-618560
-618604
-618794
-619074
-619212
-619198
-619127
-618870
-618774
-618647
-618656
-618658
-618723
-618822
-618780
-618557
-618267
-617741
-617327
-616981
-616583
-616195
-616126
-615917
-615710
-615140
-614650
-613995
-613392
-612961
-612591
-612273
-612042
-611879
-611616
-611288
-610775
-610181
-609817
-609410
-609234
-609034
-608997
-609017
-608866
-608693
-608471
-608071
-607873
-607670
-607617
-607638
-607703
-607870
-607864
-607694
-607788
-607534
-607391
-607371
-607354
-607561
-607738
-608006
-608110
-608169
-608130
-607936
-607830
-607800
-607812
-608001
-608214
-608503
-608556
-608604
-608563
-608347
-608262
-608312
-608374
-608469
-608741
-609001
-609116
-609129
-609112
-608873
-608733
-608731
-608770
-608826
-609042
-609241
-609289
-609309
-609265
-609049
-608941
-608838
-608785
-608940
-609005
-609270
-609367
-609294
-609045
-608947
-608948
-608899
-609012
-609101
-609378
-609459
-609397
-609341
-609089
-608975
-608852
-608906
-609068
-609199
-609498
-609610
-609661
-609630
-609337
-609270
-609163
-609364
-609485
-609740
-610043
-610159
-610245
-610120
-610103
-609955
-609995
-610088
-610293
-610567
-610826
-611022
-611098
-610958
-610872
-610926
-610980
-611104
-611324
-611619
-611679
-612140
-611797
-611544
-611234
-611293
-611315
-611423
-611599
-611888
-611952
-612024
-612003
-611660
-611522
-611573
-611568
-611696
-611970
-611997
-611893
-611903
-611645
-611437
-611341
-611378
-611462
-611550
-611739
-611904
-611923
-611738
-611381
-611353
-611274
-611306
-611392
-611624
-611733
-611796
-611754
-611632
-611514
-611357
-611262
-611252
-611358
-611495
-611682
-611890
-611829
-611743
-611561
-611400
-611357
-611385
-611500
-611673
-611940
-612048
-612026
-611959
-611775
-611623
-611586
-611658
-611779
-611924
-612216
-612312
-612324
-612314
-612134
-611989
-611914
-611918
-612108
-612206
-612456
-612602
-612666
-612632
-612351
-612205
-612178
-612249
-612428
-612649
-612951
-613109
-613065
-613056
-612839
-612782
-612719
-612759
-612844
-613125
-613380
-613529
-613562
-613555
-613341
-613230
-613089
-613222
-613416
-613623
-613851
-613910
-614060
-614018
-613728
-613570
-613569
-613684
-613774
-613990
-614224
-614421
-614526
-614407
-614235
-614016
-614005
-614120
-614220
-614491
-614737
-614802
-615088
-614908
-614611
-614423
-614421
-614415
-614479
-614731
-615053
-615150
-615186
-615073
-614934
-614834
-614806
-614851
-614971
-615159
-615388
-615429
-615491
-615428
-615252
-615091
-615090
-615135
-615214
-615438
-615730
-615822
-615760
-615805
-615575
-615471
-615380
-615439
-615582
-615796
-616049
-616150
-616154
-616080
-615920
-615810
-615672
-615628
-615832
-616107
-616403
-616534
-616594
-616494
-616301
-616166
-616120
-616097
-616268
-616507
-616820
-616885
-616886
-616807
-616589
-616378
-616464
-616447
-616589
-616809
-617134
-617653
-617348
-617299
-616983
-616797
-616765
-616793
-616946
-617180
-617386
-617561
-617596
-617534
-617261
-617118
-617146
-617128
-617339
-617554
-617802
-617903
-617931
-617889
-617640
-617613
-617488
-617540
-617681
-617846
-618082
-618255
-618251
-618169
-617919
-617747
-617764
-617865
-617966
-618063
-618488
-618511
-618642
-618570
-618346
-618106
-618086
-618042
-618168
-618393
-618741
-618815
-618797
-618765
-618591
-618452
-618411
-618372
-618598
-618778
-618989
-619121
-619135
-619078
-618942
-618723
-618520
-618631
-618767
-618871
-619173
-619366
-619409
-619375
-619152
-619046
-618960
-619001
-619078
-619258
-619588
-619676
-619687
-620086
-619497
-619362
-619236
-619099
-619330
-619578
-619870
-620006
-620070
-620081
-619809
-619652
-619562
-619621
-619762
-620012
-620270
-620413
-620423
-620351
-620145
-620115
-620032
-620108
-620199
-620361
-620658
-620805
-620846
-620831
-620620
-620506
-620462
-620445
-620557
-620750
-620976
-621111
-621167
-621216
-620980
-620832
-620743
-620831
-620764
-621051
-621368
-621399
-621385
-621048
-620831
-620659
-620614
-620471
-620348
-620313
-620250
-620139
-619772
-619303
-618737
-618094
-617657
-617174
-616923
-616894
-616509
-616028
-615621
-615079
-614403
-613802
-613392
-612984
-612653
-612476
-612378
-612147
-611839
-611515
-610959
-610502
-610231
-610035
-610002
-609936
-610081
-609978
-609854
-609628
-609313
-609521
-609148
-608936
-609041
-609097
-609360
-609466
-609535
-609472
-609235
-609038
-609026
-609120
-609262
-609501
-610243
-610064
-610050
-610087
-609859
-609751
-609738
-609824
-609895
-610233
-610579
-610696
-610741
-610728
-610506
-610425
-610373
-610383
-610571
-610765
-611133
-611150
-611289
-611239
-611014
-610721
-610776
-610761
-610971
-611476
-611526
-611449
-611199
-611054
-611060
-610989
-611051
-611240
-611446
-611471
-611574
-611517
-611213
-611088
-611166
-611376
-611270
-611837
-611658
-611657
-611932
-611705
-611361
-611178
-611217
-611294
-611262
-611571
-611819
-611955
-611981
-611989
-611837
-611671
-611688
-611743
-611881
-612213
-612541
-612766
-612908
-612844
-612697
-612625
-612617
-612685
-612893
-613154
-613502
-613636
-613760
-613746
-613559
-613463
-613509
-613513
-613652
-613928
-614153
-614371
-614448
-614250
-614122
-614117
-614310
-614498
-615086
-614847
-614662
-614409
-614257
-614206
-614277
-614191
-614341
-614589
-614684
-614713
-614656
-614411
-614278
-614138
-614238
-614299
-614467
-614725
-614771
-614755
-614687
-614477
-614290
-614246
-614144
-614301
-614444
-614801
-614858
-614859
-614898
-614538
-614473
-614445
-614418
-614457
-614585
-614859
-615028
-615032
-615048
-614845
-614621
-614578
-614671
-614691
-614913
-615282
-615429
-615457
-615468
-615270
-615049
-615078
-615032
-615156
-615396
-615652
-615832
-615841
-615934
-615669
-615602
-615444
-615516
-615698
-615895
-616164
-616361
-616457
-616380
-616246
-616129
-616052
-616140
-616278
-616472
-616735
-616950
-616922
-616994
-616707
-616674
-616606
-616698
-616775
-616989
-617299
-617455
-617578
-617592
-617189
-617056
-617046
-617094
-617199
-617533
-617788
-617893
-617963
-617918
-617747
-617547
-617534
-618024
-617814
-617876
-618181
-618356
-618481
-618427
-618157
-617988
-618004
-618038
-618065
-618220
-618602
-618762
-618778
-618691
-618478
-618383
-618339
-618215
-618354
-618684
-618967
-619044
-619141
-619150
-618848
-618780
-618697
-618696
-618842
-618814
-619222
-619447
-619575
-619394
-619235
-619068
-619029
-618952
-619148
-619308
-619587
-619712
-619789
-619791
-619603
-619506
-619492
-619412
-619526
-619754
-619987
-620189
-620307
-620246
-620015
-619877
-619870
-619881
-619977
-620077
-620411
-620502
-620585
-620637
-620441
-620298
-620176
-620234
-620409
-620604
-620798
-620969
-621131
-620983
-620816
-620591
-620626
-620618
-620784
-620922
-621211
-621303
-621430
-621337
-621197
-621083
-620994
-621002
-621155
-621337
-621644
-621744
-621816
-621817
-621573
-621354
-621373
-621431
-621751
-622061
-622145
-622227
-622184
-621933
-621759
-621797
-621763
-621950
-622207
-622430
-622551
-622628
-622602
-622269
-622224
-622188
-622274
-622332
-622646
-622903
-623020
-623024
-623008
-622818
-622620
-622553
-622673
-622770
-622963
-623262
-623363
-623498
-623557
-623244
-623139
-623072
-623153
-623149
-623420
-623743
-623810
-623928
-623904
-623682
-623499
-623454
-623425
-623395
-623763
-624070
-624151
-624224
-624265
-624060
-623868
-623909
-623850
-623900
-624172
-624455
-624662
-624647
-624649
-624335
-624244
-624267
-624259
-624379
-624598
-624809
-625019
-624866
-624912
-624747
-624578
-624542
-624481
-624645
-624925
-625104
-625266
-625376
-625330
-625074
-624976
-624994
-624918
-625014
-625190
-625412
-625574
-625631
-625694
-625462
-625233
-625205
-625212
-625334
-625488
-625770
-625891
-626007
-626036
-625782
-625630
-625579
-625576
-625706
-625977
-626201
-626344
-626314
-626489
-626211
-626116
-626032
-625976
-626121
-626252
-626567
-626682
-626786
-626720
-626420
-626345
-626425
-626411
-626541
-626716
-626962
-627078
-627130
-627117
-626900
-626776
-626665
-626708
-626813
-626972
-627220
-627371
-627382
-627367
-627086
-626887
-626762
-626737
-626665
-626732
-626859
-626782
-626661
-626403
-625845
-625351
-625003
-624581
-624237
-624085
-623963
-623542
-623115
-622642
-621926
-621309
-620831
-620375
-619991
-619737
-619628
-619295
-619044
-618612
-617933
-617440
-617060
-616763
-616563
-616439
-616423
-616376
-616242
-615983
-615490
-615235
-615009
-614911
-614669
-614963
-615201
-615268
-615315
-615123
-614939
-614706
-614651
-614661
-614663
-614978
-615334
-615500
-615471
-615410
-615260
-615147
-615206
-615373
-615563
-615918
-616146
-616178
-616186
-616005
-615844
-615912
-615857
-616071
-616273
-616391
-616683
-616852
-616901
-616632
-616568
-616475
-616468
-616536
-616913
-617110
-617273
-617293
-617246
-617024
-616879
-616882
-616875
-616982
-617108
-617393
-617449
-617481
-617427
-617191
-617028
-617045
-617055
-617017
-617239
-617543
-617635
-617718
-617620
-617389
-617204
-617179
-617202
-617274
-617449
-617748
-617778
-617813
-617852
-617677
-617560
-617470
-617492
-617554
-617878
-618201
-618329
-618499
-618455
-618394
-618266
-618271
-618340
-618494
-618607
-618995
-619217
-619369
-619378
-619070
-619064
-619069
-619171
-619158
-619360
-619655
-619887
-619898
-619914
-619705
-619533
-619481
-619459
-619625
-619765
-620007
-620180
-620478
-620352
-619943
-619835
-619731
-619693
-619800
-620061
-620278
-620334
-620386
-620371
-620045
-619952
-619859
-619939
-619867
-620143
-620299
-620404
-620429
-620440
-620246
-620005
-619901
-619919
-619920
-620127
-620407
-620537
-620614
-620667
-620365
-620204
-620136
-620104
-620192
-620441
-620659
-620729
-620810
-620790
-620573
-620384
-620344
-620360
-620529
-620781
-621095
-621199
-621274
-621215
-621021
-620791
-620848
-620789
-620961
-621129
-621411
-621582
-621628
-621694
-621436
-621138
-621294
-621391
-621467
-621659
-622015
-622105
-622633
-622366
-621996
-621877
-621819
-621820
-621894
-622193
-622515
-622655
-622695
-622750
-622537
-622398
-622273
-622393
-622444
-622713
-623034
-623142
-623180
-623246
-623062
-622905
-623281
-623037
-622992
-623265
-623493
-623628
-623799
-623717
-623550
-623264
-623248
-623249
-623432
-623715
-624000
-624116
-624126
-624130
-623954
-623594
-623721
-623790
-623984
-624161
-624330
-624464
-624500
-624553
-624375
-624256
-624236
-624159
-624218
-624443
-624800
-624925
-624952
-624957
-624764
-624560
-624530
-624460
-624574
-624710
-625064
-625149
-625252
-625281
-624963
-624888
-624842
-624871
-625077
-625236
-625471
-625637
-625644
-625601
-625378
-625279
-625257
-625014
-625310
-625576
-625821
-625999
-625977
-625925
-625812
-625679
-625542
-625597
-625688
-625908
-626119
-626255
-626316
-626362
-626076
-625957
-625841
-625898
-626063
-626186
-626475
-626555
-626702
-626642
-626400
-626356
-626345
-626263
-626367
-626607
-626769
-626912
-626992
-626914
-626673
-626683
-626511
-626620
-626593
-626839
-627119
-627236
-627263
-627336
-627030
-626884
-626894
-626882
-626951
-627217
-627525
-627710
-627799
-627736
-627542
-627422
-627243
-627261
-627418
-627607
-627901
-628042
-628143
-628041
-628280
-627826
-627680
-627699
-627729
-627985
-628225
-628358
-628443
-628345
-628165
-627989
-627947
-628015
-628104
-628287
-628573
-628709
-628744
-628690
-628475
-628426
-628354
-628414
-628495
-628677
-628941
-629124
-629205
-629164
-628920
-628798
-628724
-628768
-628829
-629033
-629274
-629439
-629570
-629479
-629300
-629152
-629063
-629130
-629280
-629409
-629637
-629845
-629874
-629832
-629669
-629494
-629477
-629469
-629602
-629837
-630070
-630206
-630312
-630203
-630021
-629927
-629851
-629915
-629969
-630112
-630398
-630501
-630550
-630586
-630335
-630215
-630189
-630162
-630251
-630511
-630736
-630817
-630974
-630859
-630752
-630635
-630508
-630619
-630689
-630911
-631105
-631279
-631152
-631220
-631112
-630934
-630907
-630881
-630923
-631129
-631414
-631551
-631553
-631561
-631360
-631240
-631159
-631152
-631244
-631512
-631889
-631906
-631946
-631902
-631619
-631489
-631543
-631561
-631562
-631818
-632033
-632185
-632223
-632206
-632038
-631743
-631627
-631510
-631590
-631663
-631863
-631847
-631748
-631468
-631012
-630641
-630349
-630044
-629586
-629472
-629426
-629123
-628670
-628338
-627753
-627176
-626728
-626298
-625928
-623499
-623069
-622772
-622491
-622427
-622543
-622352
-622174
-621934
-621533
-621212
-620963
-620837
-620705
-620793
-620935
-621036
-621004
-620895
-620656
-620463
-620420
-620457
-620478
-620723
-621017
-621147
-621238
-621209
-621063
-620906
-620994
-621060
-621228
-621508
-621811
-621931
-622086
-622094
-621977
-621922
-621867
-621964
-622079
-622390
-622807
-622942
-623089
-623108
-623004
-622846
-622897
-622891
-623023
-623255
-623624
-623785
-623899
-623883
-623747
-623629
-623597
-623592
-623719
-623973
-624187
-624295
-624385
-624430
-624219
-624123
-624002
-624001
-624142
-624352
-624676
-624779
-624846
-624796
-624529
-624427
-624357
-624407
-624555
-624799
-625061
-625131
-625210
-625252
-625035
-625364
-624940
-625045
-625142
-625262
-625688
-625906
-625974
-625910
-625759
-625693
-625696
-625650
-625835
-626048
-626301
-626423
-626654
-626635
-626418
-626325
-626286
-626273
-626272
-626508
-626786
-626846
-626938
-626996
-626716
-626485
-626441
-626391
-626500
-626714
-626968
-627043
-626997
-626888
-626518
-626541
-626415
-626428
-626273
-626626
-626925
-626981
-626928
-626884
-626590
-626419
-626284
-626305
-626310
-626510
-626730
-626880
-626874
-626836
-626586
-626411
-626322
-626279
-626367
-626549
-626801
-626838
-626839
-626752
-626540
-626501
-626445
-626442
-626505
-626612
-626989
-626905
-627052
-627048
-626900
-626714
-626667
-626725
-626820
-627371
-627453
-627443
-627542
-627503
-627336
-627105
-627122
-627211
-627280
-627445
-627807
-627875
-628020
-628005
-627685
-627667
-627672
-627698
-627834
-628076
-628389
-628435
-628494
-628583
-628337
-628284
-628293
-628392
-628470
-628729
-628981
-629148
-629283
-629203
-628944
-628843
-628819
-628929
-629026
-629278
-629518
-629653
-629734
-629840
-629591
-629474
-629404
-629441
-629618
-629757
-629988
-630190
-630303
-630371
-630164
-630004
-629967
-629867
-630051
-630283
-630563
-630650
-630709
-630679
-630498
-630339
-630341
-630426
-630417
-630691
-631431
-631228
-631184
-631017
-630804
-630785
-630732
-630751
-630776
-630984
-631276
-631391
-631526
-631473
-631286
-631179
-631112
-631190
-631134
-631313
-631600
-631793
-631847
-631804
-631623
-631517
-631378
-631402
-631561
-631750
-632043
-632155
-632234
-632204
-631997
-631793
-631843
-632262
-632007
-632209
-632475
-632566
-632564
-632593
-632331
-632186
-632165
-632172
-632228
-632389
-632702
-632776
-633240
-632988
-632615
-632516
-632496
-632478
-632620
-632843
-633168
-633198
-633212
-633177
-632930
-632793
-632653
-632807
-632931
-633163
-633338
-633565
-633584
-633508
-633261
-633142
-632944
-633127
-633327
-633496
-633511
-633762
-633854
-633951
-633678
-633641
-633543
-633430
-633574
-633855
-634185
-634262
-634249
-634209
-634059
-633891
-633930
-633898
-633998
-634192
-634415
-634622
-634603
-634628
-634444
-634659
-634644
-634303
-634356
-634564
-634842
-634891
-634931
-634959
-634707
-634556
-634520
-634528
-634599
-634830
-635107
-635309
-635282
-635279
-635041
-634863
-634801
-634882
-634789
-634961
-635296
-635500
-635589
-635554
-635237
-635172
-635064
-635086
-635226
-635498
-635704
-635874
-635862
-635857
-635556
-635412
-635393
-635313
-635503
-635646
-635858
-635998
-635976
-635964
-635718
-635521
-635564
-635352
-635699
-635915
-636221
-636284
-636302
-636246
-635941
-635854
-635803
-635794
-635994
-636178
-636767
-636629
-636625
-636503
-636260
-636101
-636136
-636067
-636197
-636421
-636596
-636699
-636797
-636645
-636505
-636340
-636400
-636469
-636487
-636684
-637065
-637155
-637143
-637085
-636832
-636706
-636751
-636729
-636813
-637003
-637207
-637418
-637461
-637498
-637315
-637156
-637040
-637024
-637144
-637451
-637676
-637787
-637822
-637716
-637450
-637264
-637243
-637239
-637278
-637403
-637604
-637671
-637634
-637487
-637026
-636661
-636408
-636189
-636061
-636016
-635826
-635637
-635330
-634948
-634319
-633643
-633211
-632760
-632496
-632243
-631977
-631728
-631338
-630815
-630180
-629763
-629276
-628963
-628715
-628451
-628485
-628353
-628045
-627744
-627261
-626963
-626725
-626475
-626330
-626400
-626453
-626432
-626345
-626201
-625772
-625586
-625435
-625396
-625388
-625540
-625787
-625920
-625867
-625841
-625600
-625466
-625366
-625505
-625613
-625794
-626089
-626241
-626319
-626322
-626036
-625945
-625872
-625974
-626159
-626321
-626561
-626701
-626788
-626706
-626500
-626428
-626373
-626436
-626614
-626821
-627050
-627227
-627378
-627266
-627111
-626950
-626879
-626975
-627056
-627302
-627601
-627715
-627765
-627740
-627499
-627319
-627305
-627358
-627444
-627662
-627842
-627913
-627935
-627894
-627723
-627582
-627490
-627415
-627498
-627753
-627983
-628136
-628129
-628065
-627924
-627747
-627733
-627681
-627817
-628040
-628309
-628395
-628482
-628461
-628312
-628214
-628112
-628155
-628253
-628442
-628789
-629051
-628953
-628989
-628880
-628764
-628862
-628955
-629003
-629102
-629521
-629700
-629829
-629746
-629610
-629540
-629416
-629465
-629647
-629871
-630147
-630250
-630314
-630256
-630044
-629901
-629842
-629921
-629948
-630171
-630417
-630487
-630564
-630541
-630258
-630176
-630146
-630042
-630091
-630319
-630547
-630573
-630425
-630474
-630211
-630119
-630000
-630017
-630132
-630238
-630493
-630605
-630612
-630617
-630203
-630061
-630000
-630012
-630060
-630178
-630372
-630514
-630497
-630488
-630087
-630010
-629998
-630023
-630087
-630317
-630498
-630630
-630660
-630584
-630349
-630170
-630131
-630092
-630245
-630507
-630747
-630794
-630923
-630873
-630636
-630582
-630540
-630512
-630642
-630814
-631127
-631229
-631257
-631199
-630960
-630769
-630781
-630737
-630978
-631247
-631531
-631671
-631753
-631690
-631432
-631264
-631339
-631373
-631524
-631748
-631947
-632061
-632089
-632072
-631865
-631809
-631881
-631863
-631972
-632157
-632368
-632491
-632618
-632531
-632385
-632186
-632245
-632329
-632373
-632582
-632785
-632974
-632859
-632968
-632772
-632732
-632702
-632686
-632803
-632999
-633280
-633316
-633435
-633372
-633113
-632985
-632964
-633006
-633145
-633417
-633619
-633724
-632994
-633594
-633503
-633505
-633481
-633503
-633640
-633818
-634080
-634189
-634239
-634030
-633979
-633946
-633916
-633929
-634113
-634248
-634575
-634585
-634443
-634447
-634683
-634362
-634357
-634377
-634325
-634588
-634832
-635032
-635013
-634977
-634776
-634629
-634583
-634582
-634688
-634890
-635185
-635383
-635284
-635360
-635080
-634930
-634852
-634858
-635084
-635277
-635487
-635633
-635586
-635576
-635325
-635296
-635248
-635268
-635380
-635497
-635589
-635745
-635875
-635857
-635638
-635565
-635486
-635444
-635600
-635770
-636014
-636190
-636250
-636115
-635883
-635797
-635748
-635841
-635912
-636072
-636348
-636484
-636543
-636455
-636235
-636099
-636093
-636078
-636280
-636463
-636691
-636836
-636905
-636807
-636542
-636425
-636363
-636378
-636588
-636775
-636994
-637054
-637039
-637107
-636826
-636718
-636676
-636661
-636945
-637166
-637360
-637461
-637438
-637423
-637168
-637134
-637018
-637021
-637176
-637350
-637656
-637668
-637748
-637714
-637520
-637441
-637390
-637439
-637544
-637779
-638018
-638109
-638159
-638087
-637872
-637861
-637788
-637892
-637922
-638144
-638336
-638473
-638541
-638401
-638338
-638268
-638133
-638174
-638302
-638543
-638761
-638925
-638960
-638899
-638658
-638401
-638487
-638503
-638613
-638902
-639090
-639224
-639241
-639212
-639004
-638837
-638778
-639212
-639128
-639248
-639514
-639558
-639607
-639555
-639301
-639188
-639197
-639165
-639360
-639538
-639761
-639834
-639829
-639786
-639636
-639516
-639475
-639561
-639656
-639756
-639939
-640092
-640110
-640134
-639980
-639818
-639761
-639878
-639944
-640052
-640440
-640516
-640531
-640484
-640255
-640214
-640165
-640237
-640381
-640331
-640796
-640988
-640939
-640859
-640683
-640500
-640481
-640545
-640616
-640670
-640819
-640868
-640693
-640601
-640164
-639970
-639629
-639341
-639165
-639073
-638881
-638656
-638276
-637849
-637188
-636555
-636073
-635688
-635313
-635145
-634917
-634533
-634149
-633706
-632999
-632526
-632063
-631676
-631506
-631240
-631102
-630978
-630738
-630433
-629990
-629628
-629330
-629125
-629122
-629158
-629140
-629072
-629014
-628852
-628518
-628326
-628332
-628254
-628407
-628504
-628764
-628845
-628836
-628763
-628661
-628543
-628573
-628679
-628755
-628971
-629268
-629370
-629442
-629397
-629268
-629180
-629239
-629279
-629530
-629709
-630073
-630234
-630293
-630269
-630110
-630122
-630055
-630120
-630254
-630537
-630708
-630914
-630993
-630981
-630711
-630686
-630643
-630743
-630825
-631050
-631331
-631365
-631422
-631421
-631252
-631136
-631057
-631120
-631067
-631344
-631642
-631639
-631691
-631583
-631322
-631241
-631254
-631235
-631380
-631527
-631756
-631837
-631885
-631803
-631656
-631553
-631483
-631461
-631505
-631733
-632078
-632151
-632190
-632192
-632013
-631869
-631787
-631907
-632075
-632226
-632581
-632757
-632850
-632836
-632561
-632477
-632494
-632544
-632657
-632922
-633136
-633279
-633288
-633332
-633166
-633016
-633056
-633053
-633066
-633344
-633511
-633645
-633725
-633713
-633400
-633389
-633251
-633202
-633373
-633545
-633742
-633871
-633890
-633804
-633685
-633455
-633373
-633382
-633557
-633603
-633879
-633941
-633901
-633827
-633622
-633460
-633162
-633282
-633435
-633645
-633855
-633980
-633986
-633867
-633525
-633451
-633452
-633402
-633517
-633536
-633832
-633933
-633884
-633829
-633616
-633491
-633457
-633454
-633600
-633770
-634052
-634150
-634072
-633977
-633820
-633709
-633669
-633753
-633901
-634015
-634216
-634318
-634367
-634376
-634133
-634045
-634046
-633955
-634102
-634326
-634499
-634825
-634726
-634717
-634557
-634486
-634421
-634437
-634631
-634825
-635120
-635301
-635357
-635247
-634895
-634927
-634909
-634924
-635055
-635375
-635634
-635825
-635800
-635749
-635553
-635297
-635378
-635674
-635709
-635834
-636066
-636244
-636492
-636324
-636127
-636005
-635955
-635900
-635951
-636196
-636551
-636577
-636693
-636595
-636459
-636445
-636364
-636274
-636420
-636731
-636932
-637047
-637147
-637079
-636779
-636790
-636806
-636657
-636900
-637125
-637421
-637475
-637506
-637442
-637183
-637202
-637162
-637133
-637275
-637483
-637694
-637828
-637850
-637821
-637600
-637447
-637409
-637415
-637687
-637789
-638047
-638130
-638179
-638124
-637945
-637867
-637890
-637748
-638010
-638248
-638484
-638475
-638468
-638410
-638263
-638192
-638099
-638162
-638244
-638438
-638703
-638878
-638793
-638714
-638582
-638445
-638353
-638457
-638573
-638788
-639032
-639096
-639099
-639007
-638806
-638755
-638719
-638710
-638902
-639061
-639327
-639434
-639452
-639398
-639186
-638994
-639035
-638966
-639232
-639428
-639686
-639779
-639739
-639626
-639497
-639314
-639376
-639277
-639544
-639713
-639935
-640062
-640031
-639901
-639804
-639685
-639728
-639722
-639884
-640140
-640310
-640446
-640377
-640289
-640157
-640020
-640029
-639985
-640155
-640365
-640621
-640802
-640740
-640677
-640529
-640334
-640327
-640231
-640445
-640630
-640986
-641055
-641044
-640953
-640814
-640654
-640648
-640628
-640854
-641080
-641303
-641322
-641281
-641318
-641093
-640808
-640945
-640935
-641192
-641443
-641680
-641707
-641785
-642185
-641615
-641375
-641387
-641372
-641563
-641700
-641909
-642039
-642087
-641949
-641817
-641667
-641723
-641649
-641835
-642023
-642234
-642407
-642377
-642283
-642177
-642041
-641914
-641871
-642123
-642391
-642653
-642690
-642737
-642649
-642380
-642275
-642264
-642206
-642452
-642595
-642939
-642998
-643019
-642940
-642766
-642703
-642648
-642616
-642800
-642960
-643281
-643395
-643414
-643302
-643138
-642994
-642944
-642972
-643039
-643262
-643629
-643703
-643737
-643556
-643324
-643212
-643290
-643303
-643495
-643643
-643922
-643980
-643983
-644042
-643885
-643693
-643655
-643634
-643874
-644124
-644360
-644456
-644504
-644465
-644233
-644062
-644053
-644027
-644203
-644422
-644644
-644635
-644536
-644469
-644129
-643857
-643674
-643502
-643387
-643354
-643411
-643112
-642731
-642345
-641706
-641187
-640817
-640373
-640072
-639853
-639692
-639383
-638967
-638438
-637788
-637251
-636828
-636419
-636231
-636102
-636015
-635655
-635331
-635041
-634476
-634135
-633859
-633637
-633692
-633665
-633673
-633621
-633418
-633277
-632986
-632748
-632624
-632500
-632602
-632774
-632969
-633041
-633006
-632988
-632684
-632619
-632640
-632660
-632928
-633066
-633299
-633467
-633568
-633449
-633345
-633264
-633310
-633389
-633657
-633848
-634187
-634279
-634363
-634342
-634179
-634148
-634139
-634220
-634499
-634708
-635020
-635134
-635144
-635108
-635024
-634922
-634929
-634961
-635276
-635456
-635488
-635728
-636433
-635880
-635680
-635565
-635490
-635517
-635675
-635943
-636183
-636338
-636256
-636277
-636062
-635888
-635911
-635808
-636016
-636241
-636514
-636636
-636526
-636494
-636150
-636195
-636193
-636294
-636632
-636814
-637036
-637084
-637115
-637088
-636888
-636746
-636792
-636779
-637039
-637284
-637919
-637842
-637671
-637647
-637479
-637277
-637370
-637366
-637640
-637796
-637979
-638116
-638078
-638001
-637794
-637745
-637697
-637588
-637892
-638024
-638223
-638286
-638261
-638202
-637956
-637759
-637762
-637717
-637850
-637972
-638149
-638182
-638095
-638055
-637707
-637638
-637553
-637438
-637622
-637819
-637955
-638001
-637994
-637807
-637538
-637423
-637422
-637356
-637508
-637760
-637889
-637920
-637813
-637824
-637504
-637409
-637433
-637360
-637483
-637646
-637890
-637944
-637929
-637799
-637656
-637469
-637510
-637507
-637712
-637942
-638145
-638128
-638145
-637958
-637884
-637817
-637853
-637878
-638117
-638240
-638589
-638603
-638677
-638514
-638384
-638284
-638287
-638215
-638439
-638701
-638937
-639066
-639104
-639124
-638928
-638766
-638762
-638749
-639002
-639227
-639439
-639522
-639584
-639498
-639376
-639362
-639327
-639350
-639610
-639719
-639972
-640127
-640216
-640077
-639919
-639765
-639801
-639874
-640053
-640300
-640619
-640751
-640802
-640700
-640452
-640410
-640390
-640364
-640664
-640894
-641063
-641254
-641263
-641265
-641073
-640943
-640910
-640983
-641076
-641401
-641656
-641858
-641805
-641639
-641485
-641377
-641382
-641420
-641540
-641833
-642040
-642199
-642186
-642117
-641904
-641832
-641841
-641732
-642001
-642169
-642353
-642442
-642494
-642326
-642097
-642041
-642302
-642102
-642158
-642386
-642563
-642578
-642584
-642409
-642272
-642137
-642098
-642128
-642321
-642475
-642664
-642677
-642719
-642583
-642379
-642205
-642139
-642204
-642423
-642548
-642686
-642859
-642939
-643180
-642693
-642379
-642371
-642351
-642580
-642703
-642936
-642987
-643012
-642893
-642656
-642526
-642560
-642586
-642772
-642951
-643091
-643244
-643300
-643205
-642968
-642857
-642831
-642875
-643026
-643180
-643414
-643584
-643581
-643426
-643200
-643116
-643106
-643029
-643222
-643439
-643656
-643805
-643810
-643691
-643481
-643366
-643292
-643313
-643542
-643752
-643996
-644141
-644140
-644002
-643720
-643661
-643573
-643671
-643916
-644062
-644276
-644366
-644389
-644337
-644093
-643956
-643928
-643925
-644121
-644384
-644732
-644717
-644778
-644676
-644472
-644407
-644309
-644362
-644563
-644829
-645040
-645208
-645252
-645018
-644802
-644734
-644627
-644797
-644959
-645219
-645470
-645653
-645590
-645525
-645331
-645218
-645199
-645264
-645409
-645554
-645851
-645900
-646085
-645815
-645655
-645579
-645625
-645577
-645787
-646029
-646200
-646381
-646452
-646272
-646047
-645871
-645842
-645919
-646035
-646311
-646533
-646557
-646653
-646532
-646249
-646223
-646768
-646410
-646569
-646763
-646982
-647013
-647030
-646904
-646661
-646655
-646592
-646710
-646848
-647062
-647347
-647397
-647482
-647085
-646975
-647088
-647082
-647120
-647334
-647545
-647719
-647875
-647775
-647552
-647512
-647360
-647433
-647596
-647749
-647944
-647973
-647897
-647677
-647302
-647086
-646799
-646695
-646512
-646519
-646214
-645953
-645544
-644957
-644475
-644051
-643659
-643517
-643285
-643005
-642852
-642506
-641938
-641381
-640879
-640436
-640106
-640127
-639956
-639903
-639690
-639464
-638901
-638458
-638169
-637936
-637681
-637730
-637790
-637878
-637693
-637662
-637360
-637123
-636887
-636792
-636724
-636846
-636897
-637079
-637121
-637171
-636941
-636722
-636675
-636750
-636766
-636986
-637160
-637366
-637485
-637597
-637401
-637304
-637302
-637278
-637255
-637589
-637796
-638081
-638229
-638294
-638109
-637927
-637873
-637900
-637921
-638233
-638471
-638814
-638941
-639002
-638910
-638667
-638599
-638622
-638729
-638977
-639145
-639368
-639548
-639658
-639557
-639328
-639264
-639179
-639323
-639965
-639867
-639852
-640071
-640195
-639992
-639835
-639656
-639704
-639686
-639982
-640221
-640421
-640458
-640650
-640547
-640360
-640353
-640373
-640280
-640631
-640868
-641052
-641277
-641375
-641172
-640971
-640930
-640937
-640990
-641184
-641464
-641717
-641784
-641932
-641704
-641399
-641380
-641343
-641437
-641680
-641734
-641943
-642068
-642174
-641920
-641712
-641520
-641471
-641486
-641700
-641920
-642082
-642067
-642074
-641755
-641545
-641482
-641441
-641325
-641511
-641636
-641734
-641899
-641923
-641534
-641305
-641151
-641116
-641012
-641172
-641330
-641398
-641538
-641536
-641251
-640967
-640893
-640886
-640765
-640839
-641161
-641226
-641261
-641264
-641109
-640790
-640710
-640609
-640579
-640850
-640972
-641251
-641264
-641314
-641097
-640903
-640741
-640723
-640692
-641019
-641180
-641332
-641532
-641484
-641317
-641074
-641034
-640971
-641022
-641220
-641481
-641767
-641871
-641644
-641501
-641485
-641448
-641471
-641710
-641717
-641968
-642107
-642243
-642002
-641872
-641769
-641718
-641715
-642051
-642205
-642440
-642610
-642446
-642379
-642168
-642122
-642082
-642172
-642428
-642706
-642864
-642950
-643149
-642830
-642425
-642600
-642565
-642631
-642959
-643075
-643345
-643450
-643524
-643264
-643100
-643020
-643018
-643111
-643233
-643492
-643707
-643908
-643919
-643643
-643345
-643371
-643471
-643455
-643713
-643896
-644094
-644641
-644264
-644027
-643897
-643770
-643774
-643783
-644036
-644226
-644511
-644516
-644607
-644370
-644260
-644213
-644240
-644146
-644406
-644729
-645089
-644812
-644942
-644755
-644570
-644440
-644516
-644547
-644792
-644855
-645058
-645192
-645292
-645017
-644774
-644817
-644839
-644795
-645001
-645244
-645411
-645555
-645434
-645223
-645106
-645119
-645085
-645130
-645344
-645522
-645789
-645804
-645861
-645571
-645451
-645406
-645318
-645374
-645617
-645817
-645914
-646052
-646105
-645846
-645605
-645523
-645519
-645531
-645792
-645966
-646154
-646295
-646351
-645995
-645818
-645796
-645742
-645701
-645976
-646107
-646285
-646359
-646366
-646100
-645953
-645690
-645790
-645826
-646349
-646396
-646414
-646619
-646644
-646399
-646175
-646163
-646167
-646072
-646313
-646376
-646703
-646832
-646865
-646646
-646386
-646316
-646267
-646334
-646637
-646831
-646901
-646955
-647038
-646830
-646622
-646659
-646658
-646571
-646877
-647066
-647255
-647366
-647436
-647157
-646951
-646955
-646883
-646952
-647165
-647454
-647485
-647659
-647679
-647453
-647293
-647273
-647293
-647309
-647480
-647819
-647956
-647982
-648074
-648367
-647752
-647619
-647636
-647671
-647873
-648142
-648157
-648247
-648445
-648103
-648006
-647929
-647895
-647893
-648154
-648478
-648654
-648778
-648815
-648502
-648396
-648307
-648324
-648290
-648538
-648744
-649070
-649062
-649146
-648813
-648638
-648593
-648621
-648554
-648887
-649049
-649084
-649020
-648956
-648602
-648244
-648086
-647897
-647643
-647541
-647498
-647302
-647058
-646749
-646068
-645399
-645006
-644563
-644103
-643894
-643731
-643491
-643171
-642747
-642024
-641450
-641069
-640636
-640308
-640187
-640077
-639918
-639725
-639420
-638898
-638482
-638137
-637898
-637775
-637844
-637777
-637805
-637681
-637584
-637204
-636878
-636699
-636744
-636570
-636790
-636894
-637111
-637124
-637182
-636859
-636626
-636584
-636677
-636654
-636974
-637226
-637397
-637494
-637504
-637274
-637127
-637065
-637116
-637233
-637494
-637776
-637924
-638156
-638120
-637937
-637763
-637926
-637862
-638063
-638340
-638553
-638605
-638779
-638917
-638683
-638557
-638519
-638564
-638633
-638902
-638983
-639295
-639455
-639437
-639115
-639051
-638977
-639051
-639137
-639291
-639576
-639794
-639847
-639762
-639488
-639291
-639271
-639315
-639320
-639447
-639780
-639896
-639951
-639968
-639810
-639701
-639581
-639612
-639585
-639880
-640128
-640245
-640289
-640288
-640135
-639992
-639834
-639987
-640046
-640234
-640502
-640647
-640763
-640810
-640615
-640514
-640423
-640421
-640461
-640753
-641033
-641172
-641234
-641246
-640946
-640872
-640722
-640713
-640742
-640928
-641240
-641469
-641481
-641441
-641299
-641014
-640869
-640864
-640930
-641051
-641373
-641417
-641357
-641445
-641182
-640956
-640839
-640612
-640769
-640992
-641195
-641253
-641336
-641248
-640924
-640804
-640727
-640607
-640734
-640864
-640979
-641096
-641178
-641150
-640808
-640596
-640459
-640462
-640585
-640756
-640998
-641076
-641087
-641058
-640827
-640688
-640561
-640573
-640629
-640863
-641082
-641160
-641237
-641287
-641109
-640829
-640779
-640734
-640881
-641101
-641379
-641452
-641569
-641489
-641203
-641061
-641140
-641044
-641152
-641641
-641751
-641876
-641917
-641894
-641735
-641509
-641447
-641536
-641576
-641773
-642070
-642113
-642295
-642210
-642040
-641860
-641861
-641789
-641925
-642238
-642467
-642619
-642634
-642610
-642375
-642293
-642216
-642283
-642369
-642557
-642838
-643008
-643043
-643122
-642925
-642493
-642642
-642669
-642849
-643047
-643288
-643368
-643495
-643451
-643208
-643065
-643023
-643038
-643188
-643336
-643640
-643747
-643824
-643833
-643619
-643417
-643353
-643470
-643525
-643716
-643955
-644104
-644162
-644043
-643809
-643687
-643654
-643858
-643840
-643984
-644303
-644140
-644322
-644359
-644072
-644008
-643915
-643990
-644124
-644299
-644509
-644556
-644636
-644647
-644440
-644242
-644183
-644268
-644275
-644416
-644714
-644915
-644949
-644881
-644622
-644524
-644482
-644486
-644448
-644696
-645001
-645058
-645220
-645105
-644887
-644823
-644704
-644788
-644872
-645085
-645369
-645550
-645544
-645423
-645203
-645060
-645021
-645121
-645116
-645303
-645615
-645636
-645752
-645792
-645423
-645345
-645246
-645309
-645414
-645540
-645833
-645906
-645937
-645905
-645682
-645566
-645538
-645520
-645670
-645753
-646047
-646111
-646165
-646193
-645909
-645839
-645796
-645717
-645824
-646086
-646271
-646453
-646388
-646425
-646195
-646114
-646009
-646030
-646233
-646374
-646567
-646762
-646719
-646743
-646454
-646359
-646329
-646304
-646412
-646623
-646924
-646987
-646955
-646958
-646663
-646601
-646496
-646656
-646771
-646891
-647136
-647180
-647266
-647140
-646909
-646846
-646819
-646791
-647003
-647173
-647387
-647550
-647579
-647423
-647271
-647155
-647124
-647173
-647198
-647556
-647712
-647858
-647807
-647819
-647627
-647402
-647398
-647424
-647482
-647712
-647871
-648057
-648097
-648156
-647931
-647851
-647812
-647839
-647961
-648070
-648240
-648405
-648441
-648385
-648154
-648040
-648171
-648194
-648205
-648397
-648619
-648819
-648864
-648774
-648592
-648463
-648465
-648512
-648706
-648852
-649036
-649182
-649213
-649196
-648975
-648928
-648894
-648871
-648999
-649173
-649489
-649604
-649607
-649524
-649148
-648994
-648825
-648832
-648720
-648854
-649041
-648965
-648728
-648183
-647830
-647434
-647131
-646729
-646533
-646359
-646168
-645877
-645510
-645023
-644337
-643803
-643345
-642973
-642601
-642439
-642176
-641947
-641546
-641158
-640585
-640116
-639800
-639490
-639243
-639161
-639210
-639090
-638833
-638591
-638161
-637805
-637635
-637540
-637470
-637545
-637649
-637749
-637711
-637516
-636944
-636962
-636892
-636818
-636974
-637332
-637457
-637639
-637513
-637817
-637417
-637327
-637247
-637319
-637457
-637723
-637992
-638149
-638243
-638233
-638046
-637996
-637825
-637978
-638208
-638412
-638703
-638832
-638860
-638909
-638722
-638641
-638581
-638729
-638908
-639117
-639356
-639526
-639572
-639513
-639286
-639302
-639252
-639212
-639425
-639643
-639861
-640012
-639992
-639886
-639685
-639604
-639583
-639503
-639631
-639841
-640036
-640108
-640133
-640029
-639896
-639818
-639671
-639948
-639946
-640000
-640185
-640363
-640296
-640299
-640079
-639856
-639875
-639951
-640014
-640247
-640538
-640646
-640653
-640472
-640390
-640327
-640279
-640345
-640483
-640717
-640943
-641038
-641083
-641064
-640820
-640698
-640719
-640706
-641029
-641189
-641440
-641413
-641452
-641415
-641203
-641200
-641039
-640981
-641208
-641393
-641540
-641598
-641605
-641567
-641366
-641160
-641127
-640988
-641234
-641363
-641576
-641584
-641554
-641477
-641164
-640987
-640887
-640818
-640999
-641120
-641372
-641397
-641393
-641274
-640961
-640901
-640794
-640674
-640867
-640990
-641144
-641249
-641111
-641007
-640850
-640713
-640650
-640587
-640711
-640894
-641115
-641118
-641128
-640943
-640734
-640657
-640608
-640589
-640713
-640930
-641151
-641264
-641273
-641199
-640941
-640755
-640740
-640731
-640873
-641092
-641336
-641488
-641507
-641445
-641169
-641099
-641044
-640969
-641206
-641418
-641607
-641741
-641784
-641734
-641535
-641373
-641317
-641283
-641550
-641817
-642059
-642172
-642181
-642088
-641900
-641816
-641714
-641725
-641789
-642035
-642253
-642373
-642341
-642397
-642078
-641998
-641906
-641996
-642170
-642329
-642598
-642674
-642649
-642605
-642317
-642224
-642209
-642140
-642393
-642532
-642851
-642863
-642824
-642712
-642492
-642398
-642386
-642228
-642460
-642783
-642939
-643119
-643017
-643059
-642781
-642667
-642643
-642642
-642733
-642964
-643188
-643320
-643266
-643091
-643379
-642911
-642852
-642723
-642932
-643081
-643268
-643441
-643335
-643365
-643167
-642959
-642928
-642897
-642950
-643239
-643513
-643668
-643695
-643581
-643373
-643251
-643174
-643229
-643358
-643588
-643838
-643879
-643827
-643724
-643649
-643919
-643600
-643472
-643601
-643814
-643805
-644053
-644106
-644094
-643862
-643770
-643737
-643692
-643922
-644088
-644267
-644417
-644445
-644336
-644071
-644068
-643963
-644028
-644241
-644392
-644642
-644714
-644664
-644599
-644346
-644307
-644304
-644188
-644368
-644615
-644846
-644887
-644964
-644796
-644543
-644494
-644476
-644454
-644642
-644838
-645111
-645144
-645141
-644988
-644821
-644647
-644662
-644953
-644905
-645024
-645197
-645273
-645308
-645222
-645026
-644823
-644806
-644836
-644999
-645175
-645399
