PPG
-679631
-679586
-679695
-679689
-679704
-679678
-679610
-679577
-679629
-679639
-679636
-679645
-679563
-679505
-679429
-679391
-679423
-679443
-679318
-679329
-679294
-679367
-679360
-679304
-679353
-679211
-679242
-679236
-679256
-679344
-679283
-679251
-679411
-679290
-679331
-679403
-679498
-679440
-679497
-679659
-679633
-679744
-679792
-679858
-679875
-679901
-679926
-680057
-680119
-680154
-680234
-680345
-680411
-680515
-680713
-680786
-680779
-680816
-680988
-681108
-681114
-681280
-681361
-681552
-681622
-681754
-681805
-681943
-682037
-682148
-682162
-682299
-682434
-682520
-682672
-682689
-682842
-682958
-683083
-683208
-683286
-683424
-683501
-683711
-683790
-683841
-684003
-684070
-684238
-684251
-684313
-684484
-684562
-684727
-684852
-684972
-685100
-685281
-685361
-685464
-685434
-685568
-685687
-685779
-685948
-685901
-686031
-686149
-686296
-686501
-686460
-686616
-686754
-686808
-686978
-687045
-687137
-687262
-687406
-687572
-687696
-687763
-687939
-688048
-688208
-688228
-688389
-688513
-688622
-688714
-688804
-688841
-689049
-689127
-689234
-689314
-689439
-689624
-689689
-689878
-689917
-690015
-690061
-690257
-690403
-690328
-690500
-690519
-690547
-690562
-690549
-690414
-690234
-690079
-689746
-689411
-689017
-688563
-688064
-687522
-686808
-686152
-685395
-684706
-683871
-683084
-682330
-681547
-680841
-680052
-679245
-678565
-677898
-677207
-676461
-675877
-675295
-674725
-674181
-673726
-673244
-672766
-672427
-672069
-671744
-671567
-671402
-671074
-670876
-670807
-670607
-670468
-670347
-670385
-670313
-670278
-670273
-670241
-670328
-670388
-670427
-670537
-670601
-670716
-670816
-670883
-671116
-671174
-671341
-671539
-671614
-671806
-672027
-672182
-672440
-672601
-672809
-672948
-673157
-673318
-673460
-673705
-673946
-674051
-674204
-674344
-674635
-674789
-675024
-675148
-675304
-675477
-675631
-675803
-676073
-676094
-676318
-676499
-676558
-676769
-676917
-677085
-677239
-677493
-677572
-677715
-677797
-677959
-678202
-678336
-678498
-678673
-678879
-679038
-679148
-679275
-679401
-679487
-679555
-679667
-679846
-679880
-679998
-679970
-680179
-680272
-680358
-680437
-680424
-680427
-680490
-680540
-680504
-680596
-680555
-680558
-680549
-680545
-680539
-680614
-680523
-680621
-680566
-680530
-680518
-680385
-680436
-680368
-680273
-680253
-680198
-680240
-680248
-680207
-680156
-680026
-680002
-679952
-679942
-680008
-679835
-679897
-679829
-679866
-679882
-679776
-679723
-679733
-679783
-679758
-679654
-679612
-679658
-679626
-679721
-679628
-679726
-679720
-679689
-679701
-679745
-679748
-679817
-679921
-679944
-679886
-679970
-679995
-679962
-680120
-680114
-680130
-680164
-680260
-680317
-680372
-680391
-680527
-680517
-680506
-680568
-680574
-680610
-680662
-680612
-680665
-680726
-680686
-680590
-680633
-680504
-680532
-680573
-680609
-680596
-680554
-680711
-680685
-680614
-680618
-680521
-680578
-680571
-680646
-680698
-680645
-680764
-680747
-680841
-680788
-680822
-680872
-680938
-681009
-681071
-681039
-681220
-681381
-681423
-681496
-681580
-681639
-681835
-681818
-681925
-682033
-682109
-682163
-682261
-682334
-682357
-682515
-682563
-682660
-682776
-682801
-682873
-682962
-683063
-683179
-683210
-683375
-683503
-683508
-683685
-683674
-683790
-683883
-683910
-683922
-684023
-684054
-684118
-684147
-684078
-684050
-683977
-683857
-683720
-683565
-683252
-682885
-682534
-682022
-681496
-680940
-680276
-679757
-679241
-678436
-677808
-677179
-676588
-675789
-675086
-674459
-673779
-673264
-672656
-672006
-671403
-670890
-670328
-669841
-669425
-668935
-668651
-668284
-668065
-667794
-667354
-667255
-666993
-666739
-666743
-666600
-666471
-666381
-666399
-666317
-666307
-666331
-666355
-666330
-666428
-666497
-666612
-666666
-666812
-666961
-666946
-667124
-667215
-667361
-667582
-667635
-667723
-667939
-668151
-668273
-668445
-668669
-668818
-668916
-669096
-669335
-669452
-669674
-669890
-670006
-670121
-670337
-670564
-670706
-670876
-670971
-671109
-671326
-671506
-671688
-672848
-672948
-673164
-673330
-673443
-673646
-673739
-673937
-674096
-674271
-674436
-674565
-674746
-674794
-674981
-675012
-675240
-675285
-675272
-675427
-675540
-675610
-675650
-675684
-675775
-675777
-675837
-675856
-675911
-675873
-675666
-675767
-675803
-675754
-675747
-675668
-675675
-675662
-675595
-675472
-675654
-675525
-675502
-675450
-675320
-675212
-675261
-675291
-675326
-675140
-675182
-675134
-675087
-675097
-675141
-675031
-675064
-675078
-675074
-675050
-675078
-675154
-675069
-675125
-675051
-675117
-675223
-675227
-675385
-675288
-675419
-675475
-675573
-675525
-675608
-675584
-675692
-675694
-675745
-675817
-675922
-675950
-676025
-676164
-676229
-676244
-676400
-676469
-676626
-676655
-676756
-676787
-676864
-676910
-677043
-677127
-677297
-677352
-677530
-677520
-677678
-677838
-677954
-678009
-678092
-678285
-678870
-678570
-678645
-678603
-678738
-678810
-678916
-679089
-679192
-679297
-679424
-679569
-679609
-679736
-679915
-679946
-680089
-680035
-680226
-680296
-680504
-680642
-680746
-680759
-680768
-680964
-681036
-681049
-681255
-681342
-681508
-681534
-681632
-681743
-681807
-681926
-682023
-682085
-682138
-682230
-682491
-682559
-682611
-682764
-682819
-682904
-682986
-683009
-682889
-683074
-683254
-683358
-683477
-683513
-683639
-683738
-683729
-683823
-683971
-683987
-684083
-684178
-684167
-684194
-684231
-684359
-684266
-684251
-684107
-683896
-683628
-683358
-682919
-682400
-681862
-681279
-680702
-680009
-679340
-678559
-677808
-677068
-676215
-675448
-674638
-673801
-672971
-672228
-671440
-670729
-670025
-669363
-668532
-667930
-667361
-666785
-666287
-665734
-665541
-664850
-664489
-664091
-663749
-663410
-663140
-662930
-662708
-662497
-662274
-662193
-662057
-662002
-661872
-661749
-661702
-661698
-661650
-661723
-661727
-661848
-661805
-661951
-661939
-662000
-662124
-662355
-662447
-662453
-662577
-662727
-662855
-663029
-663271
-663352
-663552
-663634
-663838
-663980
-664141
-664181
-664389
-664505
-664641
-664578
-664870
-664993
-665201
-665281
-665416
-665547
-665713
-665772
-665896
-665961
-666096
-666239
-666372
-666441
-666560
-666652
-666830
-667035
-667135
-667328
-667504
-667604
-667724
-667763
-667869
-668044
-668148
-668318
-668345
-668536
-668628
-668683
-668925
-668867
-668967
-669003
-669055
-669124
-669107
-669174
-669162
-669232
-669339
-669405
-669254
-669280
-669331
-669262
-669197
-669249
-669181
-669238
-669244
-669138
-669127
-669635
-669312
-669108
-668928
-668846
-668871
-668806
-668876
-668788
-668731
-668669
-668715
-668693
-669149
-668705
-668622
-668599
-668657
-668634
-668557
-668547
-668548
-668568
-668540
-668542
-668525
-668621
-668666
-668632
-668662
-668699
-668801
-668834
-668894
-668914
-668982
-669011
-669089
-669152
-669182
-669303
-669375
-669470
-669561
-669542
-669712
-669871
-669945
-670044
-670097
-670122
-670696
-670529
-670513
-670577
-670625
-670753
-670837
-670952
-671082
-671256
-671380
-671867
-671606
-671509
-671659
-671809
-671950
-672019
-671982
-672081
-672266
-672297
-672444
-672505
-672603
-672747
-672697
-672889
-672951
-672899
-673031
-673239
-673279
-673349
-673461
-673578
-673693
-673838
-673878
-674063
-674088
-674301
-674304
-674430
-674438
-674648
-674734
-674892
-674913
-675135
-675246
-675375
-675407
-675634
-675684
-675790
-675980
-676071
-676169
-676222
-676432
-676515
-676634
-676752
-676907
-677070
-677072
-677197
-677272
-677423
-677565
-677625
-677690
-677838
-677907
-677970
-678194
-678170
-678239
-678223
-678206
-677968
-677761
-677613
-677251
-676805
-676349
-675773
-675303
-674688
-674068
-673417
-672594
-671799
-671052
-670313
-669403
-668612
-667767
-666922
-666172
-665335
-664525
-663867
-663127
-662459
-661828
-661133
-660549
-660036
-659518
-659080
-658535
-658208
-657752
-657392
-657055
-656877
-656614
-656378
-656269
-656093
-655909
-655771
-655617
-655623
-655499
-655425
-655436
-655475
-656182
-655817
-655604
-656053
-655930
-655939
-656074
-656083
-656136
-656340
-656500
-656594
-656738
-656923
-657141
-657295
-657472
-657547
-657732
-657942
-658186
-658342
-658495
-658686
-658819
-659074
-659198
-659314
-659437
-659620
-659710
-659912
-660083
-660271
-660380
-660533
-660733
-660765
-660905
-661011
-661160
-661300
-661496
-661711
-661839
-661970
-662135
-662269
-662548
-662743
-662779
-662977
-663090
-663341
-663399
-663572
-663744
-663817
-663951
-664108
-664205
-664336
-664375
-664869
-664649
-664587
-664706
-664752
-664824
-664887
-664951
-665024
-664956
-664991
-665111
-665053
-665088
-665071
-665022
-665012
-665082
-665036
-665034
-664974
-664894
-664900
-664926
-664914
-664931
-664820
-664894
-664817
-664756
-664764
-664769
-664693
-664679
-664586
-664654
-664555
-664622
-664666
-664605
-664987
-664703
-664620
-664714
-664708
-664830
-664760
-664812
-664803
-664842
-664978
-664765
-665010
-665028
-665000
-665083
-665154
-665286
-665422
-665393
-665546
-665663
-665696
-665787
-665874
-666000
-665998
-666049
-666246
-666243
-666369
-666489
-666436
-666642
-666707
-666978
-666973
-667065
-667183
-667248
-667321
-667506
-667595
-667658
-667691
-667854
-667952
-668028
-668099
-668198
-668262
-668410
-668437
-668550
-668536
-668679
-668777
-668847
-668868
-668943
-669174
-669210
-669262
-669436
-669522
-669679
-669735
-669817
-669959
-670079
-670151
-670201
-670309
-670396
-670494
-670649
-670773
-670887
-670924
-670955
-671053
-671114
-671196
-671221
-671671
-671523
-671455
-671479
-671491
-671554
-671549
-671496
-671588
-671796
-671625
-671427
-671519
-671590
-671545
-671505
-671499
-671422
-671399
-671401
-671304
-671213
-671126
-671087
-671068
-670839
-670637
-670279
-670155
-669904
-669374
-668952
-668386
-667851
-667164
-666470
-665734
-665020
-664179
-663170
-662390
-661596
-660766
-659985
-659166
-658250
-657408
-656741
-655967
-655242
-654607
-654025
-653471
-652911
-652369
-651849
-651294
-650949
-650543
-650206
-649867
-649574
-649385
-649138
-648876
-648641
-648473
-648412
-648325
-648362
-648333
-648276
-648301
-648346
-648380
-648390
-648446
-648542
-648390
-648642
-648773
-648929
-649021
-649229
-649478
-649394
-649669
-649747
-649936
-650159
-650175
-650306
-650543
-650681
-650763
-650820
-650982
-651070
-651221
-651366
-651493
-651622
-651787
-651897
-652034
-652066
-652210
-652313
-652504
-652544
-652477
-652736
-652921
-653057
-653189
-653304
-653482
-653620
-653929
-653975
-654099
-654244
-654444
-654984
-654983
-655018
-655255
-655401
-655594
-655672
-655841
-656107
-656247
-656415
-656689
-656723
-656884
-656948
-657108
-657290
-657410
-657537
-658009
-657815
-657920
-657827
-657904
-657955
-658057
-658056
-658046
-658085
-658089
-658119
-658084
-658138
-658168
-658170
-658089
-658098
-657999
-657991
-657865
-657927
-657918
-657766
-657831
-657776
-657804
-657721
-657687
-657640
-657722
-657614
-657642
-657650
-657733
-657597
-657631
-657734
-657765
-657728
-657838
-657837
-657961
-657965
-658112
-658118
-658277
-658251
-658263
-658360
-658544
-658612
-658771
-658800
-658914
-659100
-659129
-659346
-659441
-659592
-659726
-659886
-659966
-660051
-660155
-660391
-660431
-660548
-660720
-660784
-661338
-661253
-661296
-661427
-661528
-661633
-661791
-662017
-661976
-662151
-662354
-662612
-662788
-662868
-663138
-663282
-663452
-663595
-663721
-663878
-664076
-664170
-664462
-664559
-664803
-664929
-665108
-665273
-665330
-665539
-665718
-665911
-666156
-666097
-666349
-666569
-666618
-666824
-666878
-667128
-667218
-667309
-667436
-667564
-667697
-667738
-667955
-668062
-668152
-668055
-668329
-668391
-668546
-668605
-668758
-668906
-668952
-669051
-669168
-669176
-669316
-669357
-669398
-669367
-669519
-669465
-669626
-669708
-669666
-669743
-669805
-669918
-669886
-669930
-669834
-669891
-669900
-669830
-669884
-669909
-669808
-669718
-669496
-669425
-669171
-668936
-668551
-668100
-667670
-667156
-666638
-665980
-665318
-664621
-663889
-663180
-662443
-661617
-660927
-660242
-659526
-658763
-657956
-657261
-656565
-655927
-655307
-654676
-654080
-653550
-653038
-652599
-652078
-651696
-651285
-650881
-650635
-650308
-650128
-649836
-649815
-649542
-649402
-649277
-649113
-649110
-649105
-648993
-649011
-649016
-649102
-649161
-649144
-649256
-649265
-649382
-649524
-649560
-649666
-649887
-649946
-650095
-650151
-650365
-650529
-650684
-650797
-650891
-651111
-651167
-651270
-651434
-651431
-651515
-651668
-651744
-651799
-651800
-651901
-651934
-651978
-651928
-652014
-651964
-651983
-651988
-652047
-652019
-652010
-652012
-652055
-652018
-651969
-651933
-651877
-651907
-651867
-651911
-651936
-651944
-652003
-651999
-651941
-652040
-652169
-652171
-652238
-652225
-652312
-652357
-652450
-652453
-652569
-652563
-652628
-652747
-652769
-653113
-653308
-652985
-653041
-653038
-653187
-653200
-653199
-653318
-653401
-653465
-653529
-653601
-654096
-653838
-653722
-653943
-653979
-654115
-654202
-654371
-654502
-654578
-654610
-654609
-654768
-654920
-654987
-655143
-655146
-655306
-655383
-655444
-655507
-655565
-655664
-655743
-655856
-656027
-656106
-656148
-656299
-656367
-656483
-656588
-656764
-656839
-656951
-656971
-657016
-657164
-657389
-657401
-657460
-657624
-657677
-657791
-657768
-657918
-657978
-658079
-657957
-658204
-658173
-658334
-658309
-658396
-658464
-658507
-658523
-658630
-658968
-658766
-658846
-659000
-658996
-659058
-659110
-659171
-659156
-659134
-659270
-659388
-659407
-659607
-659734
-659726
-659847
-659911
-660135
-660221
-660413
-660503
-660612
-660737
-660997
-661106
-661296
-661458
-661528
-661675
-661863
-661925
-662153
-662268
-662511
-662686
-662846
-662988
-662949
-663152
-663345
-663540
-663628
-663793
-663973
-664082
-664114
-664244
-664554
-664717
-664921
-665011
-665188
-665374
-665514
-665746
-665861
-666049
-666086
-666200
-666488
-666522
-666612
-666809
-666977
-667053
-667259
-667368
-667482
-667675
-667817
-667874
-668016
-668153
-668296
-668353
-668537
-668539
-668605
-668752
-668742
-668865
-668867
-668771
-668758
-668611
-668468
-667958
-667783
-667477
-666969
-666559
-665918
-665281
-664521
-663858
-663108
-662419
-661647
-660800
-660060
-659339
-658483
-657784
-657029
-656287
-655614
-654858
-654113
-653618
-653030
-652490
-651950
-651549
-651042
-650598
-650125
-649717
-649417
-649127
-648944
-648865
-648581
-648473
-648406
-648299
-647940
-647929
-647944
-648063
-648079
-648022
-648126
-648215
-648222
-648377
-648483
-648637
-648775
-648886
-649080
-649275
-649491
-649626
-649819
-650026
-650279
-650569
-650724
-650977
-651226
-651502
-651710
-651931
-652163
-652335
-652667
-652872
-653082
-653243
-653432
-653611
-653769
-653998
-654276
-654426
-654541
-654650
-654862
-654967
-655074
-655173
-655322
-655442
-655521
-655678
-655759
-655968
-656110
-656204
-656345
-656568
-656588
-656705
-656927
-657096
-657185
-657227
-657392
-657483
-657523
-657646
-657827
-657888
-658109
-658186
-658172
-658232
-658288
-658126
-658204
-658340
-658496
-658467
-658381
-658356
-658408
-658330
-658408
-658212
-658230
-658175
-658030
-657909
-657908
-657901
-657818
-657715
-657695
-657591
-657545
-657492
-657496
-657473
-657528
-657518
-657472
-657405
-657375
-657296
-657184
-657078
-656945
-656954
-657022
-657086
-657100
-657204
-657201
-657344
-657478
-657636
-657749
-657838
-658035
-658199
-658340
-658384
-658524
-658777
-658966
-659079
-659040
-659275
-659484
-659590
-659772
-659823
-659963
-660150
-660223
-660333
-660490
-660638
-660680
-660864
-661036
-660987
-661101
-661147
-661195
-661384
-661459
-661506
-661572
-661602
-661694
-661674
-661604
-661739
-661806
-661779
-661841
-661794
-662026
-662105
-662175
-662260
-662366
-662508
-662759
-662901
-663059
-663180
-663342
-663613
-663732
-663910
-664046
-664247
-664119
-664337
-664577
-664756
-664823
-664852
-665032
-665084
-665188
-665456
-665486
-665669
-665757
-665834
-666074
-666192
-666266
-666294
-666605
-666687
-666879
-666997
-667104
-667115
-667085
-667096
-667151
-667216
-667102
-667112
-667027
-667140
-667093
-667039
-666871
-666840
-666800
-666661
-666622
-666560
-666510
-666461
-666432
-666393
-666427
-666451
-666440
-666473
-666348
-666341
-666274
-666181
-666096
-665919
-665750
-665522
-665331
-664960
-664678
-664298
-663936
-663540
-662988
-662412
-661790
-661284
-660836
-660203
-659627
-659138
-658536
-657938
-657496
-656861
-656498
-656047
-655633
-655183
-654797
-654432
-654114
-653822
-653631
-653296
-653079
-652851
-652694
-652461
-652392
-652330
-652268
-652211
-652037
-652063
-652036
-651995
-652108
-652193
-652215
-652271
-652261
-652480
-652556
-652546
-652689
-652865
-653006
-653139
-653215
-653435
-653675
-653838
-654063
-654229
-654498
-654509
-654754
-654931
-655066
-655268
-655418
-655510
-655538
-655641
-655876
-656003
-656065
-656167
-656217
-656287
-656326
-656558
-656674
-656695
-656800
-656779
-656895
-656856
-656879
-657116
-657091
-657285
-657326
-657443
-657534
-657711
-657757
-657880
-657983
-658092
-658257
-658439
-658541
-658701
-658813
-659046
-659205
-659304
-659523
-659701
-659893
-660116
-660219
-660432
-660762
-660948
-661054
-661282
-661453
-661712
-661910
-662021
-662198
-662403
-662658
-662805
-663016
-663137
-663324
-663486
-663670
-663804
-663950
-664052
-664349
-664396
-664520
-664631
-664750
-665357
-665208
-665226
-665247
-665469
-665597
-665697
-665849
-665809
-666032
-666131
-666285
-666421
-666483
-666632
-666764
-666957
-666927
-667162
-667234
-667341
-667537
-667662
-667741
-667872
-668042
-668182
-668244
-668323
-668341
-668533
-668637
-668792
-668892
-669013
-669089
-669168
-669316
-669321
-669449
-669544
-669734
-669929
-669988
-670166
-670301
-670376
-670477
-670531
-670522
-670815
-670963
-671131
-671174
-671276
-671475
-671694
-671803
-671973
-671976
-672218
-672342
-672458
-672710
-672803
-672844
-673067
-673208
-673359
-673538
-673770
-673812
-673913
-674080
-674235
-674518
-674631
-674911
-675005
-675105
-675386
-675553
-675741
-675918
-676111
-676242
-676449
-676567
-676735
-677228
-677183
-677361
-677601
-678140
-677928
-678132
-678286
-678542
-678573
-678727
-679005
-679083
-679428
-679349
-679623
-679848
-680032
-680185
-680354
-680611
-680761
-680989
-681140
-681229
-681436
-681710
-681844
-682028
-682212
-682354
-682559
-682628
-682780
-682984
-683128
-683272
-683367
-683565
-683680
-683756
-683914
-684053
-684252
-684357
-684347
-684577
-684679
-684769
-684797
-684752
-684804
-684709
-684584
-684434
-684263
-684073
-683756
-683333
-682971
-682457
-681988
-681481
-681005
-680365
-679764
-679320
-678741
-678187
-677570
-677009
-676446
-675969
-675518
-675071
-674516
-674067
-673730
-673423
-673048
-672797
-672523
-672403
-672191
-671922
-671799
-671619
-671550
-671486
-671410
-671333
-671370
-671278
-671356
-671280
-671283
-671255
-671364
-671317
-671448
-671530
-671513
-671576
-671616
-671808
-671809
-672020
-672070
-672206
-672255
-672387
-672504
-672639
-672799
-672818
-672847
-672940
-673049
-673188
-673331
-673351
-673475
-673616
-673681
-673847
-673889
-673985
-674107
-674248
-674307
-674397
-674622
-674761
-674871
-674962
-675092
-675207
-675330
-675457
-675590
-675671
-675848
-676020
-676284
-676452
-676516
-676703
-676755
-676950
-677116
-677297
-677535
-677644
-677879
-678006
-678069
-678331
-678553
-678643
-678729
-678876
-679031
-679169
-679314
-679419
-679472
-679650
-679690
-679858
-680019
-680005
-680123
-680224
-680330
-680378
-680318
-680409
-680461
-680509
-680633
-680615
-680632
-680699
-680659
-680657
-680678
-680766
-680729
-680739
-680815
-680831
-680919
-680955
-680984
-680743
-680917
-680965
-681069
-681076
-681081
-681115
-681089
-681227
-681197
-681266
-681281
-681249
-681294
-681347
-681411
-681367
-681425
-681505
-681493
-681580
-681613
-681755
-681793
-681979
-681910
-682070
-682166
-682279
-682348
-682451
-682629
-682671
-682824
-682968
-683087
-683227
-683329
-683431
-683646
-683712
-683893
-683895
-684479
-684319
-684355
-684431
-684569
-684720
-684775
-684800
-684995
-685047
-685276
-685252
-685361
-685417
-685517
-685636
-685711
-685728
-685813
-685796
-685883
-685953
-685905
-685939
-685920
-686069
-686136
-686155
-686241
-686200
-686255
-686305
-686259
-686304
-686413
-686965
-686752
-686612
-686739
-686837
-686895
-687063
-687160
-687373
-687579
-687633
-687695
-687884
-688073
-688223
-688375
-688562
-688638
-688870
-689093
-689155
-689300
-689452
-689656
-689794
-689977
-690067
-690237
-690429
-690513
-690660
-690843
-690905
-690809
-691036
-691113
-691250
-691261
-691220
-691181
-691117
-691046
-691505
-690948
-690666
-690388
-690189
-689824
-689367
-688989
-688537
-688185
-687645
-687199
-686765
-686159
-685705
-685202
-684672
-684133
-683636
-683231
-682731
-682310
-681983
-681531
-681108
-680801
-680542
-680129
-679822
-679733
-679403
-679355
-679166
-679036
-678844
-678838
-678763
-678718
-678695
-678620
-678714
-678725
-678710
-678665
-678710
-678680
-678895
-678966
-679025
-679116
-679206
-679434
-679658
-679849
-679940
-679999
-680279
-680378
-680512
-680712
-680742
-680934
-681124
-681210
-681278
-681342
-681537
-681612
-681854
-681944
-682008
-682132
-682121
-682223
-682329
-682397
-682472
-682651
-682566
-682826
-682744
-683014
-683155
-683194
-683332
-683443
-683519
-683696
-683868
-683996
-684122
-684326
-684424
-684560
-684780
-684903
-685220
-685478
-685766
-685997
-686171
-686500
-686753
-686971
-687270
-687421
-687660
-687916
-688221
-688435
-688554
-688762
-688938
-689132
-689344
-689436
-689425
-689634
-689813
-689918
-689922
-689923
-690030
-690027
-690075
-690089
-690097
-690104
-690127
-690085
-690022
-690039
-690045
-689962
-689786
-689923
-690020
-689891
-689828
-690067
-689745
-689721
-689617
-689661
-689582
-689554
-689567
-689508
-689456
-689483
-689353
-689399
-689433
-689482
-689607
-689541
-689568
-689685
-689803
-689907
-689850
-689946
-690034
-690174
-690370
-690382
-690475
-690668
-690892
-691044
-691197
-691377
-691557
-691722
-691888
-692107
-692338
-692498
-692809
-693040
-693121
-693226
-693388
-693545
-693718
-693770
-694034
-694119
-694303
-694453
-694558
-694668
-694808
-694959
-695078
-695208
-695409
-695423
-695550
-695830
-695846
-696015
-696117
-696288
-696426
-696506
-696623
-696723
-696874
-696844
-696757
-696910
-697030
-697027
-697115
-697089
-697182
-697250
-697237
-697257
-697279
-697272
-697233
-697313
-697321
-697325
-697345
-697341
-697444
-697461
-697499
-697539
-697613
-697731
-697761
-697775
-697910
-697981
-698054
-698149
-697997
-698660
-698535
-698620
-698765
-698860
-699027
-699090
-699351
-699532
-699664
-699890
-699951
-700157
-700437
-700591
-700776
-701034
-701313
-701490
-701707
-701921
-702158
-702333
-702635
-702733
-702925
-702997
-702931
-702897
-702766
-702695
-702590
-702306
-701862
-701434
-701107
-700707
-700286
-699672
-699104
-698617
-698185
-697547
-697076
-696379
-695822
-695245
-694809
-694407
-694282
-693663
-693303
-692848
-692504
-692102
-691820
-691603
-691501
-691230
-691043
-691036
-690853
-690727
-690807
-690704
-690642
-690719
-690651
-691204
-690878
-690846
-690875
-690968
-691122
-691240
-691375
-691487
-691628
-691747
-691904
-692214
-692333
-692458
-692674
-692769
-692861
-692994
-693158
-693374
-693445
-693644
-693961
-694147
-694275
-694445
-694675
-694827
-695053
-695177
-695383
-695457
-695566
-695812
-695997
-696095
-696389
-696446
-696623
-696706
-696796
-696988
-697085
-697173
-697468
-697447
-697624
-697638
-697788
-697958
-698003
-698076
-698235
-698304
-698423
-698475
-698578
-698796
-698905
-699033
-699030
-699202
-699279
-699411
-699298
-699481
-699696
-699690
-699857
-699917
-700017
-700149
-700160
-700200
-700340
-700290
-700460
-700521
-700600
-700634
-700543
-700714
-700774
-700865
-700857
-700865
-700920
-700996
-701050
-701087
-700972
-700963
-700990
-701617
-701274
-701207
-701206
-701172
-701132
-701187
-701219
-701253
-701207
-701226
-701179
-701220
-701158
-701185
-701200
-701215
-701178
-701280
-701201
-701314
-701365
-701291
-701298
-701357
-701618
-701480
-701425
-701450
-701577
-701590
-701676
-701712
-701780
-701760
-701890
-701960
-701971
-702050
-702136
-702207
-702288
-702349
-702361
-702432
-702481
-702641
-702723
-702792
-702928
-703003
-703032
-703095
-703251
-703257
-703367
-703463
-703576
-703710
-703777
-703888
-703986
-704020
-704147
-704327
-704459
-704468
-704562
-704717
-704911
-705026
-705127
-705105
-705315
-705425
-705418
-705542
-705575
-705807
-705860
-706023
-706141
-706161
-706223
-706355
-706390
-706554
-706592
-706771
-706798
-706934
-706937
-707003
-707098
-707193
-707292
-707403
-707389
-707490
-707605
-707686
-707814
-707820
-707923
-707979
-707827
-708153
-708184
-708359
-708426
-708543
-708517
-708684
-708865
-708851
-709066
-709146
-709267
-709302
-709497
-709532
-709596
-709763
-709979
-710121
-710135
-710369
-710382
-710529
-710613
-710690
-710667
-710616
-710626
-710485
-710270
-710116
-709807
-709467
-709119
-708656
-708190
-707720
-707279
-706797
-706279
-705655
-705073
-704591
-703905
-703669
-703084
-702510
-702159
-701746
-701280
-700969
-700476
-700146
-699845
-699522
-699352
-699178
-699001
-698762
-698638
-698615
-698501
-698468
-698471
-698447
-698378
-698202
-698318
-698498
-698630
-698666
-698782
-698907
-699021
-699228
-699303
-699402
-699515
-699751
-699950
-700122
-700208
-700422
-700681
-700800
-700963
-701157
-701323
-701495
-701827
-702048
-702153
-702381
-702527
-702579
-702943
-703135
-703393
-703369
-703699
-703893
-704049
-704216
-704426
-704521
-704750
-704756
-705036
-705824
-705477
-705518
-705611
-705811
-706061
-706172
-706319
-706412
-706502
-706692
-706899
-707055
-707178
-707281
-707483
-707618
-707748
-707872
-708002
-708270
-708316
-709071
-708831
-708876
-709044
-709141
-709206
-709247
-709411
-709479
-709521
-709492
-709504
-709625
-709674
-709767
-709829
-709778
-709712
-709765
-709801
-709789
-709900
-709915
-709818
-709858
-709845
-709878
-709869
-709861
-709854
-709822
-709861
-709817
-709802
-709823
-709824
-709880
-709801
-709753
-709861
-709865
-709886
-709811
-709813
-709853
-709940
-710004
-709993
-710067
-710097
-710146
-710136
-710211
-710272
-710409
-710438
-710521
-710584
-710664
-710813
-710936
-711021
-711107
-711202
-711240
-711327
-711430
-711529
-711623
-711705
-711836
-712038
-712154
-712248
-712365
-712406
-712551
-712668
-712888
-712961
-713045
-713255
-713325
-713477
-713547
-713716
-713878
-714055
-714240
-714348
-714454
-714607
-714789
-714919
-715067
-715201
-715281
-715494
-715683
-715767
-715875
-715986
-716144
-716335
-716507
-716610
-716695
-716812
-717049
-717040
-717237
-717308
-717532
-717574
-717736
-717819
-717882
-717986
-718184
-718280
-718276
-718400
-718566
-718626
-718768
-718717
-718987
-719069
-719254
-719337
-719401
-719445
-719373
-719708
-719836
-719909
-720047
-720093
-720189
-720305
-720387
-720543
-720620
-720688
-720771
-720816
-721062
-721155
-721231
-721306
-721380
-721446
-721501
-721570
-721645
-721664
-721761
-721952
-721970
-721939
-722000
-721925
-722319
-721850
-721655
-721342
-721002
-720538
-720238
-719816
-719333
-718763
-718302
-717739
-717164
-716579
-715947
-715324
-714777
-714169
-713597
-713004
-712556
-712052
-711592
-711176
-710716
-710365
-710064
-709758
-709528
-709155
-709015
-708814
-708642
-708529
-708385
-708328
-708281
-708184
-708253
-708332
-708344
-708467
-708463
-708447
-708526
-708743
-708909
-708999
-709097
-709234
-709514
-709644
-709888
-709940
-710192
-710399
-710649
-710879
-710997
-711256
-711397
-711618
-711865
-712059
-712250
-712446
-712669
-713008
-713068
-713276
-713863
-713813
-713866
-713999
-714146
-714402
-714468
-714637
-714590
-714853
-715064
-715225
-715321
-715445
-715615
-715799
-715807
-715982
-716006
-716158
-716335
-716418
-716634
-716617
-716807
-716884
-717049
-717273
-717311
-717581
-717577
-717672
-717859
-717963
-717979
-718180
-718351
-718433
-718496
-718639
-718703
-718795
-718990
-718834
-719092
-719184
-719337
-719347
-719408
-719463
-719572
-719720
-719732
-719725
-719754
-719866
-719924
-719845
-719866
-719892
-719947
-720082
-720116
-720171
-720243
-720165
-720182
-720116
-720056
-720217
-720202
-720182
-720268
-720226
-720256
-720236
-720196
-720266
-720210
-720895
-720415
-720369
-720432
-720389
-720369
-720234
-720367
-720474
-720540
-720474
-720561
-720639
-720596
-720658
-720601
-720769
-720722
-720682
-720703
-720783
-720782
-720857
-720801
-720861
-720902
-720958
-721003
-721122
-721205
-721244
-721278
-721223
-721389
-721439
-721557
-721596
-721697
-721768
-721777
-721937
-721991
-722070
-722302
-722256
-722383
-723074
-722695
-722396
-722546
-722696
-722735
-722864
-723020
-723089
-723129
-723250
-723382
-723553
-723526
-723613
-723800
-723846
-723975
-724134
-724094
-724230
-724391
-724612
-724632
-724771
-724838
-724978
-725109
-725228
-725282
-725324
-725591
-725646
-725652
-725913
-725966
-726069
-726086
-726134
-726409
-726567
-726684
-726709
-727317
-727055
-727130
-727159
-727292
-727392
-727416
-727541
-727735
-727820
-727843
-727881
-728139
-728223
-728346
-728396
-728412
-728557
-728554
-728770
-728829
-728875
-728981
-729010
-729071
-728922
-729064
-729198
-729314
-729223
-729154
-729005
-728858
-728575
-728272
-727876
-727487
-726977
-726468
-725944
-725396
-724746
-724085
-723657
-723114
-722421
-721836
-721243
-720780
-720272
-719782
-719262
-718913
-718436
-718182
-717759
-717483
-717214
-717038
-716795
-716655
-716388
-716343
-716183
-716108
-716042
-715943
-715925
-715965
-716031
-716049
-716107
-716217
-716242
-716167
-716327
-716519
-716599
-716835
-716937
-716941
-717131
-717351
-717457
-717607
-717768
-717966
-718098
-718305
-718492
-718373
-718737
-719025
-719161
-719238
-719465
-719525
-719724
-719947
-720050
-720281
-720362
-720490
-720661
-720854
-720977
-721024
-721260
-721387
-721585
-721654
-721689
-721897
-722058
-722105
-722240
-722363
-722455
-722702
-722845
-722955
-723021
-723262
-723420
-723554
-723659
-723777
-723923
-724149
-724296
-724433
-724526
-724492
-724696
-724924
-725098
-725157
-725345
-725519
-725724
-725747
-725779
-725896
-726086
-726215
-726258
-726350
-726358
-726514
-726596
-726646
-726621
-726695
-726794
-726884
-726840
-726868
-726843
-726893
-726925
-726882
-727001
-727147
-727137
-727008
-726926
-727081
-727084
-727122
-727075
-727105
-727047
-727144
-727095
-727110
-726988
-726983
-726982
-727014
-727140
-727122
-726978
-727061
-727087
-727073
-727090
-727088
-727150
-727224
-727281
-727284
-727268
-727359
-727423
-727486
-727585
-727644
-727742
-727825
-727923
-727896
-727916
-728137
-728193
-728344
-728356
-728370
-728578
-728531
-728796
-728856
-728903
-729099
-729155
-729358
-729473
-729508
-729596
-729732
-729702
-729733
-729947
-730221
-730264
-730470
-730501
-730599
-730724
-730790
-730889
-730972
-731109
-731235
-731360
-731504
-731547
-731710
-731745
-731837
-732037
-732019
-732158
-732227
-732255
-732487
-732480
-732516
-732702
-732773
-732891
-732919
-732924
-733212
-733302
-733411
-733565
-733522
-733694
-733766
-733839
-733898
-734063
-734212
-734352
-734338
-734448
-734606
-734680
-734712
-734904
-734927
-734968
-735176
-735243
-735372
-735454
-735552
-735671
-735753
-735884
-735943
-735991
-736182
-736287
-736373
-736173
-736446
-736549
-736666
-736822
-736837
-736788
-736970
-736981
-737149
-737256
-737216
-737376
-737454
-737563
-737521
-737441
-737448
-737496
-737443
-737205
-736922
-736594
-736346
-735856
-735318
-734724
-734179
-733407
-732725
-732049
-731216
-730500
-729818
-729063
-728258
-727565
-726870
-726096
-725487
-724773
-724109
-723630
-723008
-722543
-722002
-721454
-721184
-720799
-720467
-720005
-719798
-719533
-719340
-719058
-718911
-718699
-718600
-718487
-718448
-718333
-718328
-718316
-718387
-718461
-719138
-718738
-718730
-718723
-718847
-718925
-718967
-719297
-719441
-719502
-719587
-719859
-719973
-720131
-720287
-720407
-720674
-720907
-721029
-721099
-721342
-721454
-721671
-721921
-721962
-721876
-722225
-722518
-722654
-722873
-722936
-723001
-723209
-723221
-723439
-723538
-723581
-723649
-723664
-723923
-723947
-723971
-724137
-724188
-724264
-724330
-724363
-724444
-724483
-724554
-724661
-724749
-724861
-724904
-725038
-725085
-725021
-725156
-725194
-725238
-725340
-725302
-725303
-725251
-725343
-725372
-725341
-725436
-725432
-725456
-725435
-726004
-725676
-725641
-725553
-725560
-725446
-725471
-725634
-725603
-725706
-725671
-725737
-725919
-725874
-725934
-726035
-726219
-726069
-726235
-726326
-726426
-726569
-726775
-726842
-726961
-726995
-727127
-727198
-727205
-727277
-727426
-727618
-727662
-727780
-727843
-727960
-728036
-728092
-728199
-728178
-728419
-728511
-728520
-728559
-728648
-728735
-728765
-728826
-728888
-728932
-728941
-729052
-729143
-729086
-729087
-729098
-729207
-729200
-729191
-729207
-729418
-729530
-729507
-729513
-729562
-729645
-729694
-729894
-729816
-730010
-730147
-730109
-730294
-730355
-730382
-730517
-730597
-730771
-730722
-730759
-730916
-730915
-730941
-731029
-731120
-731225
-731351
-731385
-731428
-731324
-731405
-731542
-731627
-731711
-731703
-731715
-731740
-731806
-731928
-731956
-732002
-732126
-732204
-732200
-732274
-732386
-732468
-732511
-732548
-732578
-732620
-732693
-732872
-733043
-732992
-733162
-733232
-733376
-733544
-733724
-733792
-733915
-734157
-734289
-734507
-734755
-735022
-735168
-735433
-735644
-735903
-736113
-736100
-736261
-736311
-736486
-736430
-736622
-736721
-736868
-736982
-737093
-737153
-737223
-737242
-737392
-737486
-737668
-737635
-737860
-737929
-737901
-738018
-738067
-738111
-738087
-738133
-738108
-738072
-737916
-737782
-737665
-737420
-737053
-736612
-736186
-735633
-735061
-734296
-733648
-732750
-732098
-731329
-730482
-729688
-728941
-728121
-727266
-726522
-725706
-725042
-724428
-723762
-723105
-722385
-721860
-721364
-720844
-720433
-720028
-719778
-719452
-719071
-718764
-718455
-718339
-718230
-718133
-717947
-717793
-717859
-717701
-717692
-717769
-717764
-717930
-717998
-718141
-718160
-718236
-718437
-718618
-718839
-718997
-719067
-719282
-719441
-719637
-719829
-720089
-720374
-720556
-720703
-720952
-721148
-721432
-721761
-721967
-722171
-722373
-722605
-722870
-723061
-723293
-723403
-723696
-723964
-724149
-724375
-724527
-724657
-724996
-725137
-725246
-725425
-725589
-725853
-725925
-726150
-726131
-726270
-726455
-726655
-726683
-726846
-726940
-727145
-727200
-727231
-727354
-727503
-727593
-727707
-727850
-727743
-727921
-727957
-728045
-728119
-728067
-728249
-728256
-728238
-728211
-728283
-728391
-728313
-728332
-728178
-728173
-728174
-728154
-728135
-728039
-727964
-727956
-727975
-727867
-727866
-727779
-727742
-727755
-727738
-727488
-727482
-727435
-727381
-727292
-727276
-727141
-727126
-727146
-727103
-727053
-726968
-726863
-726775
-726760
-726747
-726695
-726573
-726544
-726464
-726534
-726484
-726379
-726425
-726437
-726401
-726337
-726359
-726341
-726376
-726424
-726357
-726323
-726427
-726354
-726495
-726408
-726536
-726454
-726648
-726569
-726748
-726941
-727013
-727145
-727319
-727368
-727440
-727634
-727678
-727812
-728005
-728111
-728305
-728440
-728494
-728698
-728885
-729046
-728967
-729198
-729357
-729701
-729747
-729924
-730106
-730211
-730387
-730541
-730670
-731359
-731050
-730972
-731139
-731170
-731332
-731353
-731371
-731447
-731512
-731588
-731522
-731503
-731542
-731549
-731578
-731480
-731471
-731408
-731467
-731339
-731268
-731014
-731126
-731231
-731117
-731137
-731129
-731115
-731131
-731101
-731047
-731104
-731085
-731103
-731098
-731088
-731216
-731358
-731337
-731413
-731350
-731566
-731633
-731725
-731806
-731867
-732093
-732250
-732409
-732528
-732676
-732755
-732872
-733083
-733250
-733400
-733609
-733765
-734032
-734197
-734281
-734428
-734555
-734697
-734861
-735035
-735173
-735298
-735497
-735568
-735645
-735695
-735686
-735776
-735806
-735707
-735637
-735465
-735318
-735113
-734824
-734537
-734115
-733662
-733024
-732451
-731787
-731167
-730544
-729839
-729183
-728422
-727785
-726947
-726260
-725570
-724855
-724229
-723606
-722898
-722224
-721581
-721084
-720564
-720114
-719501
-719224
-718764
-718495
-718045
-717744
-717626
-717297
-717097
-716946
-716833
-716789
-716754
-716701
-716629
-716561
-716701
-716638
-716732
-716807
-716915
-717009
-717057
-716871
-717239
-717483
-717787
-717987
-718076
-718271
-718436
-718733
-718998
-719140
-719349
-719605
-719740
-719952
-720115
-720358
-720562
-720796
-720928
-721135
-721322
-721648
-721807
-721907
-721992
-722199
-722297
-722486
-722560
-722746
-722947
-723015
-723087
-723212
-723351
-723457
-723520
-723658
-723784
-723789
-723831
-723917
-724006
-724109
-724229
-724328
-724363
-724594
-724713
-724774
-724891
-724888
-725123
-725220
-725312
-725442
-725481
-725570
-725617
-725755
-725774
-725809
-725828
-725962
-726084
-726155
-726064
-726173
-726211
-726242
-726248
-726258
-726323
-726341
-726437
-726368
-726333
-726310
-726396
-726274
-726456
-726302
-726356
-726311
-726263
-726342
-726346
-726323
-726229
-726030
-726172
-726099
-726210
-726121
-726092
-726090
-726030
-726004
-726007
-726066
-725983
-726001
-725977
-725927
-725983
-725847
-725887
-725836
-725945
-725966
-726002
-726057
-726077
-726022
-726097
-726109
-726043
-726189
-726263
-726302
-726378
-726353
-726494
-726584
-726655
-726787
-726830
-726982
-727025
-727230
-727268
-727393
-727460
-727529
-727630
-727872
-727864
-728045
-728139
-728259
-728369
-728443
-728521
-728678
-728733
-728825
-728918
-729004
-729086
-729197
-729334
-729406
-729456
-729573
-729581
-729667
-729707
-729755
-729877
-729994
-730017
-729950
-730067
-730170
-730187
-730225
-730310
-730315
-730426
-730414
-730494
-730449
-730544
-730511
-730514
-730571
-730579
-730732
-730704
-730741
-730840
-730790
-730883
-731010
-730968
-731050
-731141
-731200
-731273
-731319
-731326
-731330
-731445
-731669
-731765
-731864
-731856
-731940
-732018
-732046
-732145
-732181
-732361
-732426
-732596
-732685
-732663
-732786
-732842
-732985
-733012
-732977
-733098
-733189
-733263
-733477
-733459
-733544
-733522
-733535
-733701
-733830
-733883
-734003
-733982
-734093
-734048
-734059
-734165
-734099
-734029
-733820
-733695
-733428
-733176
-732905
-732432
-732093
-731575
-731223
-730622
-729961
-729507
-728966
-728484
-727870
-727351
-726754
-726310
-725719
-725201
-724713
-724363
-723929
-723586
-723315
-722782
-722566
-722301
-722073
-721829
-721477
-721385
-721186
-721212
-721034
-720863
-720913
-720945
-720825
-720902
-720813
-720832
-720973
-720990
-721216
-721323
-721443
-721487
-721672
-721817
-721917
-722048
-722238
-722353
-722501
-722590
-722812
-722987
-723099
-723215
-723370
-723529
-723650
-723777
-723985
-723979
-724179
-724244
-724305
-724468
-724564
-724687
-724877
-724936
-725013
-725060
-725269
-725281
-725487
-725451
-725510
-725609
-725692
-725848
-725912
-725925
-726184
-726141
-726731
-726569
-726518
-726620
-726733
-726743
-726885
-726941
-727095
-727148
-727404
-727532
-727581
-727639
-727770
-727891
-727968
-728002
-728109
-728110
-728214
-728338
-728386
-728503
-728588
-728641
-728796
-728695
-728882
-728852
-728934
-729000
-729064
-729070
-729190
-729257
-729243
-729248
-729402
-729351
-729553
-729528
-729436
-729650
-729704
-729623
-729621
-729601
-729637
-729800
-729750
-729782
-729824
-729934
-729986
-729923
-730005
-730066
-730112
-730147
-730152
-730232
-730217
-730322
-730304
-730115
-730319
-730352
-730344
-730513
-730450
-730542
-730569
-730646
-730650
-730708
-730831
-730791
-730841
-730874
-730991
-731047
-731073
-731243
-731214
-731211
-731248
-731259
-731233
-731414
-731475
-731482
-731416
-731448
-731546
-731601
-731649
-731798
-731853
-731848
-731936
-731989
-731916
-732002
-731977
-731915
-731890
-731833
-731768
-731651
-731594
-731589
-731925
-731611
-731504
-731506
-731391
-731376
-731269
-731337
-731367
-731204
-731143
-731226
-731240
-731260
-731299
-731272
-731421
-731424
-731390
-731449
-731507
-731552
-731507
-731751
-731586
-731805
-731802
-731850
-731982
-732015
-731907
-732026
-732043
-732009
-732055
-732004
-732091
-732115
-731953
-732101
-732126
-732115
-732207
-732126
-732110
-732098
-732163
-732162
-732254
-732249
-732217
-732328
-732370
-732373
-732432
-732375
-732514
-732495
-732734
-732669
-732620
-732737
-732856
-732910
-732937
-732931
-732894
-733014
-733054
-732967
-732849
-732842
-732707
-732530
-732436
-732109
-731783
-731469
-731177
-730710
-730152
-729775
-729224
-728663
-728102
-727545
-726972
-726238
-725699
-725115
-724428
-723852
-723323
-722789
-722158
-721578
-721173
-720637
-720319
-719853
-719546
-719189
-718786
-718484
-718164
-717970
-717735
-717553
-717366
-717279
-716944
-716284
-716630
-716705
-716638
-716700
-716773
-716669
-716790
-716883
-716798
-716839
-716902
-716981
-717115
-717210
-717366
-717482
-717639
-717821
-717974
-718067
-718246
-718374
-718529
-718560
-718799
-718996
-719125
-719246
-719470
-719591
-719696
-719903
-720017
-720105
-720199
-720255
-720417
-720486
-720683
-720803
-720898
-720986
-721126
-721226
-721388
-721504
-721617
-721635
-721711
-721830
-722019
-722073
-722192
-722342
-722479
-722499
-722562
-722672
-722882
-723011
-722977
-722866
-723016
-723160
-723185
-723190
-723212
-723297
-723146
-723240
-723161
-723199
-723082
-723041
-722916
-722949
-722883
-722708
-722558
-722566
-722378
-722196
-722077
-722006
-721794
-721702
-721542
-721294
-721181
-721119
-721004
-720777
-720657
-720517
-720361
-720267
-720078
-719992
-719809
-719658
-719737
-719539
-719372
-719273
-719134
-719062
-718979
-718919
-718796
-718847
-718843
-718714
-718736
-718716
-718634
-718661
-718591
-718465
-718470
-718549
-718609
-718565
-718409
-718578
-718468
-718477
-718380
-718318
-718441
-718417
-718407
-718476
-718410
-718482
-718553
-718554
-718541
-718545
-718726
-718708
-718874
-718905
-718984
-719042
-719139
-719189
-719208
-719327
-719394
-719429
-719518
-719548
-719637
-719716
-719788
-719851
-719893
-719986
-720635
-720311
-720373
-720362
-720498
-720600
-720692
-720811
-721052
-720975
-721103
-721257
-721373
-721502
-721562
-721782
-721786
-721994
-722181
-722194
-722415
-722475
-722643
-722771
-722854
-723013
-723019
-723099
-723228
-723282
-723330
-723440
-723366
-723612
-723652
-723800
-723908
-724032
-724082
-724045
-724065
-724145
-724211
-724335
-724265
-724385
-724467
-724457
-724394
-724444
-724458
-724447
-724522
-724406
-724432
-724295
-724315
-724289
-724150
-724196
-724094
-724025
-723991
-723992
-723868
-723771
-723698
-723569
-723336
-723198
-723007
-722532
-722443
-722144
-721819
-721405
-720879
-720517
-719880
-719363
-718805
-718172
-717536
-717360
-716297
-715461
-714869
-714102
-713458
-712795
-712130
-711383
-711006
-710474
-709965
-709464
-708990
-708560
-708066
-707741
-707264
-706874
-706572
-706293
-706119
-705825
-705664
-705481
-705367
-705305
-705306
-705139
-705110
-705127
-705108
-705168
-705234
-705208
-705254
-705420
-705483
-705625
-705839
-705797
-705816
-706017
-706117
-706326
-706395
-706560
-706640
-706774
-706922
-706890
-707070
-707078
-707255
-707213
-707352
-707462
-707476
-707581
-707657
-707658
-707778
-707769
-707776
-707779
-707772
-707767
-707765
-707707
-707698
-707622
-707551
-707590
-707569
-707523
-707457
-707505
-707385
-707367
-707492
-707550
-707788
-707827
-708018
-708216
-708417
-708598
-708864
-709077
-709340
-709544
-709789
-709849
-710173
-710361
-710500
-710731
-710881
-711004
-710853
-711212
-711348
-711417
-711620
-711698
-711746
-711791
-711780
-711797
-711881
-711888
-711916
-711886
-711925
-711919
-711850
-711904
-711844
-711737
-711612
-711535
-711580
-711439
-711323
-711220
-711132
-711147
-711022
-711016
-710867
-710912
-710827
-710734
-710640
-710567
-710596
-710472
-710559
-710417
-710313
-710338
-710237
-710187
-710188
-710101
-709843
-710047
-710146
-710091
-710092
-710121
-710109
-710108
-710098
-710066
-710083
-710120
-710194
-710196
-710231
-710309
-710318
-710383
-710501
-710563
-710774
-710713
-710814
-710982
-710944
-711172
-711213
-711420
-711548
-711696
-711713
-711840
-711996
-712070
-712183
-712319
-712457
-712609
-712785
-712868
-712987
-713114
-713283
-713334
-713409
-713644
-713685
-713761
-713749
-713855
-713854
-714019
-714089
-714055
-714093
-714180
-714293
-714330
-714493
-714445
-714536
-714616
-714698
-714729
-714674
-714790
-714759
-714827
-714890
-714869
-714847
-714903
-715072
-714988
-715016
-715044
-715007
-715125
-715142
-715078
-715164
-715243
-715191
-715308
-715235
-715371
-715347
-715341
-715425
-715501
-715572
-715708
-715725
-715760
-715833
-715954
-716021
-716127
-716273
-716243
-716433
-716531
-716591
-716690
-716662
-716742
-716873
-716764
-716812
-716638
-716659
-716455
-716224
-715910
-715596
-715221
-714802
-714242
-713801
-713106
-712558
-712028
-711386
-710733
-710087
-709451
-708848
-708169
-707530
-706832
-706247
-705748
-705271
-704649
-704126
-703590
-703180
-702671
-702220
-701904
-701604
-701311
-700991
-700731
-700478
-700213
-700092
-699879
-699719
-699633
-699601
-699445
-699381
-699394
-699310
-699383
-699477
-699415
-699526
-699613
-699681
-699827
-699964
-700026
-700184
-700212
-700331
-700562
-700722
-700797
-700972
-701158
-701354
-701565
-701576
-701867
-701949
-702156
-702264
-702368
-702650
-702816
-702952
-703126
-703282
-703418
-703431
-703635
-703824
-703866
-704057
-704208
-704295
-704504
-704547
-704648
-704882
-704969
-705045
-705257
-705318
-705535
-705714
-705795
-705907
-706118
-706247
-706325
-707124
-706853
-706944
-707049
-707114
-707242
-707425
-707551
-707605
-707688
-707847
-707930
-707938
-708047
-708164
-708168
-708245
-708370
-708346
-708442
-708333
-708400
-708294
-708389
-708411
-708428
-708244
-708289
-708340
-708291
-708330
-708210
-708268
-708223
-708150
-708193
-708122
-708097
-708067
-707942
-707954
-707865
-707924
-707848
-707837
-707780
-707712
-707732
-707723
-707636
-707625
-707555
-707377
-707472
-707522
-707532
-707458
-707412
-707491
-707421
-707468
-707330
-707387
-707417
-707414
-707439
-707348
-707384
-707505
-707404
-707373
-707481
-707433
-707315
-707373
-707423
-707526
-707459
-707583
-707570
-707519
-707498
-707654
-707687
-707711
-707780
-707765
-707729
-707837
-707842
-707952
-707855
-707950
-708031
-707974
-708043
-708087
-708191
-708225
-708353
-708313
-708324
-708464
-708594
-708602
-708738
-708866
-708830
-708961
-709110
-709169
-709182
-709268
-709467
-709591
-709576
-709766
-709840
-709893
-710124
-710236
-710281
-710388
-710541
-710731
-710829
-710842
-711083
-711252
-711339
-711491
-711599
-711611
-711557
-711839
-712019
-712042
-712361
-712782
-712713
-712746
-712736
-712903
-713042
-713153
-713139
-713220
-713333
-713471
-713511
-713704
-713709
-713694
-713907
-714002
-714077
-714022
-714129
-714131
-714261
-714290
-714265
-714219
-714162
-714183
-713947
-713736
-713633
-713396
-713108
-712728
-712184
-711741
-711192
-710795
-710207
-709635
-709022
-708401
-707790
-707776
-706479
-705838
-705318
-704650
-704099
-703376
-702897
-702399
-701848
-701479
-700942
-700594
-700206
-699879
-699567
-699095
-698783
-698539
-698301
-698130
-697868
-697743
-697568
-697504
-697332
-697368
-697352
-697324
-697387
-697490
-697537
-697636
-697673
-697689
-697989
-698147
-698217
-698502
-698737
-699001
-699025
-699401
-699649
-699795
-700091
-700269
-700487
-700856
-701007
-701275
-701410
-701464
-701817
-702071
-702304
-702292
-702422
-702465
-702736
-702912
-703078
-703193
-703308
-703423
-703518
-703552
-703559
-703668
-703521
-703638
-703713
-703788
-703864
-703948
-704040
-703942
-704123
-704324
-704397
-704585
-704725
-704890
-705005
-705147
-705230
-705334
-705296
-705476
-705587
-705779
-705841
-705872
-705837
-705931
-705967
-706012
-706089
-706153
-706257
-706274
-706755
-706528
-706476
-706674
-706692
-706691
-706815
-706903
-706871
-706882
-706938
-706978
-707101
-707091
-707179
-707203
-707238
-707404
-707358
-707414
-707420
-707535
-707505
-707653
-707638
-707559
-707790
-707749
-707619
-707576
-707587
-707562
-707532
-707489
-707387
-707433
-707304
-707124
-707085
-706972
-706677
-706755
-706721
-706662
-706526
-706548
-706377
-706321
-706279
-706126
-706095
-705972
-705816
-705760
-705642
-705348
-705495
-705452
-705491
-705348
-705330
-705278
-705262
-705312
-705338
-705378
-705401
-705470
-705434
-705445
-705541
-706111
-706607
-706149
-705998
-706090
-706206
-706342
-706534
-706726
-706857
-706957
-707134
-707588
-707606
-707684
-707875
-708080
-708325
-708411
-708575
-708688
-708791
-708956
-709105
-709280
-709339
-709468
-709646
-709715
-709907
-709967
-710070
-710331
-710346
-710649
-710786
-710918
-711009
-711161
-711352
-711525
-711661
-711830
-711955
-712081
-712296
-712449
-712487
-712711
-712974
-713096
-713292
-713516
-713546
-713698
-713919
-714063
-714248
-714364
-714455
-714621
-714875
-714987
-715063
-715198
-715328
-715456
-715511
-715548
-715749
-715735
-715724
-715854
-715836
-715649
-715590
-715452
-715325
-715065
-714745
-714511
-714069
-713553
-713038
-712474
-711746
-711203
-710582
-709787
-709077
-708330
-707625
-706975
-706231
-705529
-704564
-704070
-703499
-702707
-702221
-701678
-701115
-700624
-700225
-699592
-699191
-698967
-698495
-698173
-697969
-697720
-697499
-697329
-697049
-696921
-696809
-696790
-696669
-696559
-696595
-696683
-696627
-696735
-696779
-696795
-696773
-696911
-697064
-697175
-697392
-697500
-697698
-697997
-698067
-698289
-698553
-698671
-698986
-699287
-699427
-699640
-699958
-700230
-700455
-700655
-700906
-701129
-701319
-701528
-701748
-701909
-702135
-702254
-702412
-702685
-702902
-703083
-703202
-703381
-703536
-703700
-703816
-703876
-703987
-704097
-704093
-704278
-704398
-704439
-704462
-704578
-704747
-704729
-704702
-704750
-704829
-704831
-704982
-705028
-704954
-704958
-705015
-705659
-705220
-705197
-705225
-705259
-705375
-705252
-705372
-705399
-705405
-705414
-705453
-705418
-705347
-705312
-705384
-705233
-705234
-705197
-705288
-705237
-705165
-705117
-705154
-705117
-705135
-705056
-705048
-705003
-704975
-704832
-704876
-704745
-704651
-704573
-704661
-704640
-704607
-704503
-704497
-704375
-704265
-704241
-704102
-704030
-703892
-703853
-703832
-703769
-703666
-703561
-703542
-703426
-703337
-703258
-703124
-703057
-702992
-702927
-702868
-702796
-702728
-702586
-702500
-702463
-702524
-702500
-702413
-702333
-702448
-702287
-702249
-702314
-702235
-702338
-702313
-702367
-702425
-702346
-702281
-702381
-702468
-702448
-702446
-702524
-702452
-702486
-702590
-702525
-702589
-702625
-702731
-702737
-702768
-702840
-702878
-702898
-702959
-703075
-703171
-703193
-703279
-703328
-703408
-703532
-703542
-703550
-703630
-703750
-703772
-703788
-703892
-703977
-704041
-704118
-704124
-704222
-704265
-704403
-704588
-704617
-704605
-704758
-704789
-704907
-704999
-705052
-705048
-705078
-705201
-705329
-705421
-705539
-705587
-705717
-705787
-705886
-706092
-706071
-706255
-706330
-706409
-706482
-706658
-706763
-706828
-706970
-707018
-707179
-707170
-707235
-707298
-707267
-707243
-707192
-706926
-706803
-706520
-706180
-705792
-705343
-704848
-704387
-703781
-703240
-702738
-702113
-701420
-700775
-700154
-699415
-698806
-698151
-697457
-696835
-696179
-695607
-694996
-694379
-693864
-693300
-692848
-692440
-691971
-691618
-691228
-690871
-690503
-690257
-690066
-689749
-689630
-689281
-689282
-689246
-689134
-689180
-689145
-689046
-689111
-689185
-689257
-689438
-689515
-689691
-689831
-689906
-690259
-690474
-690622
-690857
-691144
-691399
-691617
-691973
-692041
-692338
-692633
-692775
-693101
-693296
-693619
-693940
-694183
-694356
-694592
-694699
-694965
-695212
-695343
-695630
-695808
-696044
-696297
-696344
-696598
-696726
-696860
-697061
-697261
-697365
-697477
-698035
-697797
-697903
-697980
-698130
-698240
-698242
-698395
-698515
-698509
-698646
-698779
-698799
-698872
-698906
-698876
-698845
-698842
-698750
-698676
-698596
-698428
-698351
-698260
-698160
-698061
-697930
-697861
-697939
-697965
-697992
-697990
-697929
-697946
-697888
-697972
-697818
-697827
-697857
-697908
-697808
-697621
-697628
-697645
-697606
-697689
-697695
-697746
-697643
-697728
-697739
-697695
-697793
-697802
-697706
-697857
-697862
-697796
-697789
-697799
-697734
-697888
-697694
-697756
-697766
-697698
-697672
-697780
-697800
-697822
-697843
-697891
-697832
-697772
-697745
-697728
-697743
-697822
-697709
-697776
-697703
-697780
-697796
-697797
-697886
-697861
-697798
-697920
-697859
-697840
-697899
-697795
-697908
-697731
-697834
-697805
-697771
-697705
-697725
-697704
-697729
-697763
-697823
-697885
-697834
-697952
-697976
-698072
-698071
-698096
-698259
-698354
-698438
-698455
-698652
-698743
-698909
-698999
-699084
-699229
-699359
-699463
-699535
-699597
-699847
-700083
-700227
-700340
-700463
-700553
-700685
-700831
-700963
-701102
-701184
-701327
-701456
-701658
-701842
-701961
-702199
-702371
-702652
-702877
-703027
-703272
-703308
-703556
-703547
-703708
-703787
-703904
-703958
-703907
-703930
-703940
-704124
-704111
-704152
-704179
-704249
-704302
-704551
-704564
-704694
-704875
-704985
-705063
-705198
-705214
-705331
-705534
-705500
-705403
-705442
-705081
-704842
-704620
-704248
-703749
-703151
-702538
-701744
-701040
-700291
-699427
-698577
-697749
-696804
-695967
-695148
-694344
-693594
-692793
-692044
-691440
-690779
-690212
-689539
-688944
-688416
-687996
-687482
-687160
-686888
-686581
-686409
-686228
-685978
-685898
-685746
-685623
-685440
-685444
-685747
-685357
-685242
-685088
-685115
-685128
-685134
-684982
-685102
-685108
-685271
-685333
-685386
-685575
-685741
-686043
-686273
-686517
-686673
-686908
-687245
-687568
-687842
-688088
-688399
-688758
-689037
-689296
-689573
-689893
-690205
-690482
-690837
-691087
-691491
-691750
-691952
-692279
-692528
-692680
-692962
-693143
-693330
-693455
-693612
-693817
-694038
-694264
-694945
-694753
-694774
-694999
-695242
-695348
-695479
-695741
-695846
-696069
-696139
-696312
-696521
-696636
-696735
-696830
-696966
-697090
-697163
-697208
-697211
-697288
-697245
-697181
-697014
-697058
-696970
-696779
-696602
-696425
-696186
-696081
-695958
-695704
-695502
-695087
-695055
-694947
-694806
-694626
-694514
-694260
-694077
-693851
-693768
-693594
-693429
-693412
-693291
-693105
-692965
-692881
-692768
-692705
-692453
-692570
-692569
-692628
-692509
-692459
-692426
-692431
-692506
-692621
-692609
-692606
-692724
-692844
-692923
-692974
-693133
-693262
-693427
-693413
-693393
-693421
-693424
-693443
-693308
-693337
-693288
-693223
-693280
-693166
-693055
-693086
-693153
-693157
-693141
-693067
-693112
-693207
-693280
-693404
-693422
-693582
-693653
-693730
-693836
-693951
-694005
-694167
-694348
-694602
-694673
-694829
-695122
-695443
-695606
-695774
-696053
-696331
-696560
-696798
-696949
-697168
-697408
-697566
-697731
-697813
-698107
-698286
-698569
-698622
-698745
-698971
-699059
-699263
-699388
-699445
-699555
-699704
-699815
-699832
-699962
-699961
-700071
-700127
-700000
-700143
-700256
-700313
-700361
-700251
-700377
-700359
-700400
-700434
-700395
-700428
-700437
-700487
-700566
-700617
-700773
-700753
-700792
-700914
-701099
-701166
-701153
-701149
-701144
-701109
-701044
-701117
-700890
-700840
-700603
-700411
-700222
-699877
-699610
-699177
-698909
-698538
-698055
-697663
-697143
-696644
-696214
-695667
-695077
-694574
-694004
-693433
-693021
-692624
-692181
-691819
-691383
-691117
-690768
-690312
-690020
-689674
-689430
-689183
-688841
-688585
-688414
-688157
-687897
-687637
-687418
-687277
-686983
-686822
-686546
-686382
-686196
-686086
-685955
-685772
-685582
-685607
-685451
-685308
-685185
-685192
-685190
-685164
-685207
-685146
-685284
-685238
-685247
-685308
-685461
-685616
-685698
-685768
-685974
-686141
-686367
-686674
-687085
-687450
-687752
-688187
-688587
-688895
-689285
-689569
-689884
-690264
-690652
-690912
-691236
-691564
-691795
-692143
-692495
-692662
-692857
-693066
-693325
-693380
-693498
-693854
-694057
-694114
-694267
-694401
-694665
-694806
-694897
-694966
-695009
-695067
-695198
-695319
-695299
-695270
-695368
-695463
-695434
-695537
-695577
-695651
-695693
-695884
-695923
-695946
-695984
-696009
-695996
-696109
-696163
-696231
-696323
-696256
-696306
-696485
-696520
-696806
-696972
-697246
-697487
-697725
-697877
-698003
-698140
-698233
-698263
-698391
-698383
-698437
-698496
-698393
-698641
-698627
-698649
-698666
-698618
-698563
-698587
-698568
-698475
-698477
-698468
-698501
-698448
-698434
-698451
-698474
-698393
-698336
-698278
-698313
-698962
-698883
-698501
-698468
-698392
-698434
-698897
-698647
-698497
-698645
-698743
-698760
-698656
-698703
-698778
-698885
-698919
-698892
-698840
-698796
-698797
-698728
-698694
-698659
-698665
-698677
-698577
-698552
-698687
-698686
-698780
-698720
-698770
-698856
-698996
-699081
-698838
-699231
-699408
-699499
-699632
-699684
-699848
-699943
-700104
-700198
-700324
-700424
-700526
-700633
-700814
-700895
-700890
-701127
-701474
-701615
-701805
-702092
-702259
-702411
-702573
-702858
-702910
-703174
-703302
-703591
-703918
-704191
-704347
-704494
-704713
-704880
-705240
-705436
-705918
-706465
-706317
-706307
-706440
-706607
-706702
-706929
-707097
-707199
-707244
-707293
-707191
-707101
-707046
-706827
-706747
-706465
-706070
-705625
-705254
-704743
-704360
-703799
-703250
-702736
-702148
-701601
-701023
-700444
-699809
-699246
-698688
-698148
-697482
-697027
-696549
-696090
-695753
-695323
-694941
-694669
-694432
-694162
-693812
-693619
-693524
-693290
-693202
-692995
-692944
-693519
-693166
-693081
-693027
-693103
-693278
-693381
-693570
-693715
-694019
-694244
-694527
-694724
-695015
-695277
-695666
-695959
-696334
-696646
-696841
-697242
-697622
-698019
-698302
-698616
-698948
-699266
-699600
-699963
-700213
-700652
-700933
-701125
-701313
-701612
-701901
-702077
-702292
-702506
-702566
-702565
-702904
-703086
-703196
-703287
-703419
-703574
-703591
-703749
-703886
-703952
-703986
-703995
-704130
-704197
-704229
-704301
-704372
-704491
-704453
-704558
-704414
-704547
-704687
-704675
-704725
-704845
-704813
-704802
-704876
-704898
-704880
-704906
-704959
-704935
-704983
-705522
-704980
-704921
-704871
-704830
-704812
-704852
-704707
-704819
-704854
-704720
-704704
-704628
-704641
-704608
-704666
-704656
-704654
-704668
-704643
-704471
-704592
-704549
-704658
-704654
-704659
-704661
-704775
-704727
-704744
-704804
-704824
-704828
-704901
-704933
-704974
-704963
-705033
-705064
-705161
-705112
-705216
-705263
-705366
-705449
-705614
-705664
-705647
-705681
-705831
-706016
-705945
-706122
-706291
-706192
-706264
-706409
-706524
-706537
-706674
-706692
-706748
-706826
-707004
-706970
-707042
-707192
-707200
-707254
-707259
-707441
-707496
-707524
-707638
-707658
-707762
-707692
-707707
-707784
-707733
-707825
-707864
-707897
-707933
-708031
-707955
-707937
-707754
-707924
-708008
-707947
-707937
-707950
-708027
-707997
-708026
-708022
-708031
-708080
-708039
-708036
-708023
-708071
-708177
-708218
-708276
-708343
-708503
-708563
-708620
-708798
-708873
-708874
-709064
-709125
-709212
-709329
-709449
-709689
-709746
-709896
-709976
-710058
-710216
-710499
-710492
-710651
-710774
-710847
-711108
-711759
-711529
-711497
-711562
-711726
-711784
-711715
-711737
-711729
-711589
-711621
-711502
-711303
-711101
-710974
-710765
-710534
-710219
-710047
-709637
-709417
-709045
-708713
-708330
-708048
-707686
-707351
-707119
-706731
-706429
-706058
-705796
-705332
-705248
-705138
-705000
-704880
-704625
-704609
-704574
-704440
-704392
-704307
-704284
-704234
-704319
-704369
-704432
-704438
-704477
-704538
-704689
-704759
-704855
-705057
-705261
-705295
-705420
-705656
-705800
-706044
-706270
-706410
-706601
-706773
-706994
-707189
-707310
-707548
-707733
-707960
-708123
-708309
-708499
-708713
-708957
-709114
-709164
-709286
-709489
-709647
-709762
-710039
-710084
-710277
-710347
-710552
-710619
-710716
-710848
-711423
-711747
-711359
-711426
-711517
-711598
-711687
-711841
-711856
-712064
-712143
-712220
-712316
-712462
-712541
-712592
-712720
-712700
-712923
-713007
-712932
-712929
-713549
-713165
-713167
-713158
-713076
-713105
-713125
-713083
-713005
-713052
-713030
-712975
-712778
-713329
-712920
-712840
-712809
-712827
-712703
-712795
-712737
-712822
-712726
-712747
-712632
-712702
-712697
-712581
-712729
-712643
-712549
-712705
-712612
-712752
-712719
-712729
-712865
-712894
-712990
-713004
-713064
-713189
-713252
-713393
-713389
-713409
-713480
-713574
-713681
-713838
-713926
-714014
-714227
-714289
-714302
-714406
-714583
-714669
-714864
-714885
-715065
-715167
-715313
-715430
-715565
-715660
-715820
-715926
-715965
-716164
-716272
-716414
-716607
-716737
-716783
-716880
-717018
-717191
-717244
-717410
-717457
-717603
-717657
-717751
-717888
-718061
-718051
-718184
-718384
-718451
-718533
-718681
-718777
-718895
-719026
-719134
-719180
-719280
-719487
-719488
-719591
-719693
-719822
-720001
-719949
-720093
-720229
-720205
-720323
-720325
-720467
-720555
-720630
-720594
-720556
-720649
-720618
-720750
-720672
-720651
-720521
-720820
-720809
-720745
-720801
-720848
-720948
-720919
-720963
-721001
-720843
-720902
-720996
-720948
-720907
-720924
-720972
-720935
-720998
-720905
-720924
-720882
-720764
-720505
-720415
-720800
-720248
-719826
-719482
-719133
-718770
-718317
-717930
-717487
-716979
-716281
-715991
-715496
-714946
-714487
-713998
-713613
-713179
-712775
-712222
-711781
-711457
-711079
-710751
-710426
-710109
-709775
-709578
-709305
-709190
-708996
-708903
-708761
-708667
-708591
-708420
-708462
-708269
-708389
-708422
-708446
-708401
-708431
-708522
-708596
-708617
-708650
-708788
-708982
-709018
-709137
-709337
-709446
-709512
-709688
-709806
-710033
-710197
-710298
-710414
-710520
-710651
-710728
-710895
-710849
-711088
-711339
-711452
-711577
-711664
-711742
-711807
-711958
-712143
-712186
-712411
-712501
-712731
-713003
-713159
-713283
-713517
-713803
-714020
-714304
-714581
-714847
-715076
-715268
-715624
-716000
-716281
-716669
-716863
-717264
-717537
-717887
-718117
-718407
-718641
-718830
-719197
-719384
-719681
-719770
-719997
-720290
-720521
-720682
-720646
-720781
-720952
-721055
-721156
-721300
-721424
-721502
-721693
-721798
-721899
-721802
-721827
-721813
-721887
-721880
-721825
-721752
-721723
-721643
-721467
-721416
-721328
-721190
-721055
-720966
-720887
-720806
-720674
-720558
-720370
-720630
-720348
-720231
-720082
-719970
-719905
-719798
-719920
-719918
-719818
-719781
-719754
-719790
-719866
-719792
-719903
-719936
-720023
-720168
-719959
-720198
-720448
-720555
-720731
-720814
-720909
-721499
-721991
-721631
-721647
-721766
-722000
-722071
-722270
-722437
-722645
-722784
-722906
-723000
-723077
-723179
-723266
-723415
-723564
-723600
-723693
-723925
-723992
-724173
-724176
-724357
-724524
-724566
-724778
-724763
-724870
-724861
-724966
-724952
-725082
-725000
-724975
-725009
-725538
-725094
-724945
-724879
-724913
-724911
-724850
-724785
-724703
-724713
-724641
-724675
-724557
-724533
-724434
-724420
-724543
-724505
-724499
-724543
-724459
-724467
-724536
-724628
-724515
-724444
-724513
-724518
-724401
-724376
-724427
-724301
-724134
-724124
-724006
-723850
-723646
-723425
-722972
-722780
-722554
-722043
-721675
-721285
-720929
-720472
-719927
-719432
-718988
-718477
-717953
-717540
-716911
-716548
-716128
-715657
-715114
-714636
-714159
-713747
-713529
-713233
-712815
-712458
-712240
-711874
-711561
-711216
-711005
-710779
-710456
-710332
-709938
-709996
-709880
-709802
-709624
-709490
-709446
-709346
-709267
-709217
-709107
-709081
-709091
-709012
-708925
-708982
-708925
-708849
-708755
-708682
-708526
-708509
-708364
-708387
-708254
-708049
-708005
-707977
-707856
-707724
-707654
-707515
-707448
-707403
-707422
-707408
-707419
-707451
-707569
-707501
-707516
-707567
-707623
-707741
-707746
-707749
-707842
-707902
-707828
-707936
-708067
-708206
-708232
-708298
-708405
-708385
-708460
-708530
-708681
-708765
-708820
-708926
-709049
-709072
-709126
-709158
-709290
-709495
-709761
-709950
-710148
-710417
-710634
-710892
-711169
-711412
-711702
-711749
-712166
-712386
-712586
-712888
-713145
-713318
-713415
-713646
-713981
-714144
-714299
-714380
-714547
-714609
-714835
-714878
-715022
-715226
-715336
-715513
-715525
-715555
-715635
-715761
-715813
-715872
-715937
-716046
-716084
-716176
-716210
-716281
-716335
-716407
-716390
-716304
-716224
-716051
-716133
-715977
-715879
-715622
-715439
-715759
-715318
-715034
-714757
-714648
-714447
-714290
-714126
-714066
-713974
-713797
-713705
-713544
-713522
-713377
-713407
-713317
-713287
-713239
-713128
-713169
-713093
-713063
-713031
-713036
-713059
-713058
-713141
-713098
-713056
-713231
-713396
-713430
-713533
-713657
-713813
-714100
-714319
-714314
-714657
-714948
-715112
-715455
-715380
-715714
-715952
-716272
-716425
-716629
-716834
-716939
-717167
-717335
-717397
-717525
-717656
-717841
-717897
-718088
-718245
-718287
-718431
-718559
-718709
-718831
-718789
-718922
-719055
-719142
-719218
-719224
-719300
-719231
-719380
-719373
-719226
-719436
-719495
-719411
-719420
-719274
-719073
-719007
-718800
-718386
-718063
-717709
-717215
-716646
-716193
-715666
-715131
-714516
-713890
-713183
-712672
-711985
-711344
-710833
-710207
-709626
-709103
-709098
-708189
-707547
-707096
-706650
-706253
-705796
-705354
-705018
-704762
-704417
-704136
-703948
-703778
-703555
-703404
-703292
-703163
-702861
-702893
-702979
-702897
-702892
-702901
-702895
-703001
-703111
-703157
-703217
-703291
-703461
-703453
-703501
-703503
-703627
-703780
-703837
-703866
-703879
-704034
-704124
-704179
-704284
-704459
-704679
-704685
-704723
-704820
-705028
-705040
-705104
-705246
-705332
-705238
-705546
-705715
-705707
-705784
-705914
-706012
-706097
-705967
-706064
-706114
-706083
-706140
-706157
-706200
-706172
-706296
-706333
-706373
-706265
-706432
-706441
-706502
-706480
-706607
-706679
-706782
-706885
-706974
-706931
-707157
-707206
-707400
-707485
-707571
-707775
-707893
-707977
-708080
-708255
-708310
-708260
-708579
-708727
-708815
-708828
-708827
-709149
-709202
-709358
-709475
-709516
-709698
-709768
-709795
-709864
-709957
-709977
-710041
-709904
-710085
-710302
-710355
-710360
-710518
-710505
-710473
-710578
-710561
-710624
-710667
-710733
-710763
-710621
-710825
-710947
-710950
-710859
-710748
-710789
-710724
-710801
-710760
-710813
-710847
-710825
-710818
-710971
-710978
-710996
-711033
-710931
-710900
-711003
-711050
-711011
-711072
-711070
-710972
-711158
-711202
-711207
-711214
-711327
-711333
-711343
-711352
-711356
-711499
-711466
-711616
-711693
-711809
-711893
-711921
-712001
-712173
-712248
-712442
-712514
-712639
-712824
-712954
-713240
-713329
-713482
-713750
-713885
-714016
-714256
-714490
-714562
-714830
-715123
-715283
-715545
-715782
-716039
-716136
-716533
-716765
-716930
-717131
-717110
-717527
-717744
-717951
-718215
-718393
-718536
-718692
-718972
-719064
-719161
-719437
-719398
-719582
-719733
-719801
-719950
-720049
-720139
-720225
-720249
-720291
-720265
-720263
-720150
-720004
-719854
-719603
-719313
-719085
-718713
-718312
-717875
-717509
-716954
-716486
-715954
-715472
-714878
-714271
-713695
-713182
-712689
-711955
-711594
-711211
-710685
-710155
-709715
-709209
-708754
-708358
-708057
-707759
-707199
-706910
-706592
-706312
-705937
-706031
-705530
-705249
-704904
-704600
-704365
-704107
-704005
-703789
-703631
-703440
-703280
-703100
-702986
-702893
-702797
-702685
-702675
-702633
-702532
-702472
-702360
-702485
-702363
-702305
-702264
-702299
-702267
-702290
-702377
-702338
-702732
-702469
-702409
-702551
-702597
-702652
-702689
-703310
-702901
-702897
-702933
-703019
-703114
-703152
-703126
-703157
-703360
-703389
-703372
-703607
-703761
-703857
-704079
-704159
-704212
-704518
-704696
-704836
-705026
-705146
-705331
-705651
-705879
-705992
-706152
-706344
-706524
-706792
-706957
-707093
-707204
-707417
-707535
-707713
-707850
-707928
-708043
-708115
-708184
-708308
-708449
-708508
-708624
-708717
-708716
-708748
-708727
-708862
-708912
-708964
-709008
-709060
-709063
-709077
-709152
-709154
-709177
-709256
-709479
-709255
-709236
-709320
-709413
-709483
-709479
-709580
-709656
-709701
-709697
-709811
-709985
-710028
-710185
-710239
-710268
-710329
-710522
-710536
-710728
-710868
-710968
-711046
-711131
-711208
-711288
-711432
-711598
-711657
-711802
-711984
-712065
-712228
-712449
-712535
-712644
-712882
-712967
-713062
-713193
-713323
-713488
-713570
-713824
-713903
-714043
-714246
-714402
-714557
-714656
-714878
-715061
-715228
-715245
-715436
-715545
-715712
-715894
-716030
-716158
-716359
-716605
-716701
-716876
-716954
-717103
-717344
-717448
-717512
-717616
-717649
-717810
-718009
-718161
-718223
-718651
-718649
-718590
-718717
-718831
-718871
-719003
-719054
-719232
-719308
-719343
-719503
-719533
-719638
-719765
-719836
-720038
-720142
-720174
-720353
-720407
-720452
-720590
-720745
-720809
-720932
-721053
-721237
-721307
-721405
-721263
-721345
-721395
-721241
-721132
-720882
-720688
-720511
-720311
-719976
-719606
-719252
-718843
-718413
-717959
-717471
-716966
-716468
-715988
-715439
-715057
-714535
-714100
-713637
-713235
-712725
-712370
-711953
-711541
-711187
-710903
-710632
-710274
-710069
-709826
-709549
-709434
-709327
-709213
-709145
-708913
-709042
-708881
-708705
-708804
-708814
-709336
-709079
-709013
-708957
-709020
-709231
-709276
-709371
-709479
-709535
-709694
-709801
-709897
-709992
-710029
-710250
-710346
-710445
-710586
-710478
-710736
-710831
-711032
-711063
-711209
-711387
-711363
-711494
-711587
-711647
-711691
-711814
-711953
-711987
-712055
-712109
-712201
-712184
-712323
-712412
-712517
-712644
-712797
-712815
-712882
-713002
-713150
-713320
-713403
-713512
-713662
-713880
-714004
-714067
-714258
-714383
-714531
-714652
-715160
-715062
-715075
-715188
-715302
-715384
-715392
-715539
-715563
-715650
-715683
-715690
-715746
-715792
-715836
-715827
-715740
-715836
-715765
-715755
-715683
-715551
-715586
-715474
-715351
-715281
-715159
-714946
-714894
-714693
-714623
-714467
-714394
-714232
-714076
-713863
-713693
-713691
-713505
-713402
-713295
-713134
-712994
-713033
-712886
-712811
-712671
-712590
-712556
-712568
-712489
-712439
-712464
-712526
-712393
-712435
-712388
-712404
-712432
-712536
-712583
-712438
-712746
-712744
-712846
-712873
-713003
-713054
-713167
-713300
-713465
-713526
-713694
-713800
-713918
-714069
-714178
-714293
-714434
-714548
-714724
-714821
-714884
-714905
-715000
-715077
-715196
-715225
-715317
-715335
-715474
-715450
-715546
-715563
-715660
-715541
-715637
-715648
-715663
-715751
-715714
-715838
-715866
-715850
-715971
-716003
-715996
-716075
-716113
-716038
-715936
-716033
-716192
-716261
-716336
-716398
-716392
-716518
-716563
-716612
-716716
-716696
-716774
-716869
-716991
-716932
-717069
-717034
-717112
-717189
-717308
-717311
-717422
-717493
-717637
-717677
-717656
-717707
-717758
-717894
-717830
-717765
-717739
-717680
-717486
-717290
-716987
-716761
-716337
-715943
-715646
-715236
-714784
-714357
-713816
-713391
-712893
-712438
-711859
-711392
-710876
-710433
-709925
-709462
-708993
-708557
-708125
-707849
-707559
-707279
-707003
-706640
-706376
-706188
-705923
-705714
-705523
-705417
-705386
-705210
-705196
-705143
-705128
-705037
-705005
-705088
-705116
-705261
-705276
-705370
-705372
-705404
-705541
-706188
-706003
-706043
-706105
-706314
-706482
-706686
-706747
-706887
-706999
-707119
-707206
-707296
-707361
-707609
-707710
-707817
-707959
-707889
-708082
-708116
-708159
-708169
-708189
-708230
-708261
-708641
-708488
-708481
-708529
-708598
-708557
-708530
-708403
-708525
-708477
-708608
-708687
-708605
-708684
-708779
-708874
-708969
-708998
-708975
-709179
-709300
-709365
-709484
-709690
-709736
-709929
-709994
-710211
-710255
-710420
-710580
-710659
-710696
-710779
-710918
-710954
-710996
-710975
-710953
-710972
-710994
-710876
-710842
-710744
-710572
-710545
-710461
-710292
-710286
-710137
-710015
-709842
-709715
-709574
-709586
-709407
-709291
-709164
-709188
-709183
-709017
-709002
-708982
-708972
-708960
-708893
-708751
-708782
-708694
-708644
-708679
-708573
-708612
-708578
-708592
-708564
-708530
-708537
-708599
-708551
-708563
-708522
-708521
-708531
-708591
-708565
-708668
-708628
-708546
-708599
-708566
-708544
-708685
-708694
-708745
-708812
-708770
-708850
-708969
-709050
-709075
-708988
-709007
-709115
-709237
-709368
-709365
-709455
-709550
-709657
-709758
-709846
-709881
-710045
-710142
-710216
-710351
-710451
-710558
-710690
-710764
-710874
-710817
-711102
-711244
-711332
-711405
-711582
-711718
-711784
-711887
-712009
-712109
-712138
-712353
-712458
-712516
-712677
-712691
-712884
-712919
-713078
-713044
-713203
-713292
-713444
-713384
-713431
-713528
-713547
-713684
-713697
-713793
-713865
-713947
-713952
-713937
-713927
-714124
-714133
-714200
-714253
-714233
-714327
-714414
-714415
-714407
-714412
-714490
-714898
-714697
-714605
-714495
-714580
-714473
-714544
-714382
-714159
-714033
-713932
-713687
-713409
-712997
-712617
-712267
-711823
-711408
-710943
-710335
-709861
-709666
-709077
-708389
-707849
-707208
-706679
-706247
-705699
-705236
-704851
-704331
-703904
-703410
-703054
-702738
-702450
-702139
-701873
-701699
-701517
-701228
-701027
-700947
-700923
-700722
-700741
-700710
-700597
-700654
-700639
-700707
-700703
-700788
-700889
-700911
-701094
-701220
-701163
-701273
-701436
-701238
-701582
-701665
-701730
-701936
-702014
-702074
-702209
-702245
-702297
-702446
-702487
-702504
-702485
-702506
-702540
-702576
-702582
-702611
-703116
-702724
-702574
-702475
-702463
-702446
-702315
-702239
-702127
-702134
-702100
-702029
-701966
-702003
-702031
-701987
-701961
-701936
-701821
-701861
-701952
-701785
-701938
-701961
-702056
-702232
-702231
-702383
-702367
-702600
-702659
-702784
-702902
-703004
-703181
-703309
-703479
-703698
-703837
-704094
-704188
-704392
-704658
-704740
-704976
-705121
-705358
-705624
-705742
-705906
-706016
-706255
-706346
-706527
-706714
-706812
-706958
-707023
-707140
-707207
-707319
-707389
-707496
-707583
-707629
-707654
-707812
-707791
-707769
-707929
-707903
-707941
-707741
-707978
-707964
-708033
-708055
-707997
-708043
-708033
-708022
-708073
-707791
-707984
-707971
-708044
-708016
-707889
-707987
-707993
-707910
-707928
-707863
-707928
-707881
-707854
-707865
-707804
-707775
-707798
-707851
-707919
-707963
-707972
-708074
-708069
-708103
-708137
-708138
-708282
-708403
-708476
-708517
-708617
-708737
-708770
-708953
-709095
-709207
-709293
-709452
-709527
-709544
-709753
-709840
-709995
-710041
-710181
-710275
-711052
-710835
-710847
-710999
-711062
-711162
-711322
-711381
-711421
-711662
-711794
-712019
-712050
-712227
-712269
-712458
-712617
-712606
-712798
-712928
-713047
-713260
-713326
-713479
-713563
-713653
-713796
-714026
-714077
-714254
-714357
-714545
-714629
-714685
-714785
-714923
-715192
-715281
-715381
-715528
-715578
-715755
-715614
-715786
-716013
-716035
-716170
-716249
-716302
-716280
-716392
-716434
-716608
-716519
-716668
-716694
-716855
-716926
-716812
-716920
-716902
-716928
-716971
-716898
-716874
-716789
-716761
-716613
-716431
-716111
-715894
-715575
-715202
-714705
-714229
-713629
-713066
-712466
-711918
-711261
-710631
-709957
-709348
-708684
-708100
-707390
-706816
-706137
-705487
-704922
-704335
-703894
-703382
-702884
-702489
-702047
-701616
-701315
-700952
-700678
-700368
-700151
-699964
-699763
-699662
-699543
-699488
-699432
-699417
-699357
-699340
-699329
-699384
-699441
-699607
-699628
-699703
-699892
-699921
-700098
-700167
-700342
-700524
-700629
-700775
-700969
-701116
-701311
-701500
-701654
-701904
-702084
-702295
-702449
-702658
-702789
-702933
-703026
-703201
-703294
-703572
-703650
-703722
-703865
-704076
-704072
-704231
-704300
-704465
-704589
-704622
-704753
-704914
-704930
-704990
-705174
-705304
-705308
-705337
-705424
-705629
-705778
-705903
-706066
-706109
-706345
-706424
-706692
-706633
-706883
-706988
-707219
-707437
-707515
-707604
-707731
-707894
-708057
-708233
-708377
-708602
-709126
-708934
-708975
-709027
-709147
-709292
-709450
-709538
-709584
-709596
-709736
-709791
-709797
-709841
-710032
-710070
-710081
-710043
-709997
-710090
-710083
-710100
-710092
-710030
-710022
-710048
-710034
-709987
-709944
-709980
-709873
-709888
-709835
-709879
-709973
-709870
-709894
-709763
-709919
-709859
-709963
-709976
-709967
-710097
-710141
-710241
-710193
-710168
-710270
-710688
-710522
-710508
-710491
-710637
-710639
-710702
-710757
-710766
-710849
-710977
-710985
-711319
-711081
-711053
-711121
-711084
-711050
-711055
-711119
-711156
-711115
-711140
-711052
-711050
-710979
-710971
-710903
-710860
-710947
-710923
-710999
-711007
-710960
-711008
-710961
-710965
-710950
-711396
-711105
-711051
-711037
-711029
-711096
-711075
-711126
-711159
-711244
-711264
-711333
-711332
-711403
-711459
-711472
-711616
-711635
-711912
-711927
-711993
-712155
-712228
-712397
-712545
-712526
-712701
-712811
-712924
-713044
-713204
-713361
-713401
-713514
-713660
-713769
-713821
-713993
-714162
-714291
-714358
-714506
-714563
-714652
-714767
-714949
-715138
-715239
-715174
-715417
-715415
-715649
-715801
-715874
-716025
-716139
-716237
-716438
-716566
-716590
-716683
-716833
-716938
-717085
-717258
-717318
-717474
-717522
-717623
-717702
-717757
-718047
-718126
-718220
-718433
-718493
-718670
-718764
-718933
-719051
-719107
-719228
-719328
-719347
-719417
-719344
-719233
-719215
-718979
-718709
-718435
-718183
-717834
-717431
-716939
-716465
-716033
-715489
-714913
-714343
-713692
-713127
-712592
-711893
-711323
-710753
-710333
-709751
-709317
-708774
-708317
-707872
-707491
-707055
-706688
-706322
-706073
-705751
-705577
-705381
-705225
-704985
-704886
-704780
-704742
-704661
-704620
-704691
-704703
-704744
-704780
-704815
-704927
-704934
-705091
-705190
-705333
-705491
-705638
-705781
-705897
-706033
-706150
-706316
-706478
-706624
-706720
-706885
-707057
-707285
-707328
-707420
-707576
-707708
-707777
-707814
-707949
-708031
-708146
-708288
-708313
-708325
-708356
-708389
-708480
-708525
-708530
-708603
-708509
-708613
-708559
-708674
-708582
-708574
-708548
-708458
-708615
-708699
-708804
-708790
-708827
-708910
-709024
-709070
-709215
-709276
-709330
-709323
-709581
-709734
-709785
-709926
-710082
-710124
-710219
-710267
-710370
-710589
-710698
-710770
-710711
-710992
-711072
-711189
-711203
-711251
-711386
-711876
-711572
-711459
-711386
-711357
-711481
-711377
-711372
-711298
-711309
-711272
-711240
-711219
-711031
-710869
-710881
-710894
-710769
-710559
-710567
-710560
-710491
-710455
-710322
-710262
-710151
-710048
-709987
-709933
-709870
-709801
-709786
-709808
-710100
-709786
-709655
-709565
-709668
-709610
-709680
-709584
-709647
-709664
-709759
-709722
-709854
-709911
-709897
-710048
-710115
-710228
-710301
-710389
-710390
-710567
-710717
-710884
-710989
-711185
-711306
-711394
-711551
-711756
-711883
-712037
-712312
-712448
-712720
-712748
-712952
-713173
-713374
-713589
-713696
-713881
-714104
-714264
-714451
-714539
-714907
-715113
-715273
-715499
-715619
-715837
-716025
-716125
-716342
-716365
-716569
-716700
-716933
-717042
-717137
-717361
-717447
-717643
-717722
-717876
-718726
-718546
-718420
-718572
-718596
-718746
-718834
-718991
-719085
-719161
-719369
-719459
-719526
-719641
-719717
-719906
-719938
-720163
-720271
-720205
-720437
-720471
-720585
-720660
-720887
-720947
-721050
-721176
-721203
-721245
-721541
-721567
-721617
-721751
-721778
-721846
-721854
-722021
-722016
-722046
-722208
-722172
-722230
-722218
-722161
-722180
-722222
-722244
-722255
-722277
-722191
-722219
-722192
-722256
-722114
-722238
-722155
-722199
-722121
-722055
-722165
-722076
-722116
-722161
-721986
-722154
-722195
-722141
-722139
-722102
-722020
-722019
-721924
-721739
-721562
-721402
-721118
-720936
-720654
-720344
-720061
-719576
-719079
-718726
-718158
-717755
-717210
-716710
-716242
-715721
-715268
-714831
-714417
-713902
-713469
-713118
-712721
-712220
-711868
-711466
-711177
-710772
-710391
-710098
-709854
-709688
-709547
-709449
-709152
-709027
-709037
-708985
-708970
-709015
-708915
-708954
-709049
-709125
-709205
-709119
-709302
-709375
-709314
-709590
-709648
-709743
-709882
-709971
-710061
-710148
-710128
-710352
-710472
-710570
-710706
-710831
-710895
-710951
-711040
-711089
-711159
-711290
-711393
-711377
-711533
-711652
-711602
-711638
-711769
-711794
-711923
-711901
-711985
-712053
-712036
-712167
-712192
-712345
-712445
-712564
-712744
-712800
-712908
-713030
-713223
-713443
-713525
-713784
-713973
-714154
-714297
-714487
-714744
-714995
-715109
-715404
-715647
-715731
-715806
-715864
-715918
-716007
-716169
-716178
-716158
-716405
-716466
-716548
-716604
-716556
-716657
-716669
-716755
-716551
-716681
-716812
-716793
-716842
-716936
-716892
-716995
-716959
-717021
-716992
-717022
-717019
-717045
-717105
-717151
-717131
-717199
-717086
-717065
-717013
-717020
-716926
-716939
-716994
-716883
-716785
-716764
-716863
-716771
-716772
-716654
-716786
-716648
-716714
-717073
-716813
-716725
-716717
-716718
-716707
-716733
-716816
-716834
-716891
-717096
-716919
-717031
-717042
-717198
-717326
-717339
-717351
-717488
-717549
-717629
-717722
-717780
-717897
-718075
-718162
-718221
-718349
-718461
-718648
-718734
-718759
-718873
-718984
-719130
-719315
-719467
-719515
-719684
-719845
-719872
-719944
-720086
-720253
-720419
-720546
-720734
-720836
-720882
-721092
-721146
-721258
-721455
-721659
-721768
-721984
-722028
-722165
-722113
-722410
-722588
-722807
-722998
-723091
-723211
-723441
-723623
-723758
-723930
-724026
-724178
-724341
-724599
-724753
-724810
-724965
-725106
-725275
-725357
-725580
-725672
-725851
-726020
-726073
-726269
-726254
-726319
-726557
-726621
-726821
-726886
-726987
-727111
-727182
-727362
-727505
-727632
-727783
-727915
-728027
-728150
-728167
-728253
-728896
-728667
-728680
-728780
-728830
-728839
-728998
-729086
-729169
-729294
-729332
-729372
-729432
-729461
-729585
-729726
-729740
-729784
-729861
-729995
-730085
-730084
-730194
-730163
-730352
-730297
-730919
-730680
-730587
-730490
-730541
-730493
-730487
-730292
-730293
-730073
-729858
-729680
-729388
-729022
-728620
-728215
-727939
-727301
-726807
-726368
-725830
-725227
-724670
-724236
-723588
-723032
-722505
-721953
-721488
-720909
-720449
-719956
-719482
-719101
-718656
-718416
-718098
-717595
-717384
-717109
-716815
-716481
-716296
-716189
-716103
-715972
-715779
-715653
-715692
-715648
-715535
-715536
-715501
-715581
-715571
-715632
-715718
-715790
-715939
-716072
-716083
-716260
-716463
-716581
-716731
-716904
-717020
-717210
-717427
-717625
-717782
-718049
-718228
-718477
-718641
-718863
-719086
-719296
-719528
-719755
-719887
-720145
-720361
-720510
-720639
-720894
-721017
-721665
-721535
-721605
-721714
-721881
-721960
-722238
-722323
-722403
-722605
-722737
-722875
-722972
-723229
-723280
-723381
-723532
-723729
-723804
-723998
-724051
-724098
-724310
-724485
-724528
-724658
-724740
-724841
-724996
-725094
-725202
-725235
-725395
-725424
-725563
-725570
-725612
-725689
-725810
-725651
-725795
-725821
-725895
-726016
-726020
-725977
-726031
-726114
-726155
-726167
-726150
-726223
-726249
-726200
-726269
-726300
-726331
-726277
-726227
-726270
-726276
-726275
-726065
-726206
-726275
-726205
-726335
-726265
-726263
-726382
-726348
-726351
-726419
-726422
-726393
-726377
-726460
-726557
-726597
-726541
-726569
-726687
-726637
-726678
-726743
-726755
-726751
-726819
-727279
-727027
-727017
-726976
-727038
-727181
-727175
-727266
-727277
-727360
-727490
-727439
-727546
-727610
-727623
-727854
-727890
-727903
-728019
-728264
-728357
-728267
-728479
-729007
-728855
-728791
-728968
-729090
-729209
-729340
-729404
-729551
-729623
-729778
-729803
-729866
-729992
-730183
-730290
-730331
-730346
-730515
-730608
-730702
-730909
-730996
-731063
-731231
-731254
-731312
-731452
-731580
-731727
-731832
-731823
-731892
-732002
-732712
-732364
-732296
-732462
-732480
-732626
-732606
-732672
-732690
-732842
-732994
-733122
-733110
-733253
-733144
-733466
-733537
-733548
-733639
-733692
-733764
-733956
-734046
-734221
-734263
-734494
-734636
-734629
-734766
-734868
-735049
-735227
-734981
-735281
-735438
-735621
-735450
-735635
-735901
-735971
-736106
-736242
-736379
-736446
-736538
-736582
-736673
-736760
-736900
-736998
-737021
-737193
-737159
-737893
-737581
-737548
-737524
-737512
-737364
-737322
-737245
-737024
-736759
-736669
-736296
-735891
-735543
-735036
-734690
-734148
-733718
-733181
-732540
-732037
-731565
-731072
-730424
-729811
-729361
-728955
-728406
-728015
-727433
-727138
-726659
-726284
-725932
-725569
-725280
-725046
-724886
-724594
-724373
-724249
-724178
-724018
-723865
-723828
-723829
-723840
-723749
-723754
-723744
-723900
-723901
-723965
-724231
-724310
-724443
-724499
-724710
-724821
-724953
-725131
-725261
-725354
-725617
-725699
-725781
-725968
-726184
-726295
-726352
-726563
-726721
-726839
-726882
-726954
-727130
-727228
-727324
-727401
-727433
-727621
-727695
-727769
-727842
-727860
-727959
-728079
-728184
-728246
-728217
-728275
-728338
-728386
-728500
-728454
-728457
-728541
-728591
-728703
-728646
-728662
-728729
-728811
-728741
-728720
-728793
-728715
-728706
-728696
-728669
-728615
-728630
-728604
-728597
-728511
-728576
-728509
-728442
-728509
-728425
-728309
-728225
-728129
-728079
-728036
-727960
-727896
-727935
-727761
-727757
-727606
-727594
-727600
-727529
-727479
-727377
-727415
-727385
-727368
-727296
-727385
-727430
-727455
-727420
-727262
-727362
-727446
-727491
-727557
-727628
-727613
-727689
-727756
-727831
-727950
-728012
-728036
-728188
-728317
-728359
-728534
-728615
-728765
-728957
-729146
-729297
-729377
-729637
-729722
-729854
-730124
-730182
-730435
-730756
-730989
-731189
-731321
-731580
-731781
-732001
-732180
-732467
-732658
-732871
-733022
-733293
-733502
-733651
-733889
-734023
-734285
-734431
-734623
-734917
-734912
-735162
-735065
-735355
-735532
-735702
-735925
-736034
-736169
-736175
-736246
-736466
-736529
-736657
-736854
-736878
-737001
-737066
-737105
-737254
-737276
-737367
-737461
-737531
-737657
-737707
-737839
-737967
-738063
-738137
-738142
-738226
-738400
-738474
-738548
-738597
-738697
-738716
-738902
-738965
-738997
-739101
-739193
-739184
-739383
-739446
-739553
-739565
-739684
-739809
-739805
-739903
-740022
-740076
-740172
-740132
-740310
-740344
-740427
-740513
-740566
-740624
-740636
-740664
-740721
-740877
-740951
-741026
-741082
-741095
-741045
-741191
-741294
-741322
-741359
-741408
-741385
-741351
-741423
-741554
-741471
-741454
-741425
-741314
-741216
-741145
-740948
-740616
-740337
-739924
-739577
-739266
-738713
-738283
-737819
-737253
-736512
-735998
-735417
-734706
-734167
-733485
-732861
-732370
-731815
-731137
-730600
-730123
-729611
-729131
-728583
-728172
-727824
-727378
-727053
-726704
-726360
-726034
-725924
-725661
-725344
-725053
-725065
-724874
-724837
-724752
-724601
-724579
-724580
-724539
-724497
-724511
-724393
-724537
-724553
-724554
-724630
-724645
-724832
-724877
-724942
-724902
-725210
-725268
-725384
-725557
-725784
-726005
-726124
-726262
-726416
-726638
-726896
-727090
-727025
-727347
-727528
-727745
-727937
-728043
-728203
-728401
-728554
-728816
-728861
-729106
-729213
-729351
-729588
-729663
-729921
-730016
-730271
-730445
-730433
-730549
-730831
-730991
-731056
-731117
-731357
-731563
-731614
-731725
-731910
-732036
-732120
-732354
-732451
-732386
-732564
-732692
-732685
-732841
-732848
-733025
-732938
-733028
-733138
-733183
-733175
-733167
-733213
-733282
-733165
-733279
-733267
-733300
-733323
-733309
-733344
-733437
-733456
-733448
-733506
-733578
-733522
-733581
-733544
-733507
-733934
-733711
-733592
-733585
-733494
-733482
-733574
-733630
-733548
-733510
-733497
-733516
-733640
-733542
-733513
-733438
-733509
-733590
-733465
-733528
-733554
-733527
-733426
-733474
-733363
-733355
-733412
-733360
-733293
-733229
-733302
-733286
-733255
-733268
-733318
-733181
-733206
-733148
-733147
-733074
-733137
-733099
-733183
-733096
-733121
-733062
-733095
-733133
-733073
-733115
-733153
-733253
-733221
-733187
-733278
-733360
-733461
-733449
-733468
-733542
-733761
-733831
-733904
-733941
-734136
-734306
-734560
-734702
-734811
-735035
-735255
-735402
-735653
-735876
-736005
-736156
-736311
-736522
-736715
-736992
-737172
-737345
-737464
-737612
-737760
-738087
-738257
-738278
-738471
-738677
-738804
-738883
-738996
-739070
-739194
-739492
-739520
-739599
-739731
-739891
-739905
-739903
-740028
-740045
-740118
-740313
-740356
-740297
-740327
-740486
-740597
-740547
-740608
-740566
-740734
-740704
-740652
-740713
-740673
-740768
-740837
-740840
-740876
-740796
-740895
-740870
-740845
-740898
-740844
-740895
-740686
-740653
-740553
-740368
-740291
-740017
-739715
-739441
-739025
-738590
-738131
-737569
-737162
-736534
-735894
-735360
-734755
-734055
-733355
-732795
-732142
-731560
-730946
-730284
-729788
-729269
-728716
-728123
-727603
-727181
-726687
-726834
-726128
-725658
-725280
-724927
-724607
-724423
-724125
-723967
-723868
-723658
-723521
-723375
-723362
-723221
-723258
-723156
-723219
-723217
-723155
-723212
-723302
-723409
-723452
-723604
-723667
-723820
-723888
-723975
-724160
-724366
-724495
-724663
-724816
-725004
-725042
-725129
-725316
-725574
-725656
-725748
-725988
-726027
-726071
-726209
-726405
-726446
-726394
-726529
-726705
-726803
-726632
-726846
-726927
-727002
-727043
-727142
-727193
-727218
-727313
-727415
-727385
-727481
-727555
-727619
-727567
-727617
-727685
-727837
-727839
-727980
-728000
-728091
-728199
-728280
-728293
-728408
-728523
-728675
-728784
-728903
-728847
-728870
-729026
-729078
-729140
-729141
-729230
-729212
-729234
-729264
-729311
-729236
-729254
-729304
-729384
-729413
-729340
-729353
-729417
-729375
-729413
-729442
-729490
-729484
-729926
-729587
-729330
-729379
-729215
-729159
-729149
-729050
-729035
-729097
-729159
-729173
-729194
-729151
-729091
-729070
-729136
-729160
-729145
-729230
-729263
-729297
-729260
-729309
-729348
-729415
-729458
-729488
-729584
-729640
-729673
-729748
-729840
-729988
-730057
-730159
-730230
-730315
-730467
-730507
-730651
-730770
-730804
-730924
-731113
-731239
-731251
-731455
-731494
-731583
-731794
-731833
-731996
-732117
-732258
-732471
-732516
-732772
-732897
-733027
-733153
-733260
-733523
-733662
-733776
-733990
-734102
-734293
-734537
-734736
-734953
-735030
-735232
-735398
-735603
-735894
-736023
-736274
-736505
-736654
-736876
-737063
-737222
-737359
-737607
-737670
-737769
-738047
-738240
-738331
-738430
-738614
-738789
-738888
-738910
-739166
-739137
-739313
-739488
-739688
-739872
-739894
-740031
-740215
-740270
-740470
-740537
-740652
-740883
-740985
-740993
-741134
-741196
-741312
-741427
-741444
-741573
-741599
-741742
-741847
-741895
-741908
-741873
-741997
-742037
-742159
-742040
-742138
-742151
-742230
-742295
-742221
-742283
-742340
-742406
-742418
-742378
-742275
-742202
-742020
-741912
-741619
-741374
-741060
-740762
-740248
-739729
-739286
-738757
-738207
-737554
-736930
-736277
-735645
-735030
-734411
-733729
-733231
-732617
-731893
-731353
-730730
-730260
-729725
-729258
-728839
-728314
-727875
-727295
-727039
-726728
-726397
-726087
-725832
-725584
-725476
-725269
-725058
-724946
-724910
-724701
-724654
-724570
-724501
-724531
-724555
-724559
-724576
-724633
-724704
-724738
-724900
-724955
-725027
-725165
-725237
-725321
-725403
-725524
-725594
-725823
-725838
-726017
-726181
-726228
-726292
-726395
-726545
-726651
-726852
-726937
-727079
-727148
-727246
-727385
-727511
-727510
-727653
-727691
-727757
-727900
-727963
-728056
-728115
-728195
-728298
-728428
-728472
-728566
-728623
-728827
-728795
-728881
-728948
-729044
-729076
-729118
-729348
-729417
-729542
-729711
-729657
-729896
-729953
-730139
-730260
-730371
-730496
-730595
-730678
-730757
-730844
-731026
-731014
-731205
-731378
-731412
-731487
-731610
-731591
-731680
-731770
-731818
-731790
-731875
-731962
-732042
-732168
-732104
-732177
-732104
-732117
-732295
-732300
-732326
-732359
-732325
-732390
-732418
-732367
-732381
-732379
-732442
-732331
-732343
-732378
-732324
-732461
-732344
-732455
-732397
-732455
-732555
-732584
-732634
-732630
-732648
-732687
-732690
-732693
-732862
-732847
-732888
-732936
-732917
-732977
-732996
-732973
-733149
-733185
-733171
-733153
-733240
-733321
-733364
-733389
-733448
-733570
-733695
-733685
-733735
-733856
-733910
-733987
-734048
-734228
-734279
-734456
-734350
-734558
-734485
-734606
-734699
-734813
-734960
-735025
-735090
-735179
-735357
-735419
-735555
-735634
-735748
-735939
-736029
-736086
-736216
-736293
-736466
-736614
-736640
-736772
-736946
-737006
-737144
-737272
-737296
-737385
-737490
-737685
-737767
-737903
-737990
-738095
-738210
-738360
-738488
-738612
-738726
-738760
-738855
-738913
-739103
-739150
-739182
-739238
-739340
-739483
-739613
-739738
-739628
-739758
-739857
-739872
-739973
-740091
-740126
-740191
-740227
-740270
-740285
-740452
-740542
-740535
-740572
-740585
-740793
-740758
-740861
-740939
-740848
-740925
-740996
-741058
-741184
-741060
-741183
-741204
-741088
-740990
-740915
-740726
-740622
-740349
-740098
-739640
-739274
-738728
-738211
-737784
-737083
-736435
-735850
-735292
-734622
-733826
-733088
-732340
-731744
-731013
-730328
-729661
-729121
-728495
-727963
-727255
-726716
-726221
-725751
-725350
-724823
-724498
-724161
-723705
-723344
-723035
-722806
-722631
-722519
-722325
-722025
-721909
-721881
-721688
-721658
-721517
-721542
-721567
-721585
-721578
-721517
-721689
-721730
-721728
-721808
-721861
-721967
-722073
-722195
-722234
-722341
-722525
-722676
-722760
-722796
-722943
-723087
-723246
-723291
-723404
-723527
-723688
-723784
-723933
-723947
-724040
-724156
-724266
-724408
-724501
-724484
-724614
-724648
-724784
-724924
-724923
-725030
-725141
-725130
-725375
-725371
-725499
-725582
-725663
-725753
-725681
-725842
-726051
-726090
-726174
-726239
-726424
-726625
-726718
-726782
-726917
-727048
-727174
-727259
-727313
-727392
-727483
-727542
-727628
-727755
-727796
-727840
-727993
-728071
-728094
-728041
-728111
-728274
-728265
-728204
-728138
-728200
-728309
-728337
-728305
-728286
-728377
-728322
-728288
-728271
-728229
-728237
-728139
-728133
-728125
-728098
-728114
-728091
-728066
-728103
-728110
-728095
-728128
-728014
-728064
-727985
-727948
-727947
-727990
-728014
-727956
-727961
-728025
-728073
-728091
-728044
-728116
-728081
-728151
-728184
-728201
-728305
-728236
-728304
-728403
-728348
-728524
-728582
-728633
-728762
-728775
-728898
-728964
-728967
-729123
-729227
-729326
-729354
-729512
-729633
-729704
-729789
-729794
-729834
-730075
-730136
-730276
-730300
-730390
-730457
-730596
-730671
-730944
-730962
-730952
-731045
-731187
-731384
-731504
-731682
-731736
-731904
-731930
-732023
-732071
-732187
-732308
-732472
-732535
-732607
-732609
-732789
-732861
-732916
-733058
-733171
-733234
-733402
-733505
-733528
-733540
-733744
-733829
-733836
-733989
-734106
-734217
-734376
-734474
-734475
-734521
-734645
-734728
-734905
-735026
-735154
-735252
-735313
-735404
-735621
-735634
-735739
-735807
-735918
-736086
-736081
-736196
-736283
-736448
-736532
-736511
-736633
-736837
-736921
-737090
-737059
-737136
-737186
-737378
-737370
-737326
-737509
-737505
-737565
-737672
-737831
-737821
-737843
-738000
-737978
-737890
-737923
-737984
-737853
-738138
-737670
-737370
-736958
-736601
-736277
-735781
-735230
-734629
-734115
-733491
-732879
-732218
-731585
-730972
-730251
-729425
-728769
-728152
-727403
-726728
-726136
-725454
-724820
-724341
-723854
-723229
-722685
-722215
-721781
-721375
-721130
-720694
-720522
-720076
-719943
-719628
-719465
-719269
-719125
-719008
-718858
-718776
-718634
-718601
-718485
-718428
-718450
-718446
-718481
-718413
-718528
-718525
-718566
-718674
-718822
-718809
-718880
-719036
-719180
-719378
-719445
-719493
-719560
-719769
-719809
-719954
-720116
-720272
-720429
-720523
-720576
-720794
-720880
-720917
-721005
-721069
-721216
-721276
-721371
-721439
-721394
-721613
-721726
-721752
-721816
-721873
-721955
-722106
-722153
-722149
-722183
-722311
-722437
-722470
-722585
-722572
-722826
-722840
-722983
-723103
-723136
-723324
-723508
-723560
-723748
-723808
-723933
-724000
-724241
-724338
-724377
-724539
-724557
-724634
-724595
-724833
-724936
-725047
-725169
-725259
-725288
-725273
-725304
-725420
-725510
-725406
-725421
-725557
-725609
-725300
-725463
-725531
-725554
-725604
-725447
-725510
-725590
-725557
-725583
-725556
-725502
-725427
-725440
-725358
-725466
-725344
-725375
-725404
-725408
-725403
-725387
-725322
-725339
-725330
-725276
-725272
-725362
-725265
-725356
-725144
-725304
-725347
-725356
-725887
-725548
-725510
-725478
-725494
-725486
-725653
-725626
-725757
-725891
-725878
-725931
-725992
-725955
-726101
-726176
-726323
-726203
-726355
-726418
-726555
-726589
-726609
-726764
-726852
-726837
-726873
-727002
-727169
-727788
-727588
-727542
-727516
-727638
-727793
-727954
-728027
-728008
-728198
-728276
-728400
-728471
-728527
-728692
-728649
-728801
-728937
-728957
-729135
-729220
-729280
-729379
-729414
-729533
-729602
-729759
-729841
-729938
-730009
-730040
-730236
-730253
-730302
-730340
-730490
-730576
-730646
-730681
-730754
-730910
-730895
-731016
-731036
-731224
-731354
-731471
-731540
-731568
-731692
-731807
-732190
-732104
-731957
-732151
-732322
-732358
-732363
-732479
-732469
-732710
-732779
-732829
-732906
-733043
-733162
-733258
-733357
-733424
-733513
-733651
-733794
-733847
-733849
-733920
-734129
-734124
-734305
-734389
-734441
-734517
-734484
-734653
-734586
-734577
-734501
-734564
-734516
-734294
-734106
-733914
-733559
-733219
-732763
-732312
-731723
-731190
-730608
-729990
-729299
-728596
-727804
-727791
-726492
-725730
-724930
-724210
-723481
-722756
-722103
-721368
-720795
-720068
-719413
-718861
-718414
-718013
-717559
-717102
-716417
-716184
-715909
-715552
-715288
-715005
-714567
-714392
-714249
-714072
-713991
-713952
-713787
-713796
-713662
-713704
-713709
-713650
-713558
-713541
-713636
-713646
-713773
-713885
-714427
-714090
-714071
-714238
-714313
-714401
-714486
-714609
-714744
-714844
-714959
-715028
-715200
-715334
-715503
-715524
-715717
-715861
-715858
-716049
-716044
-716123
-716314
-716443
-716541
-716595
-716715
-716791
-716868
-716889
-716980
-717010
-716984
-717063
-717267
-717309
-717380
-717555
-717496
-717587
-717722
-717702
-717890
-718011
-718050
-718146
-718273
-718366
-718504
-718527
-718653
-718738
-718830
-718969
-719045
-719226
-719308
-719468
-719487
-719619
-719686
-719719
-719828
-719891
-719983
-720021
-720067
-720093
-720192
-720076
-720127
-720191
-720248
-720366
-720396
-720368
-720383
-720516
-720378
-720402
-720529
-720533
-720484
-720587
-720535
-720510
-720433
-720454
-720474
-720435
-720485
-720436
-720324
-720374
-720441
-720416
-720429
-720414
-720491
-720484
-720389
-720462
-720501
-720511
-720466
-720521
-720606
-720528
-720555
-720664
-720594
-720754
-720587
-720785
-720789
-720781
-720928
-720870
-720898
-721029
-721096
-721081
-721071
-721165
-721274
-721386
-721336
-721441
-721533
-721574
-721692
-721690
-721733
-721779
-721985
-722008
-722108
-722072
-722239
-722327
-722347
-722495
-722546
-722701
-722803
-722832
-722952
-722936
-722986
-723082
-723220
-723331
-723460
-723584
-723630
-723768
-723877
-723864
-724038
-724227
-724184
-724275
-724368
-724492
-724544
-724707
-724854
-724851
-725049
-725127
-725195
-725242
-725258
-725437
-725602
-725728
-725857
-725844
-725942
-726009
-726087
-726311
-726374
-726558
-726651
-726814
-726747
-726927
-727116
-727194
-727400
-727443
-727511
-727633
-727788
-727976
-728092
-728126
-728330
-728394
-728400
-728595
-728587
-728825
-728948
-728963
-729106
-729129
-729265
-729297
-729367
-729559
-729546
-729711
-729729
-729905
-729889
-729993
-730003
-730122
-730140
-730135
-730110
-730042
-730031
-729911
-729844
-729529
-729332
-728984
-728593
-728205
-727730
-727228
-726659
-726002
-725410
-724690
-724124
-723337
-722692
-722005
-721231
-720562
-719907
-719296
-718664
-717961
-717297
-716628
-716025
-715475
-714961
-714547
-714086
-713598
-713236
-712821
-712435
-712143
-711832
-711615
-711322
-711128
-710940
-710770
-710603
-710377
-710331
-710198
-710074
-710109
-710032
-710094
-710038
-710108
-710122
-710102
-710121
-710231
-710284
-710442
-710475
-710490
-710674
-710809
-710906
-711038
-711062
-711307
-711432
-711487
-711445
-711703
-711943
-712039
-712210
-712134
-712337
-712451
-712543
-712694
-712769
-712933
-713165
-713169
-713346
-713353
-713407
-713515
-713671
-713647
-713722
-713852
-713952
-714106
-714122
-714160
-714306
-714379
-714571
-714409
-714704
-714834
-715006
-715107
-715250
-715363
-715432
-715641
-715824
-715952
-716034
-716170
-716238
-716421
-716662
-716701
-716881
-716991
-717051
-717123
-717219
-717296
-717418
-717533
-717587
-717618
-717655
-717718
-717795
-717789
-717847
-717912
-717915
-717928
-717985
-717998
-718004
-718022
-717993
-718042
-718095
-718083
-718005
-717987
-718093
-718048
-717998
-717981
-717942
-718003
-717962
-718084
-718098
-718034
-717985
-718135
-718071
-718082
-718080
-717904
-718126
-718160
-718238
-718338
-718263
-718380
-718451
-718481
-718539
-718558
-718592
-718724
-719249
-719085
-718887
-718914
-718946
-719135
-719134
-719195
-719329
-719373
-719402
-719535
-719601
-719675
-719722
-719875
-719954
-719965
-720038
-720198
-720187
-720280
-720274
-720477
-720560
-720624
-720802
-720759
-720805
-720976
-721134
-721202
-721268
-721320
-721454
-721444
-721649
-721751
-721777
-721886
-721999
-722005
-722171
-722332
-722387
-722481
-722564
-722656
-722838
-722871
-722918
-723195
-723226
-723217
-723410
-723540
-723678
-723713
-723802
-723953
-723989
-724084
-724205
-724364
-724441
-724581
-724682
-724552
-724867
-725081
-725062
-725239
-725355
-725466
-725732
-725754
-725930
-726071
-726139
-726263
-726379
-726564
-726684
-726733
-726931
-726919
-727166
-727264
-727438
-727516
-727626
-727819
-727863
-728044
-727979
-728195
-728321
-728366
-728480
-728570
-728581
-728810
-728829
-728944
-728970
-729091
-729226
-729221
-729313
-729204
-729191
-729102
-728895
-728809
-728497
-728194
-727932
-727422
-726931
-726545
-725827
-725242
-724557
-723952
-723248
-722560
-721878
-721148
-720410
-719623
-718904
-718248
-717576
-716962
-716222
-715638
-714991
-714394
-713880
-713551
-712890
-712462
-712049
-711630
-711380
-710998
-710680
-710342
-710195
-710021
-709788
-709588
-709488
-709332
-709309
-709288
-709290
-709186
-709162
-709108
-709130
-709276
-709195
-709337
-709453
-709518
-709592
-709724
-709761
-709888
-710111
-710149
-710389
-710466
-710602
-710778
-710909
-711109
-711286
-711435
-711516
-711672
-711823
-711968
-712097
-712264
-712272
-712441
-712523
-712638
-712809
-712875
-712941
-713082
-713212
-713372
-713474
-713469
-713599
-713583
-713756
-713771
-713776
-713887
-713939
-713953
-714187
-714227
-714270
-714341
-714454
-714595
-714597
-714752
-714831
-715018
-715183
-715257
-715434
-715478
-715592
-715735
-715777
-715932
-716110
-716177
-716319
-716261
-716471
-716601
-716712
-716835
-716908
-716885
-717087
-717145
-717332
-717326
-717369
-717459
-717315
-717375
-717525
-717587
-717604
-717617
-717631
-717662
-717721
-717655
-717703
-717730
-717758
-717739
-717782
-717771
-718238
-717915
-717863
-717794
-717755
-717788
-717641
-717754
-717683
-717766
-717700
-717732
-717637
-717650
-717660
-717646
-717633
-717708
-717696
-717743
-717736
-717667
-717704
-717753
-717774
-717816
-717848
-717898
-717970
-718001
-717932
-718019
-718118
-718248
-718234
-718232
-718368
-718363
-718362
-718436
-718623
-718557
-718726
-718779
-718913
-718959
-718965
-719188
-719294
-719424
-719505
-719478
-719638
-719701
-719812
-720028
-719986
-720168
-720228
-720353
-720492
-720581
-720726
-720799
-720935
-721023
-721110
-721334
-721369
-721420
-721638
-721763
-721756
-721880
-721980
-722156
-722230
-722360
-722448
-722663
-722767
-722843
-722946
-723041
-723198
-723274
-723462
-723495
-723654
-723764
-723862
-723927
-724145
-724232
-724401
-724518
-724557
-724710
-724776
-724821
-724972
-725051
-725203
-725299
-725500
-725661
-725686
-725869
-725899
-726023
-726310
-726246
-726352
-726487
-726720
-726791
-726829
-726987
-727136
-727281
-727268
-727336
-727547
-727587
-727745
-727786
-727880
-727984
-728037
-728210
-728273
-728232
-728351
-728317
-728307
-728083
-728015
-727572
-727375
-727153
-726732
-726345
-725884
-725312
-724788
-724210
-723550
-722865
-722166
-721501
-720807
-719974
-719256
-718602
-717880
-717145
-716442
-715812
-715164
-714489
-713851
-713354
-712858
-712292
-711695
-711262
-710971
-710533
-710162
-709838
-709437
-709138
-708965
-708796
-708609
-708384
-708202
-708124
-707970
-707966
-707880
-707872
-707894
-707806
-707844
-707757
-707766
-707863
-707878
-708002
-708051
-708188
-708279
-708317
-708482
-708524
-708610
-708840
-708895
-709026
-709151
-709239
-709371
-709604
-709652
-709839
-709970
-710076
-710237
-710365
-710425
-710576
-710637
-710790
-710897
-710903
-710967
-711079
-711233
-711303
-711332
-711457
-711549
-711600
-711720
-711806
-711924
-711956
-712080
-712160
-712183
-712340
-712252
-712532
-712664
-712711
-712816
-712961
-713136
-713303
-713419
-713563
-713600
-713754
-713877
-713933
-714174
-714312
-714329
-714507
-714619
-714734
-714827
-714926
-714987
-715035
-715152
-715199
-715230
-715332
-715354
-715441
-715534
-715506
-715637
-715625
-715747
-715790
-715785
-715786
-715763
-715731
-715793
-715891
-715838
-715725
-715734
-715793
-715833
-715880
-715731
-715838
-715849
-715861
-715901
-715759
-715841
-715912
-715932
-715899
-715894
-715884
-715880
-715953
-716040
-715932
-715980
-716117
-716051
-716071
-716108
-716152
-716090
-716128
-716255
-716195
-716279
-716337
-716473
-716428
-716496
-716580
-716664
-716795
-716889
-716881
-716955
-717083
-717125
-717197
-717264
-717257
-717404
-717432
-717597
-717707
-717690
-717727
-717881
-717981
-718013
-718211
-718263
-718420
-718537
-718511
-718686
-718767
-718945
-719532
-719212
-719188
-719330
-719261
-719384
-719530
-719778
-719854
-719880
-720105
-720123
-720191
-720331
-720350
-720494
-720586
-720732
-720883
-720982
-721007
-721468
-721485
-721472
-721430
-721544
-721705
-721792
-721971
-721958
-722090
-722210
-722371
-722441
-722727
-722804
-722907
-722983
-723123
-723249
-723313
-723408
-723478
-723693
-723771
-723855
-724006
-724189
-724253
-724368
-724581
-724666
-724776
-724879
-724939
-725376
-725281
-725784
-725620
-725658
-725699
-725737
-725904
-726004
-726112
-726181
-726352
-726491
-726590
-726645
-726731
-726791
-726968
-727096
-727097
-727261
-727225
-727325
-727193
-727139
-727165
-726941
-726728
-726472
-726099
-725641
-725162
-724642
-724078
-723628
-722815
-722123
-721505
-720862
-720221
-719406
-718691
-718016
-717223
-716565
-715652
-715104
-714462
-713891
-713292
-712693
-712160
-711681
-711137
-710770
-710300
-709894
-709422
-709180
-708871
-708678
-708338
-708179
-707940
-707776
-707542
-707398
-707339
-707270
-707182
-707136
-707041
-707057
-707176
-707105
-707143
-707189
-707267
-707308
-707531
-707505
-707589
-707677
-707803
-707850
-708011
-708086
-708236
-708386
-708520
-708599
-708614
-708776
-708833
-709006
-709703
-709315
-709441
-709538
-710125
-709846
-709734
-709920
-710053
-710056
-710168
-710278
-710451
-710456
-710567
-710614
-710742
-710875
-710972
-711052
-710861
-711098
