PPG
-695647
-695775
-695771
-695783
-695801
-695795
-695828
-695887
-695872
-695964
-695825
-695977
-695947
-696074
-696151
-695966
-696065
-696108
-696212
-696160
-696152
-696233
-696243
-696321
-696300
-696317
-696485
-696494
-696548
-696572
-696416
-696595
-696688
-696816
-696778
-696681
-696755
-696803
-696752
-696947
-696824
-696983
-696984
-697024
-697136
-696947
-697051
-697132
-697166
-697300
-697170
-697269
-697246
-697354
-697427
-697263
-697355
-697413
-697414
-697515
-697319
-697340
-697205
-697197
-697103
-696913
-696791
-696619
-696429
-696145
-695647
-695303
-694989
-694502
-694107
-693459
-692968
-692483
-691972
-691451
-690835
-690335
-689839
-689247
-688797
-688103
-687673
-687220
-686708
-686289
-685720
-685294
-685040
-684616
-684232
-683804
-683555
-683298
-683123
-682905
-682581
-682409
-682342
-682227
-682215
-682029
-681991
-682079
-682152
-682211
-681996
-682224
-682381
-682546
-682587
-682542
-682797
-683078
-683209
-683414
-683424
-683740
-684003
-684314
-684485
-684737
-685016
-685271
-685470
-685783
-685946
-686194
-686586
-686853
-687056
-687193
-687458
-687717
-688005
-688332
-689566
-689797
-690025
-690195
-690480
-690482
-690709
-690939
-691259
-691419
-691455
-691592
-691792
-691946
-692112
-692229
-692360
-692495
-692602
-692402
-692138
-691966
-692090
-692182
-692347
-692454
-692488
-692656
-692823
-693042
-693091
-693115
-693359
-693642
-693774
-693948
-693979
-694155
-694304
-694548
-694506
-694331
-694285
-694295
-694339
-694477
-694398
-694680
-694878
-695004
-695021
-695002
-695231
-695443
-695523
-695553
-695557
-695769
-695896
-696020
-696060
-695993
-696165
-696225
-696244
-696222
-696167
-696307
-696569
-696432
-696373
-696239
-696443
-696432
-696388
-696372
-696274
-696482
-696303
-696372
-696303
-696206
-696231
-696266
-696227
-696190
-696076
-696119
-696040
-695970
-695888
-695754
-695825
-695873
-695851
-695727
-695492
-695559
-695610
-695413
-695520
-695290
-695390
-695371
-695409
-695382
-695325
-695420
-695397
-695323
-695333
-695185
-695315
-695352
-695373
-695436
-695320
-695465
-695558
-695527
-695546
-695453
-695606
-695677
-695806
-695797
-695749
-695898
-695913
-695983
-696035
-695940
-696137
-696190
-696334
-696236
-696429
-696448
-696489
-696621
-696458
-696534
-696731
-696810
-696815
-696767
-696957
-697099
-697159
-697269
-697246
-697368
-697488
-697361
-697642
-697598
-697870
-697895
-698017
-698087
-698024
-698158
-698263
-698379
-698539
-698423
-698638
-698656
-698735
-698868
-698882
-699084
-699155
-699309
-699392
-699229
-699452
-699512
-699584
-699660
-699613
-699867
-699863
-699993
-700134
-700054
-700220
-700333
-700394
-700508
-700439
-700562
-700588
-700747
-700876
-700739
-700972
-701041
-701105
-701201
-701150
-701291
-701395
-701440
-701416
-701400
-701531
-701583
-701646
-701798
-701685
-701856
-701946
-701997
-702104
-702007
-702107
-702218
-702187
-702330
-702151
-702415
-702421
-702416
-702461
-702394
-702631
-702645
-702726
-702791
-702653
-702722
-702795
-702644
-702852
-702881
-702995
-703037
-703119
-703137
-702913
-703035
-703067
-703094
-703160
-703080
-703240
-703282
-703235
-703287
-703140
-703276
-703439
-703403
-703371
-703267
-703486
-703598
-703838
-703774
-703875
-703921
-703968
-704020
-703901
-704149
-704059
-704103
-704218
-703998
-704156
-704043
-704176
-704221
-704053
-704092
-704141
-704080
-704115
-703964
-704022
-704058
-704112
-704174
-704099
-704118
-704057
-704063
-704197
-704042
-704081
-704119
-704135
-704131
-704042
-703922
-704138
-704161
-704179
-704084
-704213
-704171
-704235
-704276
-704056
-704200
-704241
-704240
-704320
-704201
-704355
-704328
-704342
-704408
-704281
-704410
-704398
-704404
-704425
-704247
-704342
-704325
-704194
-704178
-704033
-703975
-703766
-703616
-703371
-702875
-702572
-702178
-701775
-701309
-700648
-700176
-699667
-699184
-698682
-697894
-697402
-696768
-696199
-695687
-694978
-694382
-693848
-693288
-692861
-692151
-691785
-691367
-690954
-691275
-690388
-689892
-689610
-689246
-688949
-688718
-688588
-688400
-688257
-688243
-688038
-687956
-688048
-688042
-688011
-687931
-687986
-688091
-688148
-688192
-688204
-688252
-688418
-688542
-688757
-688844
-688944
-689235
-689350
-689541
-689645
-689777
-690063
-690200
-690452
-690499
-690753
-690883
-691174
-691505
-691659
-691829
-692073
-692397
-692391
-692556
-692761
-693162
-693364
-693506
-693608
-693727
-693888
-694173
-694451
-694477
-694636
-694868
-694967
-695196
-695189
-695365
-695567
-695648
-695761
-695728
-695869
-695973
-696120
-696259
-696242
-696259
-696732
-696692
-696703
-696636
-696574
-696733
-696928
-696998
-697007
-696934
-697111
-697101
-697229
-697203
-697268
-697356
-697463
-697546
-697484
-697594
-697806
-697888
-697929
-697747
-697814
-698088
-698165
-698273
-698253
-698318
-698443
-698492
-698564
-698581
-698545
-698730
-698775
-698868
-698900
-698867
-699016
-699092
-699130
-698973
-699128
-699224
-699338
-699308
-699223
-699232
-699326
-699400
-699309
-699183
-699315
-699278
-699415
-699337
-699142
-699244
-699206
-699119
-699123
-698969
-699069
-699077
-699096
-699036
-698872
-698943
-698876
-698853
-698700
-698544
-698711
-698644
-698645
-698592
-698424
-698538
-698561
-698445
-698390
-698296
-698424
-698461
-698389
-698424
-698169
-698265
-698282
-698426
-698321
-698254
-698884
-698589
-698456
-698441
-698386
-698547
-698564
-698443
-698673
-698550
-698802
-698933
-698887
-698922
-698931
-699120
-699272
-699287
-699400
-699321
-699542
-699587
-699775
-699795
-699719
-699874
-700026
-700079
-700131
-700112
-700277
-700142
-700429
-700495
-700378
-700620
-700671
-700729
-700787
-700778
-700987
-701073
-701072
-701186
-701050
-701242
-701210
-701356
-701478
-701603
-701562
-701561
-701603
-701668
-701460
-701630
-701696
-701763
-701870
-701732
-701827
-701873
-702046
-702109
-701948
-702088
-702261
-702352
-702431
-702239
-702388
-702269
-702622
-702679
-702664
-702875
-702912
-703070
-703018
-702943
-703171
-703306
-703300
-703395
-703331
-703497
-703674
-703694
-703811
-703786
-703948
-703999
-704138
-704199
-704188
-704341
-704770
-704564
-704528
-704412
-704522
-704517
-704783
-704821
-704761
-704866
-704879
-704837
-705034
-704887
-705077
-705032
-705279
-705344
-705193
-705370
-705458
-705506
-705505
-705405
-705575
-705558
-705670
-705746
-705668
-705787
-705794
-705832
-705877
-705846
-705852
-706014
-706053
-706080
-706001
-706089
-706167
-706297
-706434
-706293
-706304
-706485
-706405
-706467
-706394
-706583
-706503
-706718
-706751
-706627
-706647
-706648
-706806
-706814
-706705
-706880
-706848
-706918
-707052
-706861
-706903
-706936
-706993
-706936
-706868
-707105
-707193
-707092
-707218
-707039
-707217
-707357
-707361
-707418
-707337
-707443
-707511
-707603
-707596
-707493
-707673
-707655
-707743
-707760
-707626
-707839
-708000
-708069
-708134
-707996
-708069
-708164
-708182
-708064
-708099
-708234
-708232
-708366
-708428
-708285
-708428
-708449
-708478
-708491
-708396
-708571
-708527
-708564
-708636
-708577
-708610
-708606
-708580
-708583
-708441
-708500
-708391
-708318
-708136
-707849
-707731
-707595
-707204
-706901
-706330
-706374
-705714
-705156
-704642
-703988
-703583
-702989
-702485
-701988
-701320
-700803
-700292
-699661
-699128
-698516
-698074
-697638
-697190
-696728
-696105
-695829
-695460
-695211
-694844
-694432
-694464
-694042
-693713
-693575
-693269
-693100
-693049
-693022
-692984
-692788
-692858
-692866
-692937
-692954
-692963
-693096
-693212
-693324
-693345
-693976
-693651
-693816
-693988
-694156
-694073
-694412
-694602
-694773
-695096
-695131
-695388
-695609
-695874
-696079
-696145
-696494
-696704
-696895
-697257
-697485
-697774
-697956
-698339
-698370
-698545
-698760
-699023
-699210
-699340
-699480
-699733
-699961
-700105
-700070
-700171
-700452
-700569
-700662
-700700
-700798
-700968
-701245
-701350
-701310
-701338
-701570
-701641
-701885
-701627
-701839
-702034
-702190
-702235
-702237
-702243
-702383
-702550
-702631
-702637
-702684
-702872
-703090
-703116
-703175
-703166
-703353
-703505
-703666
-703680
-703641
-703856
-703859
-703889
-704131
-704139
-704252
-704386
-704485
-704502
-704503
-704598
-704772
-704889
-704820
-704768
-704900
-704913
-704946
-704882
-704796
-704837
-704781
-704874
-704775
-704641
-704717
-704660
-704733
-704572
-704393
-704358
-704286
-704260
-704047
-703840
-703834
-703694
-703577
-703438
-703137
-703149
-702968
-702849
-702657
-702356
-702355
-702225
-702185
-701808
-701614
-701550
-701428
-701380
-701154
-701000
-700867
-700891
-700776
-700676
-700437
-700321
-700271
-700299
-700161
-700028
-699980
-699969
-700002
-699874
-699778
-699878
-699838
-699823
-699809
-699616
-699764
-699854
-699861
-699957
-699794
-699741
-699813
-699995
-700059
-699949
-700166
-700066
-700284
-700280
-700059
-700058
-700253
-700311
-700327
-700241
-700343
-700480
-700442
-700538
-700423
-700554
-700548
-700618
-700676
-700505
-700666
-700769
-700856
-701001
-700828
-701049
-701091
-701142
-701254
-701138
-701350
-701365
-701533
-701641
-701545
-701718
-701776
-701858
-701986
-701958
-702107
-702217
-702346
-702565
-702374
-702617
-702689
-702774
-702954
-702881
-702915
-703108
-703337
-703681
-703802
-703693
-703953
-703908
-704051
-704069
-703969
-704119
-704184
-704220
-704238
-704225
-704306
-704363
-704389
-704428
-704346
-704580
-704643
-704632
-704705
-704675
-704775
-704836
-704928
-704939
-704971
-705025
-705171
-705162
-705363
-705218
-705414
-705574
-705522
-705606
-705666
-705751
-705827
-706001
-706074
-706042
-706231
-706363
-706416
-706441
-706390
-706573
-706656
-706670
-706844
-706748
-706851
-706905
-707058
-707168
-707073
-707186
-707279
-707306
-707408
-707276
-707245
-707400
-707442
-707467
-707335
-707485
-707564
-707566
-707644
-707488
-707623
-707648
-707772
-707864
-707467
-707856
-707921
-707934
-707979
-707845
-707980
-708031
-708103
-708113
-708090
-708268
-708323
-708282
-708397
-708264
-708367
-708505
-708509
-708579
-708439
-708595
-708647
-708651
-708727
-708656
-708704
-708737
-708886
-708847
-708779
-708927
-709033
-709094
-709010
-708957
-708989
-709040
-709086
-709016
-708883
-708909
-708837
-708629
-708533
-708199
-708016
-707742
-707370
-707128
-706589
-706191
-705625
-705174
-704601
-704062
-703528
-702975
-702113
-701756
-701029
-700637
-700009
-699462
-698927
-698239
-697858
-697370
-696890
-696477
-695905
-695630
-695190
-694913
-694677
-694234
-694030
-693813
-693639
-693560
-693262
-693306
-693300
-693179
-693202
-693059
-693189
-693204
-693235
-693523
-693431
-693566
-693708
-693705
-693967
-694089
-694350
-694486
-694640
-694864
-694966
-695186
-695451
-695638
-695881
-695999
-696284
-696565
-697139
-697075
-697052
-697346
-697594
-697826
-698013
-698195
-698370
-698619
-698843
-699034
-699069
-699266
-699522
-699722
-699942
-699994
-700268
-700451
-700620
-700781
-700676
-700897
-701048
-701168
-701302
-701344
-701400
-701462
-701622
-701645
-701648
-701748
-701858
-701997
-701988
-701896
-701969
-702208
-702190
-702311
-702210
-702379
-702357
-702476
-702600
-702446
-702505
-702659
-702739
-702763
-702787
-702931
-702883
-703033
-703111
-703121
-703217
-703260
-703426
-703469
-703345
-703404
-703539
-703530
-703618
-703575
-703524
-703630
-703693
-703709
-703670
-703583
-703662
-703684
-703659
-703589
-703442
-703606
-703587
-703577
-703984
-703551
-703514
-703438
-703529
-703369
-703238
-703340
-703342
-703299
-703222
-703101
-703147
-703219
-703172
-703109
-702942
-702986
-702914
-702935
-702858
-702688
-702706
-702749
-702698
-702542
-702409
-702526
-702440
-702333
-702246
-702096
-702159
-702213
-702149
-702073
-701976
-702037
-702055
-702093
-701889
-701863
-701920
-701924
-701902
-701877
-701821
-701920
-701861
-701987
-701870
-701873
-701948
-702013
-702163
-702040
-701985
-702124
-702235
-702300
-702282
-702241
-702344
-702470
-702698
-702722
-702644
-702759
-702801
-702919
-703054
-702994
-703288
-703275
-703481
-703373
-703473
-703564
-703666
-703790
-703903
-703762
-703947
-704114
-704133
-704158
-704128
-704324
-704415
-704600
-704528
-704415
-704681
-704703
-704868
-704889
-704837
-704966
-705012
-705137
-705210
-704863
-704979
-705767
-705564
-705527
-705355
-705603
-705676
-705774
-705812
-705814
-705924
-706042
-706168
-706088
-706262
-706360
-706326
-706469
-706356
-706547
-706638
-706695
-706690
-706663
-706857
-706876
-707011
-707115
-707104
-707175
-707200
-707350
-707369
-707353
-707545
-707499
-707549
-707621
-707398
-707643
-707705
-707730
-707837
-707790
-707970
-707961
-707999
-708113
-707952
-708051
-708102
-708116
-708244
-708134
-708218
-708261
-708350
-708431
-708248
-708326
-708464
-708462
-708560
-708398
-708526
-708523
-708651
-708615
-708832
-708801
-708719
-708865
-708937
-708785
-709477
-709057
-708988
-708845
-708721
-708777
-708618
-708606
-708489
-708603
-708648
-708692
-708602
-708623
-708708
-708835
-708922
-709017
-708837
-708944
-709120
-709114
-709317
-709112
-709170
-709362
-709312
-709330
-709286
-709428
-709522
-709517
-709445
-709376
-709513
-709569
-709655
-709718
-709624
-709753
-709606
-709633
-709810
-709614
-709857
-709869
-709912
-709762
-709637
-709768
-709745
-709708
-709681
-709493
-709580
-709530
-709327
-709143
-708760
-708504
-708286
-707945
-707596
-707089
-706736
-706210
-705683
-705186
-704416
-703936
-703337
-702776
-702180
-701422
-700844
-700350
-699703
-699137
-698459
-697952
-697461
-697048
-696616
-695991
-695615
-695160
-694765
-694470
-693927
-693711
-693463
-693193
-693108
-692513
-692281
-692271
-692337
-692366
-692546
-692349
-692550
-692596
-692677
-692895
-692955
-693125
-693304
-693439
-693621
-693649
-693889
-694179
-694331
-694969
-694762
-695425
-695211
-695224
-695502
-695621
-695936
-696153
-696325
-696540
-696606
-696881
-697062
-697299
-697379
-697471
-697746
-697770
-697955
-698136
-698005
-698221
-698438
-698540
-698650
-698484
-698611
-698663
-698738
-698860
-698867
-698963
-699031
-699010
-699050
-699002
-699105
-699023
-699085
-699102
-699017
-699133
-699211
-699210
-699266
-698987
-699187
-699234
-699310
-699420
-699268
-699334
-699516
-699589
-699546
-699382
-699603
-699741
-699713
-699747
-699781
-699905
-699889
-699958
-700064
-700020
-699983
-700146
-700216
-700085
-700131
-700296
-700385
-700334
-700435
-700268
-700349
-700355
-700344
-700407
-700367
-700359
-700385
-700428
-700479
-700307
-700245
-700316
-700360
-700345
-700248
-700143
-700182
-700191
-700190
-699955
-699954
-699857
-699810
-699830
-699615
-699601
-699490
-699515
-699505
-699207
-699283
-699177
-699194
-699153
-698963
-698851
-698933
-698842
-698773
-698637
-698538
-698528
-698538
-698362
-698026
-697862
-697861
-697819
-697765
-697642
-697296
-697563
-697585
-697567
-697481
-697528
-697622
-697740
-697833
-697719
-697675
-697802
-697905
-698048
-698000
-697985
-698091
-698152
-698300
-698317
-698223
-698360
-698548
-698513
-698466
-698492
-698754
-698737
-698814
-698821
-698778
-698872
-698962
-699145
-699196
-699138
-699253
-699321
-699444
-699450
-699408
-699599
-699674
-699696
-699759
-699711
-699762
-699856
-699942
-699912
-699835
-699967
-700143
-700083
-700146
-700060
-700303
-700318
-700392
-700308
-700304
-700467
-700520
-700663
-700573
-700510
-700643
-700817
-700726
-700813
-700778
-700972
-701010
-701193
-701142
-701036
-701299
-701296
-701389
-701385
-701407
-701429
-701585
-701697
-701675
-701534
-701682
-701743
-701861
-701811
-701738
-701713
-701919
-701966
-701934
-701896
-701964
-702044
-702073
-702121
-701987
-702057
-702197
-702296
-702334
-702237
-702414
-702350
-702385
-702411
-702439
-702490
-702497
-702592
-702664
-702537
-702636
-702753
-702768
-702826
-702747
-702815
-702846
-702965
-703007
-702864
-702989
-703125
-703193
-703084
-702977
-703125
-703153
-703131
-703218
-703171
-703242
-703209
-703292
-703345
-703184
-703270
-703348
-703344
-703271
-703131
-703255
-703295
-703358
-703348
-703306
-703415
-703358
-703490
-703517
-703361
-703515
-703596
-703683
-703706
-703516
-703732
-703680
-703807
-703817
-703705
-703870
-703881
-704010
-704081
-703940
-704127
-704137
-704255
-704237
-704061
-704285
-704340
-704351
-704346
-704211
-704330
-704353
-704387
-704423
-704352
-704484
-704506
-704452
-704480
-704149
-704357
-704447
-704401
-704493
-704274
-704273
-704249
-704123
-704032
-703647
-703651
-703403
-703058
-702738
-702270
-701970
-701510
-701083
-700640
-700012
-699536
-698940
-698352
-697824
-697049
-696568
-695957
-695322
-694722
-694072
-693602
-693005
-692470
-692012
-691425
-691027
-690520
-690106
-689657
-689157
-688909
-688627
-688344
-688143
-687829
-687645
-687461
-687244
-687262
-686920
-686968
-686964
-686897
-687022
-686853
-687154
-687241
-687218
-687285
-687262
-687509
-687650
-687767
-687949
-687998
-688647
-688525
-688620
-688767
-688752
-689031
-689257
-689343
-689601
-689641
-689906
-689948
-690062
-690097
-690446
-690106
-690056
-690077
-690241
-690210
-690368
-690539
-690710
-690804
-690566
-690846
-690970
-691159
-691238
-691319
-691360
-691470
-691570
-691587
-691487
-691697
-691786
-691754
-691878
-691744
-691743
-691715
-691694
-691792
-691731
-691841
-691722
-691682
-691738
-691618
-691547
-691719
-691783
-691875
-691723
-691788
-691765
-691876
-691938
-691732
-691899
-691942
-692041
-692171
-692060
-692125
-692181
-692230
-692433
-692270
-692438
-692486
-692589
-692578
-692447
-692592
-692659
-692765
-692849
-692681
-692850
-692914
-692950
-692974
-692735
-692869
-692908
-692742
-692900
-692803
-692828
-692860
-692933
-692657
-692758
-692717
-692733
-692689
-692679
-692542
-692611
-692483
-692585
-692409
-692284
-692269
-692229
-692192
-692092
-691944
-691942
-691924
-691856
-691846
-691587
-691622
-691602
-691483
-691476
-691103
-691321
-691295
-691247
-691227
-691088
-691029
-691092
-691083
-691122
-690926
-690932
-690930
-690904
-690968
-690806
-690908
-691001
-691022
-690974
-690936
-690903
-691060
-691152
-691201
-691157
-691228
-691362
-691302
-691342
-691395
-691454
-691471
-691588
-691684
-691584
-691606
-691587
-691732
-691771
-691702
-691908
-691920
-692035
-692020
-691995
-692008
-692094
-692080
-692221
-692158
-692273
-692368
-692438
-692495
-692384
-692457
-692626
-692683
-692817
-692658
-692727
-692880
-692917
-693121
-693003
-692977
-693104
-693240
-693337
-693331
-693356
-693509
-693570
-693567
-693613
-693641
-693710
-693753
-693917
-693889
-693844
-693953
-694049
-694164
-694230
-694429
-694472
-694474
-694343
-694426
-694573
-694618
-694705
-694548
-694484
-694586
-694689
-694730
-694733
-694703
-694847
-694829
-694917
-694879
-694803
-694905
-695051
-695124
-695017
-694963
-695133
-695218
-695268
-695120
-695096
-695217
-695382
-695488
-695410
-695360
-695395
-695473
-695550
-695510
-695467
-695593
-695640
-695666
-695672
-695668
-695742
-695786
-695834
-695805
-695710
-695821
-695817
-695869
-695725
-695765
-695891
-695884
-695969
-695960
-695766
-695980
-696059
-696274
-696028
-695703
-695904
-695872
-695980
-695874
-695848
-695949
-695957
-695951
-695827
-695887
-696013
-696033
-696105
-695974
-695957
-696037
-696549
-696290
-696155
-695972
-696142
-696265
-696199
-696152
-696201
-696250
-696368
-696354
-696277
-696315
-696476
-696469
-696518
-696419
-696493
-696597
-696587
-696652
-696527
-696632
-696663
-696794
-696896
-696791
-696819
-696973
-697030
-697109
-697026
-697219
-697191
-697337
-697386
-697267
-697390
-697491
-697499
-697520
-697370
-697662
-697625
-697673
-697711
-697615
-697795
-697807
-697888
-697949
-697798
-697910
-697981
-697936
-697968
-697910
-697969
-698034
-698036
-698014
-697847
-697958
-697970
-697916
-697848
-697687
-697575
-697467
-697355
-697106
-696714
-696600
-696215
-695846
-695493
-695183
-694462
-693936
-693332
-692771
-692000
-691577
-691012
-690453
-689754
-689072
-688518
-687996
-687506
-686912
-686105
-685687
-685256
-684855
-684258
-683719
-683407
-683037
-682658
-682286
-681851
-681682
-681534
-681315
-681137
-680816
-680858
-680742
-680654
-680711
-680501
-680549
-680665
-680695
-680801
-680762
-680915
-681076
-681092
-681353
-681390
-681548
-681631
-681812
-681949
-682117
-682348
-682474
-682746
-682846
-682885
-683149
-683389
-683563
-683754
-683684
-684094
-684146
-684350
-684581
-684439
-684762
-684908
-685111
-685197
-685090
-685321
-685390
-685477
-685552
-685477
-685681
-685751
-685824
-685958
-685763
-685882
-685896
-685950
-686035
-685904
-685918
-685984
-686126
-686005
-685913
-686064
-686102
-686130
-686078
-685913
-686079
-686112
-686107
-686214
-685924
-686161
-686263
-686284
-686232
-686210
-686419
-686476
-686358
-686564
-686511
-686721
-686761
-686827
-686877
-686795
-687000
-687143
-687104
-687281
-687200
-687334
-687391
-687376
-687508
-687315
-687388
-687575
-687560
-687581
-687473
-687615
-687745
-687553
-687556
-687440
-687408
-687434
-687548
-687621
-687333
-687386
-687382
-687426
-687304
-687133
-687261
-687182
-687137
-687065
-686888
-686914
-686829
-686926
-686807
-686666
-686728
-686633
-686630
-686394
-686363
-686437
-686352
-686259
-686341
-686037
-686157
-686089
-686118
-686137
-685882
-685956
-686036
-686436
-686084
-685811
-685934
-685918
-685909
-685912
-685840
-685949
-685885
-685886
-685951
-685765
-686005
-686031
-686041
-686056
-685943
-686142
-686173
-686247
-686431
-686193
-686390
-686405
-686492
-686545
-686377
-686597
-686654
-686834
-686827
-686746
-686836
-686917
-687062
-687017
-686963
-687206
-687275
-687386
-687389
-687305
-687407
-687607
-687590
-687692
-688003
-687966
-688011
-688156
-688200
-688298
-688064
-688324
-688409
-688517
-688671
-688474
-688554
-688659
-688774
-688857
-688788
-688885
-689015
-689061
-689421
-689507
-689601
-689664
-689566
-689576
-689690
-689773
-689851
-689736
-689821
-689992
-689993
-690061
-689997
-690110
-690165
-690089
-690238
-690118
-690327
-690409
-690457
-690497
-690328
-690838
-690645
-690638
-690711
-690639
-690660
-690735
-690762
-690836
-690770
-690845
-690884
-690969
-691012
-690891
-690923
-690967
-691077
-691052
-691043
-691049
-691086
-691111
-691157
-691085
-691073
-691118
-691239
-691261
-691094
-691176
-691221
-691251
-691202
-691184
-691143
-691259
-691222
-691287
-691075
-691091
-691216
-691164
-691133
-691120
-690971
-691142
-691181
-691172
-691083
-691037
-691067
-691070
-691033
-691001
-690974
-690938
-691012
-691034
-690969
-690773
-690957
-690984
-690988
-690805
-690750
-690858
-690937
-690895
-690731
-691226
-690989
-690847
-690897
-690760
-690716
-690773
-690764
-690880
-690727
-691199
-690946
-690844
-690759
-690687
-690571
-690724
-690772
-690796
-690747
-690628
-690711
-690707
-690804
-690783
-690575
-690683
-690722
-690798
-690681
-690591
-690670
-690816
-690779
-690752
-690591
-690697
-690806
-690850
-690871
-690617
-690826
-690878
-690887
-690843
-690681
-690894
-690935
-690985
-690901
-690822
-690968
-690951
-691050
-690978
-690848
-690911
-690934
-690978
-690885
-690883
-690981
-690946
-690997
-690898
-690848
-690877
-690771
-690781
-690571
-690305
-690375
-690204
-690000
-689638
-689288
-688893
-688511
-688076
-687680
-687064
-686736
-686054
-685560
-684939
-684234
-683821
-683280
-682642
-682085
-681258
-680819
-680402
-676934
-676251
-675938
-675618
-675325
-674969
-674892
-674674
-674612
-674493
-674253
-674295
-674200
-674203
-674187
-674067
-674350
-674320
-674415
-674419
-674498
-674750
-674816
-674955
-675095
-675154
-675405
-675590
-675716
-675917
-675950
-676244
-676786
-676773
-677264
-676991
-677198
-677317
-677496
-677675
-677526
-677752
-677967
-678099
-678266
-678288
-678476
-678562
-678717
-678733
-678627
-678825
-678731
-678927
-678980
-678585
-678883
-678969
-678982
-678936
-678904
-678983
-678822
-679037
-679071
-678760
-678979
-678968
-678990
-678951
-678774
-678885
-678961
-678974
-679009
-678879
-678996
-679058
-679113
-678991
-678979
-678935
-679093
-679199
-679195
-679090
-679232
-679283
-679332
-679491
-679402
-679494
-679558
-679624
-679748
-679484
-679626
-679655
-679597
-679742
-679562
-679643
-679767
-679780
-679748
-679553
-679673
-679646
-679677
-679702
-679529
-679691
-679652
-679654
-679551
-679356
-679559
-679532
-679424
-679320
-679298
-679370
-679292
-679330
-679825
-679265
-679187
-679126
-679175
-679071
-678896
-679033
-678986
-678985
-678902
-678736
-678716
-678641
-678598
-678549
-678463
-678539
-678379
-678297
-678261
-678012
-678043
-677965
-677997
-677970
-677739
-677743
-677706
-677690
-677572
-677375
-677433
-677370
-677292
-677351
-677148
-677178
-677241
-677210
-677237
-677092
-677160
-677210
-677255
-677282
-677211
-677332
-677282
-677361
-677189
-677180
-677514
-677528
-677599
-677658
-677657
-677681
-677796
-677908
-678025
-677837
-678073
-678089
-678123
-678181
-678081
-678201
-678280
-678396
-678499
-678441
-678469
-678492
-678519
-678656
-678481
-678571
-678690
-678645
-678656
-678569
-678708
-678630
-678699
-679300
-678733
-678684
-678630
-678650
-678669
-678585
-678619
-678653
-678686
-678739
-678561
-678692
-678713
-678799
-678818
-678712
-678860
-678991
-678992
-678981
-678919
-679080
-679523
-679289
-679232
-679117
-679176
-679224
-679230
-679395
-679315
-679465
-679324
-679425
-679483
-679388
-679400
-679510
-679489
-679587
-679481
-679588
-679663
-679599
-679592
-679506
-679523
-679552
-679611
-679652
-679481
-679520
-679506
-679532
-679486
-679467
-679593
-679497
-679583
-679567
-679431
-679542
-679631
-679638
-679616
-679477
-679535
-679648
-679697
-679685
-679690
-679744
-679831
-679957
-679951
-679929
-680083
-680241
-680274
-680278
-680240
-680503
-681346
-680856
-680798
-681012
-681002
-681105
-681195
-681209
-681423
-681453
-681500
-681583
-681557
-681625
-681788
-681820
-681966
-681949
-682043
-682114
-682097
-682117
-682008
-682083
-682134
-682276
-682287
-682155
-682231
-682321
-682341
-682473
-682352
-682400
-682427
-682515
-682490
-682409
-682528
-682560
-682640
-682579
-682629
-682598
-682795
-682783
-682788
-682893
-682960
-683008
-683082
-683051
-683179
-683240
-683378
-683277
-683363
-683439
-683706
-683728
-683797
-683813
-683870
-683865
-684031
-684103
-684089
-684148
-684215
-684361
-684464
-684309
-684333
-684484
-684527
-684628
-684525
-684485
-684496
-684633
-684479
-684423
-684490
-684554
-684511
-684537
-684306
-684310
-684350
-684402
-684362
-684169
-684099
-683992
-683935
-683877
-683623
-683424
-683310
-683020
-682780
-682329
-681903
-681546
-681097
-680682
-679984
-679505
-678991
-678718
-677965
-677221
-676566
-676035
-675413
-674866
-674136
-673553
-673087
-672621
-672196
-671639
-671105
-670761
-670455
-670071
-669520
-669182
-668986
-668815
-668559
-668323
-668049
-667990
-667985
-668060
-667852
-667684
-667861
-667979
-668024
-668028
-668069
-668317
-668417
-668539
-668680
-668747
-668994
-669274
-669483
-669552
-669528
-669952
-670100
-670387
-670375
-670530
-670839
-671075
-671321
-671553
-671565
-671921
-672091
-672307
-672482
-672492
-672704
-672876
-673033
-673200
-673853
-673553
-673631
-673649
-673741
-673686
-673823
-673959
-674061
-674165
-674006
-674147
-674129
-674341
-674300
-674093
-674254
-674391
-674361
-674323
-674149
-674177
-674248
-674276
-674281
-674117
-674170
-674145
-674127
-674098
-674005
-674108
-674154
-674097
-674143
-674021
-674152
-674012
-674169
-674071
-673964
-674192
-674251
-674292
-674390
-674236
-674468
-674578
-674617
-674638
-674617
-674799
-674926
-675065
-675107
-675018
-675156
-675261
-675326
-675453
-675325
-675510
-675489
-675569
-675538
-675532
-675621
-675581
-675670
-675680
-675599
-675514
-675406
-675265
-675307
-675226
-675135
-675153
-674915
-674961
-674875
-674821
-674835
-674548
-674557
-674444
-674338
-674207
-674013
-673881
-674021
-673931
-673835
-673532
-673526
-673491
-673360
-673314
-673153
-673207
-673101
-673002
-672974
-672754
-672802
-672718
-672628
-672660
-672550
-672684
-672574
-672589
-672657
-672456
-672513
-672560
-672437
-672499
-672389
-672481
-672434
-672458
-672536
-672368
-672462
-672471
-672470
-672543
-672528
-672618
-672594
-672632
-672778
-672657
-672763
-672820
-672721
-672781
-672690
-672967
-672955
-673057
-673060
-672982
-673154
-673220
-673239
-673350
-673099
-673253
-673440
-673469
-673529
-673491
-673675
-673663
-673793
-673804
-673708
-673895
-674000
-673992
-674054
-673981
-674151
-674261
-674221
-674322
-674775
-674634
-674626
-674641
-674661
-674279
-674584
-674450
-674657
-674893
-674779
-674956
-675037
-675072
-675129
-675099
-675290
-675933
-675675
-675615
-675547
-675676
-675714
-675898
-675931
-675881
-676034
-676122
-676200
-676326
-676378
-676459
-676603
-676751
-676891
-676840
-676907
-676977
-677109
-677052
-677133
-677374
-677354
-677452
-677537
-677889
-677729
-677810
-677753
-677864
-677702
-677816
-677848
-677853
-677908
-677810
-677855
-677971
-677920
-678009
-677839
-677956
-678054
-678043
-678041
-678009
-678098
-678123
-678072
-678178
-678071
-678156
-678215
-678247
-678298
-678153
-678384
-678364
-678482
-678516
-678360
-678539
-678652
-678593
-678611
-678604
-678726
-678641
-678768
-678824
-678793
-678948
-678998
-679088
-679109
-679025
-679091
-678906
-679126
-679138
-679140
-679095
-679234
-679332
-679403
-679099
-679256
-679394
-679382
-679488
-679361
-679447
-679422
-679466
-679490
-679355
-679418
-679416
-679417
-679524
-679384
-679488
-679400
-679473
-679605
-679481
-679621
-679667
-679663
-679787
-679617
-679783
-679789
-679911
-679964
-679749
-679967
-679999
-679962
-680125
-679969
-680121
-680184
-680284
-680323
-680278
-680409
-680427
-680437
-680554
-680427
-680613
-680691
-680728
-680614
-680558
-680664
-680752
-680858
-680965
-680821
-680816
-680754
-680867
-680877
-680762
-680917
-680919
-680964
-680920
-680870
-680909
-680822
-680846
-680822
-680651
-680733
-680637
-680626
-680480
-680211
-680011
-679877
-679587
-679323
-678797
-678548
-678114
-677715
-677225
-676535
-676014
-675524
-674878
-674248
-673566
-672956
-672431
-671656
-671128
-670558
-670093
-669489
-668938
-668431
-667845
-667405
-666946
-666609
-666216
-665670
-665468
-665081
-664848
-664721
-664294
-664284
-664164
-664147
-664153
-663990
-663996
-664110
-664114
-664343
-664311
-664450
-664691
-664868
-665115
-665189
-665454
-665681
-665798
-666127
-666213
-666488
-666829
-667036
-667375
-667465
-667782
-668062
-668363
-668629
-668689
-669017
-669347
-669533
-669806
-669835
-670038
-670284
-670450
-670753
-670791
-671009
-671230
-671363
-671528
-671531
-671648
-671883
-671960
-672044
-672013
-672168
-672334
-672481
-672518
-672446
-672502
-672652
-672833
-672799
-672783
-672820
-673020
-673025
-673053
-673072
-672972
-673113
-673163
-673215
-673099
-673213
-673203
-673239
-673291
-673289
-673274
-673338
-673391
-673503
-673428
-673401
-673491
-673536
-673580
-673511
-673550
-673607
-673645
-673769
-673656
-673594
-673830
-673779
-673843
-673732
-673730
-673746
-673819
-673812
-673807
-673826
-673896
-673895
-673903
-673790
-673706
-673846
-673910
-673898
-673830
-673767
-673817
-673810
-673850
-673676
-673602
-673754
-673470
-673699
-673645
-673529
-673616
-673518
-673491
-673437
-673409
-673417
-673519
-673526
-673246
-673283
-673248
-673266
-673221
-673088
-673085
-673028
-673082
-673161
-673049
-672905
-673044
-673057
-673053
-672964
-672962
-673082
-673160
-673171
-673139
-673132
-673274
-673332
-673405
-673367
-673363
-673454
-673565
-673617
-673623
-673543
-673722
-674244
-674099
-674079
-673939
-674159
-674124
-674370
-674409
-674424
-674590
-674606
-674810
-674835
-674703
-674938
-675001
-675142
-675174
-675222
-675330
-675425
-675614
-675646
-675550
-675755
-675831
-675922
-675974
-675908
-676067
-676163
-676250
-676297
-676272
-676419
-676502
-676490
-676625
-676626
-676653
-676805
-676928
-676966
-676894
-677018
-677055
-677027
-677227
-677195
-677314
-677446
-677510
-677515
-677458
-677576
-677537
-677712
-677833
-677780
-677847
-677930
-678066
-678097
-678027
-678084
-678140
-678271
-678226
-678197
-678397
-678484
-678490
-678491
-678488
-678530
-678721
-678793
-678826
-678657
-678806
-678925
-678956
-679028
-678939
-679020
-679007
-679064
-679125
-679011
-679168
-679156
-679202
-679166
-679124
-679229
-679322
-679352
-679412
-679270
-679368
-679379
-679432
-679489
-679328
-679440
-679494
-679499
-679575
-679319
-679512
-679586
-679630
-679686
-679523
-679573
-679686
-679705
-679821
-679629
-679845
-679889
-679891
-679873
-679731
-679868
-679996
-680072
-680183
-680260
-680210
-680410
-680411
-680447
-680481
-680449
-680675
-680653
-680755
-680569
-680761
-680816
-680834
-680937
-680832
-680938
-680932
-680953
-681022
-680927
-681071
-681217
-681292
-681222
-681089
-681289
-681312
-681186
-681350
-681672
-681536
-681557
-681550
-681651
-681480
-681655
-681749
-681804
-681893
-681798
-681924
-681988
-682079
-682166
-682118
-682318
-682359
-682448
-682544
-682479
-682690
-682715
-682777
-682763
-682716
-683008
-683050
-683035
-683186
-683124
-683184
-683301
-683327
-683374
-683358
-683419
-683498
-683593
-683599
-683545
-683672
-683726
-683882
-683955
-683798
-683978
-684114
-684187
-684201
-684131
-684266
-684355
-684436
-684455
-684371
-684549
-684538
-684611
-684688
-684537
-684650
-684657
-684698
-684847
-684676
-684789
-684896
-684974
-684941
-684857
-684924
-684948
-684960
-684951
-684815
-684814
-684810
-684745
-684755
-684641
-684605
-684467
-684280
-684041
-683598
-683503
-683277
-682895
-682438
-681823
-681371
-680876
-680453
-679965
-679209
-678756
-678224
-677603
-677138
-676330
-675959
-675424
-674859
-674349
-673657
-673245
-672715
-672270
-671984
-671397
-671059
-670707
-670392
-670141
-669689
-669540
-669426
-669179
-669065
-668835
-668878
-668880
-668853
-668856
-668756
-668716
-668837
-668980
-669117
-669203
-669427
-669523
-669665
-669831
-669822
-670261
-670419
-670617
-670878
-671021
-671302
-671588
-671861
-672050
-672219
-672583
-672742
-673079
-673324
-673343
-673663
-673931
-674179
-674345
-674473
-674749
-674925
-675088
-675229
-675258
-675573
-675668
-675802
-675948
-675969
-676157
-676201
-676242
-676329
-676218
-676491
-676499
-676522
-676598
-676456
-676662
-676643
-676613
-676573
-676447
-676450
-676585
-676622
-676647
-676542
-676525
-676499
-676593
-676708
-676596
-676659
-676733
-676694
-676768
-676614
-676726
-676787
-676943
-677048
-676893
-677028
-677093
-677211
-677286
-677167
-677322
-677500
-677333
-677557
-677489
-677575
-677698
-677794
-677883
-677741
-677794
-677865
-677962
-677897
-677776
-677904
-677938
-677978
-677936
-677821
-677833
-677879
-677804
-677930
-677782
-677829
-677760
-677855
-677760
-677606
-677545
-677604
-677557
-677575
-677458
-677412
-677446
-677390
-677355
-677280
-677191
-677153
-677235
-677185
-677045
-676966
-676951
-676973
-676913
-676795
-676790
-676837
-676823
-676826
-676555
-676545
-676695
-676672
-676676
-676548
-676650
-676657
-676669
-676733
-676546
-676580
-676671
-676740
-676778
-676607
-676633
-676829
-676833
-676917
-676926
-676913
-677023
-677072
-677215
-677156
-677164
-677291
-677405
-677498
-677461
-677540
-677660
-677786
-677901
-677794
-677859
-678033
-678103
-678202
-678198
-678297
-678459
-678501
-678713
-678612
-678651
-678842
-678969
-679054
-678955
-679000
-679073
-679212
-679344
-679283
-679370
-679512
-679527
-679690
-679553
-679546
-679752
-679834
-679918
-679855
-679798
-679916
-680016
-680009
-680013
-680062
-680218
-680233
-680403
-680384
-680421
-680644
-680498
-680651
-680612
-680627
-680874
-680964
-681058
-680982
-681079
-681141
-681279
-681300
-681269
-681358
-681405
-681571
-681673
-681649
-681629
-681787
-681846
-681951
-682014
-681942
-682088
-682176
-682187
-682206
-682134
-682368
-682310
-682408
-682450
-682365
-682578
-682667
-682757
-682700
-682518
-682845
-682801
-682902
-682928
-682797
-683056
-683073
-683197
-683109
-683057
-683238
-683347
-683375
-683340
-683365
-683464
-683531
-683594
-683651
-683455
-683506
-683679
-683820
-683866
-683748
-683887
-683876
-684421
-684695
-684169
-684220
-684127
-684233
-684214
-684048
-684280
-684299
-684389
-684353
-684296
-684414
-684364
-684490
-684479
-684339
-684492
-684448
-684517
-684424
-684323
-684482
-684335
-684399
-684361
-684293
-684364
-684384
-684477
-684497
-684364
-684344
-684463
-684589
-684586
-684436
-684610
-684684
-684753
-684749
-684647
-684628
-684831
-684889
-684875
-684721
-684811
-684833
-684890
-684954
-684948
-685055
-685073
-685153
-685130
-685066
-685192
-685165
-685205
-685183
-685111
-685262
-685187
-685212
-685187
-685173
-685227
-685374
-685449
-685404
-685306
-685504
-685481
-685555
-685559
-685473
-685676
-685709
-685742
-685850
-685788
-685927
-686036
-686002
-686195
-686057
-686226
-686324
-686363
-686381
-686329
-686442
-686537
-686634
-686751
-686636
-686775
-686885
-686924
-686995
-686936
-686854
-687077
-687223
-687262
-687117
-687209
-687309
-687329
-687467
-687220
-687314
-687240
-687126
-687219
-687083
-686988
-687228
-686834
-686514
-686222
-685922
-685649
-685218
-684704
-684232
-683872
-683370
-682852
-682446
-681769
-681316
-680808
-680213
-679592
-678924
-678525
-678101
-677484
-677072
-676413
-676152
-675729
-675307
-674926
-674485
-673301
-672969
-672885
-672510
-672623
-672537
-672371
-672323
-672317
-672399
-672332
-672353
-672561
-672592
-672649
-672745
-672963
-673083
-673291
-673385
-673390
-673724
-673885
-674167
-674331
-674429
-674760
-675023
-675240
-675488
-675612
-675868
-676294
-676532
-676818
-676890
-677298
-677479
-677659
-678046
-678031
-678287
-678526
-678665
-678839
-678922
-679221
-679390
-679475
-679415
-679157
-679089
-679042
-679017
-679185
-679004
-679226
-679396
-679439
-679525
-679467
-679515
-679628
-679824
-679829
-679836
-679941
-680032
-680145
-680186
-680027
-680256
-680401
-680481
-680440
-680359
-680377
-680379
-680346
-680423
-680375
-680537
-680631
-680698
-680755
-680621
-680671
-680817
-680897
-681032
-680921
-680940
-680994
-681071
-681063
-681007
-681171
-681330
-681223
-681361
-681159
-681281
-681340
-681330
-681411
-681199
-681249
-681237
-681295
-681311
-681084
-681138
-681122
-681124
-681158
-680942
-681003
-681006
-680891
-680964
-680725
-680688
-680745
-680712
-680658
-680416
-680356
-680353
-680254
-680210
-679989
-680069
-680056
-679980
-679887
-679675
-679623
-679576
-679575
-679494
-679247
-679336
-679327
-679212
-679006
-678899
-678943
-679006
-678978
-678998
-678853
-678942
-678868
-678899
-678900
-678825
-678870
-678876
-678970
-679003
-678841
-679075
-679012
-679109
-679176
-678973
-679089
-679126
-679209
-679193
-679132
-679283
-679338
-679378
-679434
-679272
-679320
-679467
-679429
-679540
-679457
-679542
-679510
-679549
-679670
-679576
-679643
-679651
-679643
-679696
-679492
-679571
-679577
-679583
-679668
-679512
-679685
-679609
-679645
-679663
-679501
-679536
-679680
-679766
-679701
-679534
-679878
-680061
-680102
-680310
-680281
-680460
-680567
-680680
-680819
-680626
-680718
-680730
-680858
-680797
-680660
-680781
-680791
-680812
-680820
-680640
-680754
-680821
-680876
-680993
-680927
-681018
-681106
-681148
-681288
-681289
-681362
-681436
-681622
-681626
-681586
-681649
-681805
-681846
-681944
-681920
-682107
-682119
-682304
-682408
-682343
-682372
-682609
-682624
-682684
-682724
-682735
-682898
-683092
-683148
-683123
-683224
-683345
-683396
-683558
-683588
-683601
-683811
-683845
-683980
-684033
-684054
-684218
-684308
-684474
-684335
-684448
-684636
-684727
-684929
-684823
-684981
-685102
-685311
-685386
-685330
-685388
-685535
-685688
-685773
-685737
-685802
-685987
-686089
-686229
-686095
-686302
-686470
-686521
-686509
-686502
-686667
-686771
-686878
-686803
-686888
-686956
-687019
-687165
-687083
-687094
-687091
-687149
-687187
-687168
-687106
-687244
-687315
-687440
-687317
-687271
-687455
-687372
-687422
-687336
-687237
-687381
-687493
-687560
-687440
-687339
-687482
-687582
-687643
-687527
-687537
-687629
-687623
-687761
-687580
-687530
-687694
-687815
-687908
-687784
-687785
-687928
-687989
-688099
-687897
-687978
-688643
-688460
-688780
-688301
-688325
-688463
-688472
-688677
-688707
-688618
-688816
-688900
-688951
-688889
-688928
-689171
-689263
-689353
-689320
-689278
-689418
-689510
-689725
-689661
-689693
-689795
-690024
-690053
-689988
-690007
-690162
-690259
-690242
-690350
-690295
-690410
-690531
-690625
-690557
-690516
-690704
-690738
-690820
-690817
-690803
-690922
-690992
-690969
-690884
-690497
-690725
-690852
-690819
-690543
-690273
-690136
-690010
-689685
-689277
-688814
-688550
-688172
-687652
-687189
-686475
-686076
-685605
-685077
-684426
-683805
-683324
-682733
-682279
-681644
-680938
-680563
-680138
-679745
-679239
-679280
-678503
-678110
-677630
-677306
-676894
-676774
-676508
-676341
-676119
-675768
-675752
-675705
-675668
-675384
-675403
-675594
-675679
-675746
-675760
-675682
-675843
-675999
-676107
-676225
-676323
-676488
-676696
-676895
-677023
-677034
-677357
-677527
-677845
-677898
-677983
-678241
-678467
-678714
-678928
-678901
-679262
-679463
-679639
-679889
-679945
-680136
-680430
-680619
-680781
-680837
-681071
-681220
-681431
-681603
-681513
-681771
-682062
-682171
-682280
-682263
-682391
-682622
-682685
-682808
-682769
-682939
-683092
-683202
-683254
-683186
-683427
-683509
-683525
-683589
-683529
-683740
-683841
-683840
-683942
-683813
-683997
-684045
-684131
-684142
-684147
-684294
-684237
-684416
-684474
-684291
-684442
-684519
-684739
-684701
-684646
-684603
-684792
-684928
-684999
-685009
-685106
-685180
-685251
-685387
-685303
-685431
-685424
-685552
-685496
-685455
-685614
-685404
-685514
-686044
-685765
-685728
-685769
-685727
-685772
-685618
-685666
-685705
-685751
-685654
-685581
-685631
-685613
-685603
-685615
-685483
-685541
-685457
-685548
-685563
-685361
-685417
-685428
-685335
-685212
-685114
-685141
-685223
-685106
-685038
-684911
-684894
-684909
-684890
-684882
-684719
-684747
-684780
-684781
-684666
-684562
-684555
-684584
-684572
-684531
-684323
-684466
-684473
-684559
-684865
-684500
-684516
-684327
-684485
-684577
-684487
-684621
-684633
-684741
-684711
-684578
-684807
-684934
-684876
-685055
-684880
-685086
-685095
-685176
-685145
-685132
-685392
-685497
-685633
-685542
-685720
-685886
-685923
-686073
-686049
-686112
-686275
-686308
-686302
-686273
-686547
-686438
-686616
-686802
-686729
-686872
-687427
-687171
-686996
-687070
-687279
-687258
-687306
-687482
-687425
-687543
-687621
-687716
-687859
-687861
-688087
-688054
-688021
-688245
-688196
-688305
-688440
-688584
-688643
-688554
-688746
-688808
-688885
-689026
-689008
-689206
-689616
-689517
-689515
-689390
-689485
-689622
-689684
-690068
-690132
-690037
-690169
-690235
-690697
-690525
-690355
-690368
-690497
-690472
-690545
-690521
-690722
-690826
-690886
-690967
-690870
-691004
-691088
-691150
-691202
-691158
-691140
-691268
-691273
-691457
-691377
-691487
-691438
-691611
-691617
-691513
-691732
-691762
-691800
-691869
-691749
-691877
-691925
-691938
-691937
-691897
-692041
-692141
-692050
-692220
-692114
-692176
-692227
-692273
-692400
-692298
-692416
-692417
-692546
-692611
-692502
-692620
-692566
-692627
-692728
-692641
-692776
-692718
-692859
-692851
-692718
-693211
-692782
-692848
-692703
-692581
-692623
-692733
-692725
-693324
-692935
-693118
-693048
-693471
-693244
-693103
-693746
-693225
-693187
-693309
-693134
-693041
-693595
-693309
-693865
-693229
-693464
-693388
-693556
-693594
-693493
-693583
-693677
-693724
-693679
-693656
-693733
-693707
-693819
-693956
-693747
-693694
-693957
-694125
-694778
-694184
-694196
-694128
-694122
-694095
-694042
-694124
-694756
-694400
-694229
-694116
-694338
-694307
-694429
-695134
-694775
-694699
-694803
-694806
-694860
-694753
-694850
-695413
-695213
-695265
-695107
-695024
-695293
-695459
-696030
-695689
-695608
-695689
-695733
-695713
-695759
-695817
-695856
-695900
-696094
-695976
-696081
-696452
-696639
-696225
-696209
-696323
-696342
-696390
-696599
-696463
-696496
-696698
-696710
-696718
-696690
-696730
-696559
-696689
-696859
-696662
-696567
-696587
-696542
-696396
-696197
-695952
-695787
-695477
-695092
-694668
-694146
-693840
-693032
-692612
-692196
-691632
-691088
-690574
-689796
-689909
-688660
-688226
-687501
-687026
-686381
-685902
-685563
-685027
-684592
-684064
-683681
-683406
-683009
-682683
-682410
-682081
-681915
-681669
-681489
-681327
-681218
-681091
-681063
-681115
-681000
-680993
-681037
-681112
-681131
-681282
-681376
-681616
-681767
-681923
-681969
-681939
-682279
-682288
-683063
-682928
-682774
-683624
-683687
-683657
-683594
-683973
-684302
-684541
-684746
-684872
-685077
-685405
-685510
-685785
-685953
-685974
-686319
-686460
-686717
-686789
-686602
-687011
-687272
-687377
-687452
-687465
-687756
-687897
-687848
-687964
-688083
-688188
-688371
-688534
-688548
-688837
-688746
-688717
-688883
-688848
-688751
-688893
-688960
-689381
-689094
-689146
-689250
-689209
-689281
-689219
-689275
-689454
-689527
-689521
-689488
-689446
-689588
-689677
-689794
-689746
-689734
-689858
-690000
-690107
-690079
-690003
-690548
-690407
-690452
-690464
-690491
-690566
-690536
-690992
-690809
-690623
-690811
-690912
-690958
-690955
-690855
-690946
-690951
-691159
-691119
-690957
-691044
-691049
-691116
-691085
-690953
-691044
-691082
-691090
-690952
-690760
-690777
-690813
-690861
-690785
-690645
-690693
-690649
-690736
-690566
-690446
-690511
-690545
-690506
-690483
-690219
-690280
-690249
-690253
-690078
-689914
-689994
-690056
-689950
-689832
-689780
-689798
-689774
-689711
-689742
-689525
-689621
-689512
-689476
-689488
-689384
-689541
-689557
-689527
-689563
-689373
-689487
-689549
-689644
-689620
-689451
-689611
-689657
-689775
-689797
-689687
-689863
-689823
-689949
-690010
-689916
-690109
-690119
-690225
-690244
-690220
-690376
-690497
-690539
-690674
-690530
-690699
-690765
-690882
-690967
-690914
-691148
-691173
-691264
-691340
-691565
-691686
-691669
-691819
-691740
-691856
-692013
-692065
-692130
-692072
-692227
-692339
-692434
-692588
-692499
-692639
-692734
-692776
-692864
-692866
-693046
-693084
-693240
-693354
-693270
-693445
-693510
-693618
-693665
-693584
-693746
-693924
-694003
-694085
-694048
-694166
-694279
-694299
-694311
-694206
-694364
-694541
-694526
-694600
-694523
-694720
-694868
-694858
-694877
-694830
-694959
-695112
-695194
-695191
-695105
-695376
-695407
-695393
-695492
-695496
-695601
-695786
-695776
-695860
-695713
-695946
-695962
-695968
-696105
-696083
-696123
-696175
-696358
-696412
-696209
-696423
-696537
-696550
-696561
-696364
-696632
-696620
-696625
-696709
-696655
-696853
-696917
-696956
-696924
-696825
-696955
-697015
-697021
-697169
-697102
-697118
-697073
-697143
-697299
-697123
-697159
-697197
-697382
-697407
-697301
-697352
-697403
-697429
-697467
-697323
-697473
-697472
-697440
-697524
-697396
-697541
-697606
-697611
-697663
-697530
-697653
-697677
-697680
-697819
-697698
-697744
-697832
-697817
-697797
-697727
-697798
-697908
-697967
-697977
-697948
-698011
-698130
-698044
-698051
-697917
-698144
-698121
-698183
-698260
-698084
-698223
-698178
-698378
-698396
-698318
-698357
-698404
-698438
-698531
-698379
-698570
-698489
-698569
-698610
-698514
-698652
-698787
-698995
-699101
-699207
-699150
-699248
-699309
-699376
-699447
-699345
-699437
-699570
-699603
-699661
-699519
-699691
-699771
-699790
-699887
-699755
-699908
-700003
-699991
-700086
-699907
-700142
-700238
-700315
-700342
-700167
-700311
-700398
-700603
-700365
-700607
-700594
-700729
-700650
-700540
-700659
-700607
-700718
-700584
-700426
-700398
-700280
-700047
-699824
-699499
-699351
-698908
-698436
-698093
-697552
-697131
-696574
-696005
-695507
-694946
-694395
-693846
-693322
-692749
-692052
-691686
-691152
-690533
-690115
-689531
-689048
-688660
-688328
-688005
-687491
-687223
-687024
-686700
-686502
-686089
-685970
-685848
-685821
-685691
-685396
-685378
-685390
-685388
-685398
-685349
-685470
-685526
-685751
-685876
-685806
-686002
-686204
-686405
-686531
-686664
-686961
-687126
-687352
-687591
-687717
-687983
-688234
-688467
-688837
-688928
-689134
-689371
-689724
-689959
-690045
-690277
-690605
-690880
-691084
-691196
-691448
-691556
-691797
-691950
-692064
-692221
-692419
-692624
-692800
-692782
-693018
-693080
-693262
-693296
-693302
-693524
-693745
-693778
-693931
-693805
-693877
-694049
-694058
-694178
-694029
-694100
-694181
-694339
-694309
-694322
-694317
-694363
-694471
-694444
-694392
-694428
-694529
-694583
-694582
-694501
-694598
-694682
-694645
-694675
-694608
-694570
-694751
-694743
-694890
-694812
-694861
-694952
-694934
-694945
-694929
-694981
-694974
-695013
-695066
-695002
-694929
-695040
-695110
-695151
-695006
-694938
-694997
-695006
-695012
-694860
-694836
-694882
-694788
-694768
-694654
-694541
-694526
-694534
-694353
-694287
-694224
-694330
-694183
-694034
-693902
-693809
-693860
-693848
-693543
-693324
-693403
-693445
-693373
-693125
-693005
-693138
-693039
-692971
-692839
-692653
-692767
-692578
-692618
-692473
-692447
-692538
-692530
-692465
-692359
-692243
-692290
-692374
-692413
-692238
-692245
-692310
-692325
-692362
-692387
-692243
-692439
-692413
-692553
-692559
-692436
-692601
-692789
-692815
-692785
-692794
-692950
-693022
-693160
-693142
-693071
-693272
-693406
-693531
-693440
-693462
-693637
-693736
-693837
-693864
-693789
-693974
-693962
-694132
-694043
-694018
-694182
-694279
-694423
-694416
-694270
-694385
-694601
-694642
-694600
-694570
-694696
-694722
-694814
-694793
-694700
-694761
-694815
-694841
-694961
-694834
-694975
-694989
-695013
-695040
-694927
-695149
-695216
-695297
-695316
-695241
-695402
-695497
-695515
-695430
-695416
-695575
-695645
-695707
-695684
-695536
-695716
-695881
-695925
-695850
-695805
-695878
-696067
-696122
-696210
-696073
-696249
-696341
-696432
-696437
-696366
-696466
-696552
-696627
-696722
-696627
-696807
-696790
-696811
-696961
-696803
-696909
-697128
-697144
-697200
-697157
-697227
-697310
-697376
-697489
-697336
-697543
-697622
-697628
-697849
-697700
-697793
-697795
-697799
-697830
-697817
-697903
-697995
-698057
-698088
-697924
-697952
-698069
-698148
-698144
-698014
-698019
-698165
-698163
-698040
-697875
-697973
-697924
-697988
-697943
-697761
-697847
-697868
-697849
-697843
-697673
-697795
-697831
-697764
-697794
-697733
-697717
-697766
-697813
-697843
-697579
-697726
-697770
-697887
-697809
-697777
-697850
-697962
-697920
-698064
-697947
-698116
-698210
-698262
-698303
-698256
-698541
-698618
-698704
-698808
-698671
-698905
-699011
-699193
-699264
-699218
-699313
-699449
-699505
-699509
-699481
-699604
-699734
-699836
-699856
-699735
-699948
-699929
-700052
-700173
-700015
-700195
-700160
-700232
-700275
-700215
-700242
-700331
-700384
-700400
-700342
-700357
-700446
-700370
-700496
-700338
-700426
-700475
-700469
-700573
-700445
-700493
-700617
-700647
-700702
-700549
-700567
-700604
-700591
-700716
-700614
-700727
-700694
-700723
-700800
-700671
-700791
-700821
-700941
-700882
-700724
-700886
-700867
-700793
-700680
-700579
-700471
-700438
-700152
-700024
-699528
-699316
-698997
-698550
-698075
-697526
-697083
-696540
-695987
-695410
-694707
-694190
-693552
-692968
-692425
-691643
-691133
-690595
-690046
-689541
-688890
-688418
-687956
-687510
-687049
-686479
-686264
-685839
-685477
-685176
-684784
-684633
-684517
-684397
-684172
-683925
-683916
-683907
-683809
-683833
-683697
-683850
-683890
-683997
-684052
-684122
-684305
-684414
-684567
-684818
-684752
-685053
-685227
-685442
-685630
-685679
-686011
-686382
-686503
-686827
-686842
-687094
-687408
-687570
-687948
-687982
-688255
-688484
-688762
-688985
-689040
-689340
-689603
-689796
-689890
-690019
-690266
-690386
-690622
-690818
-690854
-691107
-691251
-691416
-691586
-691477
-691760
-691862
-691907
-691997
-691977
-692198
-692290
-692440
-692464
-692475
-692574
-692664
-692797
-692864
-692828
-692931
-692963
-693056
-693191
-693045
-693175
-693262
-693344
-693462
-693344
-693447
-693512
-693608
-693695
-693714
-693798
-694007
-694018
-694108
-694078
-694227
-694313
-694403
-694398
-694383
-694568
-694610
-694635
-694775
-694777
-694762
-694814
-694913
-694885
-694859
-694901
-695050
-694999
-695020
-694902
-694968
-695058
-695067
-695049
-694857
-694938
-694880
-694841
-694810
-694700
-694773
-694719
-694665
-694721
-694524
-694572
-694524
-694467
-694454
-694290
-694164
-694100
-694117
-694175
-693929
-693817
-693813
-693776
-693745
-693562
-693530
-693460
-693439
-693385
-693223
-693143
-693138
-693129
-693140
-692902
-692967
-692837
-692765
-692669
-692678
-692708
-692740
-692631
-692607
-692676
-692646
-692637
-692569
-692561
-692648
-692707
-692792
-692763
-692677
-692729
-692882
-692865
-692820
-692920
-692970
-693027
-693185
-693103
-693067
-693187
-693340
-693332
-693217
-693413
-693489
-693519
-693778
-693977
-693957
-693904
-694151
-694184
-694282
-694247
-694240
-694432
-694554
-694574
-694568
-694517
-694670
-694899
-694959
-694863
-694923
-695111
-695243
-695302
-695317
-695357
-695549
-695605
-695639
-695691
-695687
-695843
-695940
-696078
-696019
-696105
-696284
-696314
-696396
-696388
-696419
-696628
-696594
-696748
-696744
-696773
-696912
-696979
-697069
-697076
-697073
-697285
-697247
-697415
-697427
-697488
-697528
-697627
-697649
-697614
-697680
-697805
-697809
-697979
-697919
-697894
-698122
-698121
-698349
-698231
-698284
-698484
-698599
-698732
-698696
-698730
-698850
-698978
-699095
-699191
-699173
-699350
-699499
-699654
-699670
-699579
-699828
-700004
-700016
-700051
-699937
-700224
-700302
-700446
-700458
-700415
-700578
-700678
-700797
-700718
-700697
-700842
-700927
-701020
-700914
-700826
-701019
-700991
-701087
-701128
-700949
-701075
-701120
-701196
-701145
-701079
-701108
-701123
-701195
-701081
-700857
-700966
-700989
-701027
-700937
-700788
-700945
-700929
-700813
-700710
-700624
-700740
-700732
-700760
-700641
-700529
-700509
-700468
-700470
-700416
-700263
-700264
-700208
-700134
-700190
-700029
-700112
-699860
-700023
-700004
-699816
-699931
-700019
-700045
-699900
-699821
-699858
-699945
-700027
-699942
-699844
-699984
-700029
-700068
-700135
-700065
-700162
-700142
-700293
-700409
-700214
-700326
-700357
-700463
-700553
-700925
-700860
-700743
-700826
-700968
-700914
-701095
-701138
-701334
-701414
-701426
-701598
-701678
-701808
-701915
-701788
-702374
-702310
-702386
-702425
-702317
-702539
-702716
-702778
-702863
-702853
-702982
-703036
-702978
-702952
-702895
-702842
-702658
-702538
-702287
-701837
-701611
-701264
-700845
-700427
-699661
-699228
-698849
-698317
-697656
-696987
-696475
-695760
-695163
-694641
-693922
-693467
-692869
-692192
-691724
-691054
-690641
-690200
-689684
-689332
-688752
-688433
-688350
-687846
-687606
-687260
-687130
-686852
-686702
-686644
-686453
-686472
-686356
-686339
-686281
-686151
-686331
-686382
-686395
-686451
-686446
-686740
-686822
-686944
-687141
-687030
-687239
-687501
-687690
-687903
-687904
-688086
-688349
-688486
-688687
-688699
-688949
-689203
-689390
-689897
-689724
-689914
-690082
-690286
-690457
-690447
-690683
-690837
-690963
-691164
-691123
-691298
-691484
-691548
-691801
-691682
-691890
-692012
-692109
-692269
-692164
-692347
-692525
-692530
-692596
-692566
-692796
-692748
-692779
-692825
-692734
-692908
-692911
-692949
-693008
-692906
-693084
-693104
-693161
-693194
-693119
-693181
-693275
-693293
-693322
-693266
-693417
-693508
-693527
-693708
-693664
-693786
-693821
-693909
-693958
-693928
-694069
-694215
-694376
-694380
-694440
-694536
-694645
-694725
-694829
-694769
-694844
-694946
-695089
-695138
-694797
-695114
-695104
-695158
-695259
-695166
-695268
-695192
-695239
-695267
-695180
-695263
-695322
-695299
-695302
-695264
-695239
-695209
-695166
-695273
-695093
-695073
-695055
-694896
-694815
-694774
-694781
-694661
-694675
-694642
-694415
-694422
-694305
-694251
-694260
-694021
-694019
-693887
-693911
-693662
-693651
-693633
-693559
-693639
-693371
-693377
-693446
-693336
-693245
-693127
-693142
-693255
-693274
-693258
-693019
-693082
-693100
-693125
-693177
-693072
-693137
-693280
-693296
-693244
-693211
-693357
-693283
-693385
-693452
-693370
-693527
-693498
-693584
-693665
-693703
-693818
-693846
-693895
-693940
-693892
-694013
-694100
-694140
-694291
-694195
-694284
-694343
-694470
-694508
-694359
-694451
-694392
-694684
-694704
-694624
-694739
-694968
-694919
-695064
-694960
-695120
-695200
-695186
-695338
-695307
-695433
-695549
-695555
-695658
-695531
-695456
-695728
-695819
-695933
-695936
-695972
-696069
-696226
-696199
-696206
-696240
-696250
-696403
-696395
-696324
-696386
-696510
-696471
-696651
-696638
-696673
-696779
-696765
-696812
-696771
-696775
-696758
-696855
-696945
-696898
-696991
-697049
-697106
-697144
-697145
-697244
-697250
-697387
-697361
-697321
-697350
-697503
-697598
-697660
-697609
-697629
-697645
-697773
-697928
-697768
-697800
-697955
-697942
-698121
-698038
-698074
-698223
-698306
-698302
-698219
-698241
-698273
-698414
-698415
-698468
-698462
-698652
-698675
-698760
-698683
-698620
-698687
-698724
-698853
-698782
-698688
-698852
-698866
-699087
-698874
-698893
-699046
-699010
-699057
-699034
-698902
-698983
-699042
-699098
-698862
-698843
-699096
-699158
-699209
-699054
-699191
-699185
-699228
-699178
-699105
-699357
-699366
-699383
-699253
-699256
-699441
-699522
-699473
-699366
-699397
-699438
-700097
-699755
-699566
-699452
-699661
-699633
-699756
-699740
-699619
-699754
-699883
-699877
-699858
-699938
-700017
-700111
-700113
-700040
-700116
-700233
-700292
-700201
-700178
-700276
-700277
-700416
-700409
-700371
-700388
-700491
-700546
-700514
-700451
-700464
-700543
-700628
-700627
-700489
-700682
-700685
-700798
-700683
-700583
-700729
-700732
-700658
-700656
-700641
-700584
-700624
-700643
-700555
-700375
-700379
-700292
-700256
-700066
-699494
-699232
-699057
-698763
-698360
-697834
-697504
-697068
-696555
-695956
-695336
-694863
-694210
-693708
-693124
-692438
-691847
-691232
-690698
-690161
-689513
-689101
-688569
-688075
-687593
-687024
-686727
-686385
-686112
-685684
-685374
-685103
-684935
-684750
-684537
-684236
-684175
-684077
-683981
-683945
-683797
-683951
-683931
-683907
-683969
-684347
-684170
-684189
-684270
-684359
-684274
-684590
-684622
-684850
-684879
-684886
-685169
-685347
-685479
-685614
-685728
-685908
-686157
-686373
-686526
-686459
-686677
-686938
-687162
-687301
-687311
-687601
-687752
-687868
-688030
-688100
-688290
-688473
-688638
-688841
-688782
-689080
-689592
-689451
-689571
-689504
-689654
-689793
-690028
-690215
-690139
-690358
-690356
-690475
-690585
-690497
-690653
-690682
-690736
-690752
-690593
-690763
-690771
-690772
-690715
-690841
-690828
-690862
-690789
-690720
-690838
-690766
-690856
-690831
-690699
-690810
-690836
-690899
-690903
-690850
-690940
-691053
-691114
-691205
-691053
-691264
-691236
-691425
-691475
-691482
-691640
-691722
-691764
-691910
-691923
-692065
-692175
-692159
-692347
-692265
-692448
-692509
-692630
-692718
-692588
-692715
-692692
-692697
-692808
-692672
-692751
-692784
-692768
-692725
-692551
-692623
-692680
-692486
-692442
-692290
-692270
-692302
-692213
-692211
-691978
-691971
-691813
-691792
-691723
-691560
-691545
-691502
-691551
-691425
-691345
-691330
-691323
-691253
-691321
-691051
-691120
-691133
-691254
-691096
-691267
-691251
-691266
-691318
-691297
-691477
-691438
-691470
-691631
-691483
-691635
-691783
-691882
-691929
-691873
-691927
-692099
-692117
-692267
-692151
-692325
-692430
-692535
-692616
-692542
-692724
-692866
-692925
-693123
-693003
-693086
-693235
-693362
-693449
-693349
-693616
-693664
-693753
-693864
-693788
-693897
-694048
-694159
-694295
-694164
-694263
-694311
-694521
-694555
-694415
-694487
-694625
-694624
-694799
-694584
-694807
-694713
-694905
-694847
-694802
-694867
-694827
-694884
-694948
-694907
-695016
-695034
-695113
-695116
-694945
-695002
-695098
-695145
-695308
-695156
-695325
-695324
-695418
-695410
-695161
-695436
-695505
-695547
-695613
-695475
-695653
-695750
-695789
-695836
-695796
-695856
-695853
-695903
-695954
-695919
-695987
-696126
-696052
-696189
-696053
-696171
-696180
-696242
-696278
-696269
-696315
-696318
-696339
-696350
-696335
-696403
-696318
-696465
-696552
-696378
-696400
-696415
-696410
-696435
-696438
-696402
-696356
-696489
-696531
-696218
-696388
-696437
-696463
-696512
-696322
-696435
-696498
-696511
-696474
-696356
-696480
-696512
-696540
-696485
-696364
-696373
-696514
-696478
-696483
-696415
-696381
-696368
-696345
-696488
-696389
-696406
-696503
-696371
-696469
-696323
-696478
-696448
-696441
-696465
-696403
-696401
-696470
-696535
-696520
-696390
-696487
-696614
-696651
-696564
-696534
-696510
-696606
-696706
-696698
-696722
-696679
-696768
-696773
-696925
-696806
-696768
-696935
-696971
-696931
-696935
-696945
-696871
-697006
-697045
-696960
-696948
-697037
-697125
-697167
-697130
-697159
-697163
-697211
-697311
-697319
-697376
-697210
-697385
-697396
-697332
-697372
-697438
-697422
-697453
-697290
-697247
-697222
-697084
-696928
-696608
-696315
-696158
-695871
-695550
-695099
-694532
-694219
-693544
-693276
-692607
-692040
-691665
-691133
-690615
-690041
-689430
-688953
-688311
-687949
-687309
-686767
-686347
-685861
-685522
-685005
-684314
-684161
-683939
-683569
-683195
-682661
-682648
-682505
-682323
-682090
-681877
-681904
-681802
-681862
-681734
-681664
-681726
-681824
-681845
-681930
-681835
-682062
-682120
-682216
-682254
-682312
-682527
-682718
-682830
-682946
-683047
-683299
-683541
-683696
-683777
-683624
-684121
-684360
-684486
-684638
-685122
-685115
-685144
-685316
-685523
-685486
-685718
-685879
-686132
-686288
-686282
-686556
-686666
-686945
-686949
-686959
-687170
-687233
-687450
-687488
-687507
-687672
-687843
-688285
-688077
-687963
-688054
-688149
-688303
-688299
-688269
-688404
-688565
-688623
-688715
-688605
-688737
-688735
-688826
-688870
-688796
-688915
-689010
-689057
-689107
-689027
-689111
-689162
-689321
-689339
-689368
-689449
-689573
-689569
-689633
-689676
-689838
-689893
-689865
-690026
-689951
-690005
-690153
-690129
-690090
-690147
-690220
-690264
-690311
-690372
-690156
-690292
-690353
-690332
-690314
-690131
-690191
-690297
-690249
-690272
-690149
-690201
-690137
-690076
-690088
-689828
-689888
-689871
-689753
-689703
-689510
-689471
-689347
-689285
-689266
-689093
-689007
-688942
-688912
-688797
-688446
-688485
-688457
-688330
-688227
-688037
-688022
-687979
-687842
-687821
-687632
-687657
-687710
-687597
-687488
-687357
-687294
-687363
-687301
-687311
-687004
-687170
-687199
-687214
-687120
-686991
-687135
-687147
-687218
-687238
-687460
-687356
-687297
-687336
-687332
-687326
-687427
-687494
-687505
-687652
-687598
-687681
-687753
-687846
-687894
-687865
-688056
-688137
-688253
-688292
-688237
-688253
-688346
-688426
-688538
-688424
-688584
-688630
-688717
-688731
-688619
-688770
-688887
-688922
-689015
-688934
-689034
-689179
-689173
-689258
-689245
-689315
-689470
-689440
-689514
-689394
-689638
-689617
-689702
-689842
-689803
-689969
-689919
-689968
-690114
-690041
-690141
-690266
-690339
-690376
-690357
-690475
-690544
-690601
-690536
-690591
-690648
-690725
-690823
-690885
-690763
-691010
-690966
-691106
-691127
-691137
-691293
-691341
-691382
-691526
-691459
-691526
-691554
-691708
-691715
-691721
-691940
-691850
-692033
-692153
-691991
-692085
-692155
-692186
-692306
-692211
-692418
-692506
-692553
-692551
-692432
-692640
-692629
-692681
-692747
-692683
-692798
-692866
-692918
-692905
-692858
-692931
-693066
-693039
-693084
-693011
-693097
-693177
-693206
-693222
-693044
-693157
-693226
-693133
-693294
-693285
-693425
-693422
-693439
-693519
-693455
-693577
-693616
-693585
-693696
-693587
-693592
-693636
-693672
-693648
-693562
-693636
-693699
-693649
-693663
-693514
-693616
-693742
-693701
-693791
-693664
-693705
-693500
-693564
-693748
-693694
-693659
-693785
-693806
-693798
-693742
-693749
-693857
-693887
-693934
-693727
-693823
-693829
-693957
-693907
-693793
-693911
-693919
-693873
-693955
-693880
-693938
-694045
-694062
-694142
-693995
-694029
-694055
-694107
-694137
-694044
-694120
-694068
-694124
-694136
-693932
-693920
-693852
-693783
-693620
-693382
-693199
-692904
-692650
-692283
-691844
-691476
-690903
-690462
-689988
-689260
-688703
-688205
-687553
-686990
-686353
-685646
-685106
-684518
-683941
-683235
-682709
-682185
-681739
-681250
-680589
-680169
-679721
-679392
-679062
-678537
-678200
-678000
-677679
-677297
-677031
-676928
-676843
-676631
-676628
-676444
-676294
-676362
-676392
-676368
-676301
-676360
-676497
-676565
-676649
-676631
-676749
-676963
-677138
-677298
-677271
-677378
-677641
-677654
-677880
-678027
-678061
-678357
-678566
-678824
-678919
-678995
-679265
-679420
-679624
-679641
-680138
-680142
-680233
-680389
-680399
-680377
-680649
-680855
-681324
-680988
-680995
-681216
-681284
-681377
-681326
-681366
-681466
-681559
-681677
-681537
-681502
-681660
-681634
-681686
-681652
-681666
-681810
-681732
-681806
-681660
-681625
-681642
-681597
-681785
-681758
-681683
-681682
-681760
-681797
-681742
-681735
-681745
-681872
-681644
-681770
-681759
-681914
-681911
-681988
-682008
-681982
-682118
-682209
-682319
-682305
-682229
-682376
-682335
-682445
-682367
-682276
-682477
-682457
-682611
-682565
-682463
-682505
-682566
-682588
-682468
-682399
-682542
-682497
-682421
-682402
-682292
-682343
-682284
-682257
-682207
-682053
-682085
-682033
-682069
-681967
-681772
-681825
-681780
-681708
-682114
-681725
-681605
-681567
-681479
-681393
-681135
-681150
-681093
-680969
-680828
-680725
-680767
-680627
-680632
-680517
-680342
-680361
-680251
-680196
-680086
-679873
-679758
-679868
-679765
-679630
-679439
-679522
-679421
-679341
-679292
-679068
-679104
-679028
-679106
-679087
-678849
-678904
-678848
-678869
-678912
-678704
-678748
-678724
-678748
-678699
-678665
-678758
-678846
-678858
-678902
-678795
-678883
-678933
-678946
-679051
-679023
-679042
-679127
-679147
-679159
-679097
-679212
-679262
-679327
-679386
-679297
-679453
-679534
-679617
-679607
-679423
-679662
-679641
-679787
-679809
-679745
-679827
-679907
-679926
-679884
-679879
-679930
-680064
-680509
-680257
-680102
-680209
-680248
-680185
-680226
-680190
-680273
-680289
-680396
-680490
-680338
-680469
-680527
-680498
-680513
-680435
-680494
-680626
-680654
-680745
-680571
-680714
-680738
-680760
-680818
-680712
-680881
-680964
-680941
-680970
-680898
-680922
-681010
-681055
-681077
-680965
-681024
-681006
-681170
-681193
-681060
-681120
-681197
-681199
-681276
-681148
-681312
-681356
-681401
-681462
-681332
-681368
-681466
-681514
-681488
-681422
-681433
-681507
-681511
-681578
-681425
-681583
-681602
-681592
-681539
-681405
-681532
-681542
-681539
-681510
-681306
-681356
-681216
-681235
-681311
-681174
-681301
-681196
-681166
-681088
-680970
-681077
-681029
-681028
-681027
-680850
-680828
-680872
-680812
-680753
-680670
-680735
-680653
-680677
-680746
-680488
-680647
-680607
-680493
-680454
-680296
-680397
-680442
-680376
-680374
-680382
-680402
-680371
-680433
-680421
-680308
-680319
-680426
-680319
-680389
-680215
-680251
-680340
-680346
-680422
-680199
-680230
-680269
-680271
-680329
-680221
-680304
-680267
-680290
-680351
-680141
-680266
-680322
-680304
-680357
-680135
-680040
-680255
-680302
-680301
-680184
-680242
-680303
-680381
-680157
-680214
-680295
-680420
-680411
-680422
-680306
-680452
-680435
-680445
-680524
-680395
-680464
-680473
-680589
-680540
-680467
-680452
-680436
-680473
-680505
-680391
-680394
-680447
-680404
-680244
-680121
-679943
-679909
-679750
-679467
-679053
-678897
-678502
-678203
-677832
-677313
-676872
-676359
-675938
-675372
-674679
-674207
-673722
-673187
-672689
-671994
-671116
-670808
-670341
-669920
-669227
-668765
-668363
-667860
-667494
-667009
-666650
-666295
-666004
-665629
-665321
-665058
-664881
-664661
-664428
-664153
-664159
-664095
-663953
-664034
-663826
-663829
-663926
-663985
-664072
-663975
-663930
-663910
-664078
-664143
-664244
-664227
-664449
-664567
-664712
-664650
-664709
-664930
-665004
-665023
-665072
-665125
-665367
-665401
-665580
-665626
-665690
-665895
-665989
-666063
-666086
-666098
-666325
-666493
-667001
-667455
-667831
-667984
-668213
-668433
-668559
-668734
-669017
-669074
-669007
-668911
-668707
-668870
-668858
-668943
-668877
-668796
-668723
-668857
-668846
-668857
-668682
-668865
-668892
-668871
-668889
-668731
-668795
-668800
-668833
-668933
-668955
-669014
-669044
-669131
-669108
-668955
-669090
-669161
-669400
-669461
-669271
-669561
-669856
-669894
-669901
-670044
-670242
-670400
-670646
-670715
-670819
-671343
-671299
-671449
-671589
-671675
-671919
-672179
-672355
-672400
-672490
-672768
-672988
-673055
-673206
-673279
-673526
-673516
-673684
-673786
-673823
-673972
-674010
-674221
-674252
-674164
-674376
-674429
-674458
-674469
-674500
-674562
-674635
-674610
-674573
-674511
-674499
-674539
-674614
-674499
-674321
-674436
-674405
-674457
-674314
-674194
-674270
-674195
-674054
-674146
-674003
-673982
-673918
-673886
-673871
-673744
-673815
-673699
-673783
-673613
-673441
-673597
-673547
-673571
-673494
-673326
-673253
-673323
-673358
-673417
-673231
-673344
-673274
-673331
-673275
-673126
-673294
-673242
-673381
-673277
-673181
-673244
-673359
-673654
-673362
-673172
-673389
-673416
-673476
-673242
-673321
-673439
-673497
-673509
-673518
-673389
-673552
-673485
-673562
-673595
-673417
-673614
-673644
-673604
-673730
-673613
-673847
-673840
-673828
-673896
-673869
-674038
-674095
-674122
-674141
-674049
-674300
-674353
-674476
-674538
-674482
-674608
-674737
-674768
-674916
-674893
-675016
-675105
-675175
-675324
-675173
-675397
-675425
-675577
-675651
-675574
-675812
-675867
-676009
-676045
-675965
-676094
-676106
-676155
-676184
-676183
-676242
-676375
-676469
-676467
-676432
-676316
-676472
-676599
-676658
-676565
-676721
-676628
-676708
-676693
-676579
-676718
-676743
-676726
-676723
-676625
-676756
-676795
-677062
-676937
-676644
-676674
-676745
-676712
-676728
-676545
-676673
-676652
-676619
-676534
-676367
-676399
-676539
-676569
-676503
-676418
-676505
-676512
-676490
-676369
-676302
-676412
-676387
-676378
-676454
-676323
-676447
-676369
-676397
-676518
-676346
-676518
-676547
-676471
-676610
-676472
-676522
-676524
-676562
-676670
-676547
-676618
-676702
-676791
-676768
-676883
-676848
-676934
-676964
-676867
-676925
-676942
-677003
-677108
-676984
-677103
-677221
-677255
-677308
-677205
-677355
-677463
-677502
-677493
-677512
-677616
-677622
-677729
-677812
-677768
-677888
-677957
-678102
-678174
-678166
-678326
-678409
-678475
-678504
-678453
-678582
-678649
-678705
-678715
-678720
-678891
-678944
-679034
-678940
-679219
-679275
-679241
-679299
-679280
-679356
-679361
-679368
-679301
-679497
-679573
-679656
-679730
-679726
-679399
-679479
-680148
-679933
-679870
-679661
-679750
-679779
-679723
-679624
-679380
-679406
-679390
-679200
-678931
-678596
-678420
-677748
-677574
-677185
-676656
-676262
-675782
-675209
-674736
-674052
-673513
-672879
-672310
-671779
-671071
-670489
-670081
-669659
-669048
-668311
-667753
-667431
-666997
-666517
-665973
-665628
-665390
-665151
-664802
-664311
-664195
-664050
-663840
-663677
-663451
-663365
-663268
-663298
-663405
-663225
-663292
-663469
-663509
-663587
-663575
-664176
-663983
-664120
-664260
-664227
-664353
-664579
-664775
-664995
-665081
-665167
-665383
-665631
-665822
-665892
-666144
-666349
-666538
-666740
-666710
-666902
-667098
-667306
-667460
-667563
-667716
-667899
-668019
-668216
-668260
-668332
-668592
-668621
-668727
-669236
-668792
-668954
-669147
-669219
-669162
-669161
-669295
-669362
-669414
-669201
-669344
-669564
-669636
-669576
-669520
-669624
-669597
-669718
-669733
-669791
-669726
-669768
-669894
-669934
-669835
-669754
-669949
-669930
-670050
-669983
-670081
-670153
-670194
-670371
-670340
-670302
-670458
-670512
-670688
-670632
-670489
-670744
-670836
-670816
-670808
-670854
-670899
-670948
-670963
-671019
-670956
-671029
-671037
-671041
-671093
-670937
-671086
-670923
-671130
-671146
-670902
-670951
-670988
-670923
-670911
-670822
-670824
-670804
-670821
-670740
-670583
-670661
-670644
-670566
-670433
-670259
-670393
-670256
-670293
-670158
-669989
-670056
-669993
-669932
-669876
-669679
-669550
-669587
-669606
-669456
-669254
-669306
-669263
-669246
-669228
-669037
-668946
-669042
-669011
-668992
-668864
-668906
-668868
-668894
-668929
-668710
-668817
-668864
-668885
-668668
-668783
-668894
-668933
-668975
-669038
-668945
-669108
-669123
-669277
-669280
-669279
-669350
-669435
-669570
-669578
-669479
-669658
-669762
-669737
-669825
-669757
-669905
-669985
-670044
-670713
-670243
-670280
-670267
-670370
-670430
-670358
-670420
-670519
-670625
-670756
-670595
-670838
-670842
-670925
-670943
-670923
-671091
-671102
-671240
-671385
-671228
-671388
-671451
-671466
-671551
-671490
-671670
-671684
-671726
-671781
-671750
-671947
-671967
-672061
-672204
-672038
-672115
-672250
-672326
-672284
-672165
-672307
-672400
-672536
-672522
-672460
-672657
-672656
-672750
-672765
-672660
-672846
-672922
-672903
-673051
-672989
-673167
-673159
-673152
-673337
-673197
-673394
-673254
-673414
-673435
-673272
-673514
-673556
-673647
-673700
-673585
-673680
-673686
-673788
-673895
-673824
-674019
-674024
-674047
-674054
-673947
-674081
-674255
-674259
-674253
-674201
-674301
-674415
-674396
-674500
-674431
-674571
-674720
-674729
-674671
-674643
-674744
-674816
-674883
-674829
-674727
-674787
-674865
-674947
-674944
-674719
-674877
-674992
-675015
-674980
-674714
-674890
-674956
-675027
-675052
-674914
-675001
-674990
-675032
-675136
-674928
-675049
-675123
-675132
-675107
-675094
-675096
-675142
-675263
-675209
-675118
-675106
-674926
-675147
-675227
-675246
-675304
-675395
-675398
-675510
-675649
-675496
-675449
-675484
-675488
-675398
-675547
-675621
-675584
-675647
-675403
-675654
-675689
-675829
-675908
-676242
-676045
-675948
-676044
-676067
-675992
-676055
-676120
-676314
-676378
-676230
-676362
-676442
-676361
-676512
-676420
-676573
-676555
-676756
-676801
-676669
-676792
-676882
-676962
-677001
-676878
-676991
-677159
-677155
-677256
-677172
-677278
-677377
-677484
-677492
-677365
-677468
-677581
-677596
-677664
-677492
-677376
-677433
-677326
-677344
-677048
-676992
-676772
-676464
-676316
-675797
-675416
-675192
-674738
-674256
-673685
-673121
-672532
-672131
-671528
-670849
-670264
-669766
-669167
-668702
-668048
-667507
-666876
-666447
-665922
-665242
-664859
-664426
-664121
-663681
-663169
-662903
-662624
-662372
-662120
-661816
-661654
-661522
-661459
-661369
-661185
-661077
-661074
-661155
-661140
-661020
-661100
-661228
-661328
-661484
-661511
-661574
-661778
-661858
-662050
-662084
-662265
-662452
-662616
-662834
-662994
-663126
-663340
-663520
-663778
-663886
-663954
-664200
-664486
-664650
-664707
-664737
-665056
-665255
-665389
-665475
-665511
-665733
-665990
-666428
-666168
-666131
-666330
-666527
-666624
-666587
-666567
-666683
-666804
-666917
-666746
-666884
-667054
-667460
-667274
-667175
-667005
-667136
-667261
-667321
-667247
-667149
-667324
-667383
-667545
-667414
-667357
-667471
-667548
-667632
-667629
-667479
-667641
-667615
-667690
-667792
-667653
-667797
-667841
-667854
-667924
-667936
-668061
-668182
-668150
-668203
-668174
-668263
-668323
-668410
-668342
-668247
-668417
-668492
-668568
-668529
-668413
-668482
-668527
-668518
-668496
-668406
-668513
-668573
-668646
-668635
-668475
-668594
-668623
-668538
-668572
-668370
-668458
-668450
-668415
-668459
-668212
-668308
-668342
-668270
-668065
-667931
-668102
-668032
-668083
-668044
-667782
-667843
-667775
-667770
-667452
-667465
-667416
-667357
-667299
-667192
-667184
-667104
-666967
-667065
-666932
-666950
-666902
-667278
-666806
-666727
-666810
-666840
-666759
-666774
-666641
-666761
-666785
-666840
-666789
-666779
-666841
-666840
-666884
-666927
-666867
-667005
-667076
-667139
-667179
-667012
-667162
-667249
-667336
-667163
-667255
-667412
-667567
-667493
-667547
-667472
-667696
-667751
-667687
-667759
-667672
-667864
-668009
-667983
-668090
-668044
-668206
-668223
-668391
-668266
-668319
-668386
-668606
-668642
-668732
-668708
-668789
-668942
-669391
-669146
-669273
-669231
-669261
-669314
-669278
-669306
-669433
-669629
-669689
-669717
-669603
-669658
-669806
-669844
-669902
-669825
-669972
-669976
-669983
-670104
-670073
-670182
-670244
-670335
-670370
-670276
-670359
-670429
-670525
-670593
-670503
-670610
-670724
-670707
-670877
-670798
-670893
-670923
-671051
-670939
-670989
-671511
-671472
-671417
-671564
-671466
-671629
-671760
-671801
-671907
-671792
-671931
-672088
-672061
-672183
-672194
-672922
-672918
-672576
-672539
-672438
-672578
-672642
-672686
-672792
-672752
-672994
-672997
-672990
-673109
-673052
-673126
-673280
-673296
-673383
-673258
-673367
-673540
-673470
-673613
-673450
-673346
-673486
-673701
-673773
-673636
-673805
-673833
-673910
-673962
-673874
-673998
-674028
-674047
-674033
-673880
-674010
-674054
-674137
-674777
-674270
-674100
-674041
-674149
-674143
-674132
-674258
-674250
-674312
-674249
-674163
-674290
-674286
-674304
-674333
-674304
-674322
-674361
-674359
-674270
-674353
-674439
-674536
-674495
-674578
-674410
-674575
-674580
-674713
-674691
-674586
-674649
-674698
-674821
-674913
-674777
-674835
-674870
-674716
-674887
-674908
-675030
-675053
-675100
-675199
-675015
-675115
-675251
-675265
-675329
-675155
-675243
-675387
-675380
-675459
-675335
-675351
-675406
-675456
-675555
-675530
-675842
-675733
-675666
-675735
-675589
-675657
-675736
-675754
-675746
-675758
-675743
-675829
-675848
-675920
-675816
-675762
-675856
-675780
-675797
-675514
-675291
-675279
-674981
-674712
-674334
-673879
-673579
-673183
-672689
-672082
-671505
-671057
-670588
-669995
-669436
-668785
-668223
-667702
-667100
-666402
-665785
-665291
-664876
-664403
-663837
-663205
-662844
-662452
-662072
-661434
-661142
-660980
-660660
-660463
-660207
-659939
-659827
-659726
-659428
-659265
-659252
-659326
-659472
-659466
-659492
-659459
-659495
-659639
-659817
-659937
-659913
-660127
-660290
-660492
-660569
-660699
-660926
-661124
-661403
-661496
-661556
-661834
-661983
-662324
-662556
-662528
-662735
-662985
-663014
-663276
-663338
-663588
-663823
-663992
-664232
-664256
-664430
-664605
-664762
-664842
-664774
-664933
-665159
-665202
-665259
-665218
-665457
-665464
-665646
-665411
-665461
-665660
-665831
-665932
-665979
-665865
-665937
-666015
-666040
-666043
-665998
-666161
-666214
-666279
-666248
-666265
-666432
-666396
-666438
-666527
-666394
-666490
-666589
-666649
-666634
-666593
-667274
-667043
-666905
-666931
-666828
-667017
-667157
-667147
-667714
-667323
-667393
-667406
-667436
-667554
-667405
-667533
-667576
-667614
-667743
-667652
-667781
-667862
-667738
-667752
-667691
-667835
-667925
-667923
-667963
-667850
-667915
-667879
-667865
-667929
-667759
-667846
-667775
-667871
-667746
-667570
-667622
-667629
-667718
-667606
-667443
-667530
-667417
-667416
-667393
-667168
-667266
-667206
-667168
-667154
-666944
-667003
-666945
-666790
-666689
-666548
-666591
-666618
-666542
-666530
-666325
-666342
-666324
-666348
-666208
-666063
-666080
-666104
-666207
-666228
-666035
-666175
-666058
-666105
-666137
-666061
-666164
-666180
-666291
-666292
-666183
-666327
-666385
-666294
-666437
-666278
-666541
-666637
-666633
-666676
-666513
-666618
-666766
-666788
-666830
-666866
-666975
-667070
-667139
-667213
-667069
-667604
-667444
-667477
-667503
-667371
-667541
-667670
-667686
-667716
-667664
-667857
-667866
-667963
-667957
-668007
-668170
-668305
-668322
-668344
-668241
-668357
-668497
-668520
-668640
-668500
-668684
-668743
-668754
-668897
-668774
-668842
-669010
-669056
-669059
-669025
-669111
-669135
-669260
-669612
-669345
-669352
-669424
-669517
-669507
-669499
-669636
-669728
-669758
-669689
-669705
-669782
-669865
-669954
-669981
-669951
-669999
-670138
-670203
-670290
-670203
-670251
-670394
-670368
-670445
-670394
-670421
-670520
-670652
-670659
-670576
-670568
-670622
-670780
-670841
-670666
-670816
-670881
-670836
-670938
-670907
-670990
-671060
-670984
-671103
-671018
-670986
-671063
-671092
-671121
-671087
-671125
-671240
-671290
-671249
-671148
-671245
-671339
-671325
-671359
-671181
-671238
-671298
-671434
-671437
-671348
-671343
-671398
-671453
-671517
-671309
-671310
-671480
-671475
-671454
-671427
-671480
-671464
-671497
-671531
-671406
-671486
-671520
-671557
-671629
-671450
-671503
-671501
-671549
-671608
-671604
-671574
-671671
-671648
-671685
-671570
-671528
-671609
-671610
-671553
-671466
-671361
-671516
-671643
-671598
-671602
-671598
-671625
-671719
-671745
-671753
-671837
-671866
-671969
-672037
-672081
-672028
-672156
-672173
-672283
-672321
-672263
-672422
-672468
-672526
-672555
-672520
-672662
-672630
-672767
-672690
-672635
-672748
-672848
-672991
-672888
-672851
-672900
-672935
-673007
-673058
-672970
-673134
-673082
-673113
-673047
-672946
-673001
-672929
-673007
-672831
-672545
-672293
-672096
-671791
-671376
-671061
-670607
-670271
-669827
-669198
-668793
-668299
-667765
-667236
-666507
-666013
-665488
-664935
-664164
-663605
-663213
-662716
-662169
-661600
-661043
-660670
-660290
-659853
-659446
-658930
-658770
-658538
-658275
-658013
-657625
-657593
-657393
-657358
-657306
-656974
-657042
-657111
-657133
-657175
-657044
-657147
-657217
-657333
-657440
-657517
-657705
-657870
-657975
-658262
-658296
-658549
-658694
-658911
-659112
-659082
-659397
-659542
-659774
-659990
-660066
-660352
-660558
-660751
-660953
-660990
-661219
-661371
-661594
-661732
-661771
-662056
-662202
-662328
-662432
-662400
-662608
-662741
-662736
-662953
-662961
-663148
-663171
-663289
-663408
-663361
-663475
-663417
-663546
-663643
-663497
-663653
-663706
-663765
-663809
-663620
-663803
-663791
-663891
-663904
-663734
-663963
-663914
-663987
-663965
-663828
-664056
-664080
-664043
-664197
-664082
-664255
-664296
-664393
-664544
-664299
-664479
-664554
-664609
-664756
-664694
-664864
-664889
-664948
-664997
-664948
-665033
-665081
-665138
-665055
-665053
-665221
-665283
-665209
-665326
-665177
-665293
-665340
-665273
-665274
-665640
-665386
-665341
-665492
-665357
-665087
-665187
-665301
-665244
-665152
-665004
-665091
-665102
-664971
-664939
-664775
-664834
-664786
-664745
-664800
-664500
-664516
-664512
-664534
-664441
-664279
-664255
-664217
-664201
-664029
-663878
-663915
-663829
-663808
-663745
-663570
-663652
-663675
-663683
-663674
-663226
-663500
-663509
-663554
-663573
-663393
-663413
-663443
-663481
-663539
-663387
-663484
-663516
-663649
-663722
-663598
-663636
-663731
-663817
-663804
-663762
-663968
-664065
-664160
-664277
-664159
-664230
-664369
-664418
-664555
-664486
-664610
-664613
-664721
-664815
-664885
-665010
-665040
-665159
-665237
-665220
-665191
-665372
-665399
-665475
-665372
-665514
-665630
-665679
-665779
-665785
-665890
-665975
-666102
-666226
-666150
-666239
-666351
-666364
-666480
-666453
-666624
-666674
-666769
-666909
-666783
-666875
-666982
-667002
-667157
-667034
-667046
-667196
-667238
-667366
-667303
-667254
-667423
-667487
-667591
-667531
-667640
-667794
-667762
-667795
-667734
-667828
-667981
-668066
-668072
-667976
-667919
-668059
-668142
-668223
-668161
-668252
-668280
-668376
-668451
-668377
-668447
-668603
-668590
-668813
-668760
-668796
-668963
-669032
-669091
-669028
-668975
-669074
-669229
-669305
-669521
-669351
-669511
-669483
-669528
-669511
-669527
-669683
-669698
-669718
-669622
-669645
-669864
-669790
-669909
-669891
-669933
-670029
-670054
-670164
-670183
-670102
-670121
-670137
-670240
-670130
-670070
-670210
-670259
-670415
-670406
-670294
-670402
-670408
-670327
-670408
-670305
-670455
-670545
-670559
-670648
-670541
-670596
-670646
-670758
-670736
-670677
-670735
-670874
-670884
-670894
-670800
-671053
-671144
-671184
-671283
-671143
-671290
-671332
-671182
-671156
-670943
-670931
-670980
-670932
-671049
-670922
-671122
-671201
-671295
-671281
-671123
-671312
-671355
-671557
-671671
-671563
-671741
-671867
-671925
-671932
-671856
-672088
-672112
-672204
-672291
-672168
-672250
-672202
-672103
-672146
-672060
-672117
-672209
-672136
-672135
-671994
-672137
-672157
-672135
-672111
-672004
-672031
-672143
-672180
-672109
-672057
-672157
-672220
-672274
-672304
-672215
-672206
-672325
-672416
-672528
-672434
-672600
-672660
-672606
-672627
-672478
-672576
-672612
-672509
-672510
-672241
-672097
-672027
-671822
-671606
-671071
-670823
-670580
-670048
-669524
-669020
-668578
-668021
-667493
-666902
-666233
-665661
-665104
-664577
-663947
-663239
-662762
-662167
-661688
-661159
-660502
-660103
-659558
-659219
-658784
-658303
-658050
-657709
-657378
-657135
-656637
-656550
-656449
-656303
-656204
-655959
-656013
-656003
-655997
-656050
-655787
-655820
-656054
-656156
-656337
-656331
-656554
-656675
-656783
-656991
-656938
-657254
-657282
-657422
-657729
-657645
-657959
-658208
-658258
-658453
-658641
-658851
-658974
-659181
-659436
-659417
-659731
-659887
-660049
-660236
-660280
-660428
-660613
-660837
-660982
-660920
-661144
-661216
-661360
-661480
-661476
-661674
-661788
-661940
-661979
-661794
-662003
-662156
-662339
-662381
-662362
-662461
-662633
-662670
-662682
-662582
-662721
-662760
-662953
-662993
-662918
-662985
-663143
-663107
-663145
-663104
-663205
-663204
-663335
-663492
-663378
-663434
-663586
-663709
-663742
-663646
-663694
-663860
-663958
-663985
-663906
-664015
-664127
-664206
-664308
-664241
-664313
-664488
-664514
-664614
-664506
-664599
-664640
-664784
-664775
-664750
-664714
-664764
-664770
-664944
-664880
-664821
-664989
-665016
-664923
-664871
-664851
-664861
-664857
-664829
-664808
-664765
-664751
-664749
-664661
-664564
-664619
-664601
-664520
-664415
-664365
-664357
-664294
-664233
-664106
-664044
-664075
-663919
-663877
-663722
-663609
-663711
-663584
-663641
-663438
-663279
-663365
-663454
-663480
-663185
-663157
-663272
-663315
-663348
-663276
-663193
-663212
-663214
-663304
-663275
-663228
-663379
-663348
-663412
-663340
-663272
-663400
-663504
-663574
-663564
-663533
-663569
-663622
-663768
-663732
-663666
-663791
-663876
-663906
-663941
-663944
-663980
-664120
-664167
-664199
-664171
-664300
-664405
-664408
-664401
-664297
-664507
-664554
-664666
-664694
-664661
-664706
-664801
-664929
-665000
-664874
-664993
-665106
-665133
-665188
-665004
-665249
-665202
-665312
-665399
-665322
-665369
-665430
-665509
-665534
-665432
-665618
-665659
-665661
-665678
-665617
-665772
-665851
-665889
-665949
-665925
-665952
-666147
-666164
-666203
-666111
-666280
-666339
-666479
-666476
-666473
-666590
-666735
-666794
-666822
-666752
-666915
-666897
-666933
-667036
-666982
-667111
-667223
-667288
-667273
-667234
-667429
-667370
-667371
-667570
-667456
-667592
-667655
-667616
-667730
-667538
-667648
-667669
-667729
-667810
-667652
-667796
-667906
-667899
-667940
-667873
-667982
-668018
-668023
-667989
-668150
-668147
-668186
-668229
-668105
-668169
-668284
-668355
-668348
-668186
-668324
-668361
-668261
-668484
-668270
-668394
-668385
-668464
-668474
-668383
-668450
-668547
-668519
-668636
-668505
-668513
-668630
-668671
-668685
-668564
-668732
-668707
-668692
-668779
-668587
-668685
-668806
-668748
-668836
-668732
-668788
-668800
-668892
-668885
-668822
-668825
-668899
-668982
-669009
-668898
-669028
-669064
-669048
-669044
-668895
-669005
-669023
-669073
-669108
-669025
-669152
-669060
-669195
-669191
-669145
-669222
-669218
-669264
-669239
-669072
-669161
-669255
-669298
-669279
-669215
-669291
-669323
-669278
-669240
-669037
-669074
-668971
-668790
-668663
-668291
-668143
-667789
-667522
-667218
-666644
-666273
-665842
-665336
-664866
-664288
-663878
-663258
-662758
-662250
-661586
-661007
-660576
-660049
-659448
-658834
-658281
-657965
-657499
-656999
-656477
-656079
-655652
-655241
-654928
-654466
-654270
-654031
-653741
-653512
-653301
-653165
-653022
-652950
-652952
-652786
-652855
-652873
-652795
-652907
-652830
-652892
-653094
-653238
-653399
-653417
-653569
-653759
-653996
-653912
-654131
-654321
-654585
-654728
-655053
-655031
-655330
-655567
-655843
-655910
-656027
-656095
-656362
-656520
-656814
-656799
-656986
-657209
-657425
-657594
-658313
-657885
-657962
-658131
-658121
-658194
-658314
-658489
-658721
-658846
-658863
-658900
-659076
-659105
-659218
-659291
-659209
-659324
-659336
-659485
-659502
-659526
-659637
-659692
-659836
-659830
-659736
-659926
-660006
-660017
-659943
-659954
-660094
-660058
-660214
-660110
-660183
-660289
-660350
-660426
-660371
-660320
-660500
-660605
-660705
-660724
-660578
-660765
-660783
-660935
-660885
-660876
-660930
-660982
-661073
-661029
-660923
-661054
-661059
-661158
-661157
-661063
-661093
-661198
-661147
-661144
-661015
-661032
-661044
-661066
-660919
-660904
-660860
-660820
-660843
-660687
-660565
-660509
-660418
-660355
-660281
-660059
-660100
-660014
-659983
-659882
-659726
-659678
-659666
-659615
-659525
-659344
-659392
-659221
-659158
-659143
-658992
-658978
-659024
-659018
-658910
-658651
-658780
-658775
-658766
-658699
-658647
-658677
-658665
-658794
-658780
-658648
-658651
-658845
-658912
-658841
-658805
-658859
-658834
-658919
-658905
-658718
-658804
-658834
-658824
-658682
-658541
-658522
-658500
-658483
-658407
-658234
-658386
-658367
-658276
-658300
-658080
-658298
-658246
-658178
-658198
-658058
-658137
-658104
-658114
-658136
-658059
-658157
-658085
-658208
-658220
-658158
-658247
-658208
-658221
-658180
-658149
-658204
-658345
-658420
-658506
-658377
-658265
-658802
-658575
-658602
-658369
-658347
-658344
-658337
-658497
-658295
-658346
-658428
-658463
-658518
-658461
-658516
-658497
-658598
-658686
-658664
-658723
-658786
-658817
-658795
-658739
-658846
-658931
-659026
-659109
-658978
-659139
-659233
-659339
-659390
-659245
-659358
-659466
-659585
-659582
-659453
-659585
-659664
-659623
-659811
-659677
-659828
-659927
-659974
-660035
-659946
-660029
-660155
-660191
-660047
-660222
-660211
-660292
-660311
-660136
-660330
-660413
-660448
-660483
-660382
-660557
-660500
-660530
-660638
-660612
-660600
-660667
-660800
-660757
-660737
-660877
-661021
-661073
-661086
-660935
-661057
-661190
-661194
-661304
-661247
-661401
-661427
-661603
-661611
-661586
-661660
-661755
-661939
-661927
-661842
-661914
-661994
-662049
-662154
-662107
-662215
-662266
-662333
-662349
-662448
-662455
-662502
-662636
-662566
-662645
-662815
-662857
-662895
-662804
-662897
-663031
-663015
-663038
-663088
-663061
-663023
-662994
-663006
-662818
-662809
-662709
-662623
-662364
-662016
-661731
-661444
-661094
-660695
-660207
-659767
-659347
-658944
-658425
-657713
-657204
-656772
-656157
-655593
-654934
-654418
-653927
-653523
-652906
-652238
-651616
-651379
-650978
-650613
-650066
-649714
-649422
-649171
-648878
-648509
-648178
-648008
-647943
-647863
-647598
-647696
-647512
-647468
-647432
-647359
-647352
-647470
-647502
-647598
-647710
-647774
-647914
-648121
-648255
-648370
-648430
-648616
-648734
-648863
-648888
-649000
-649279
-649430
-649654
-649813
-649886
-650144
-650360
-650545
-650752
-650753
-650996
-651133
-651358
-651555
-651583
-651736
-651941
-652172
-652143
-652159
-652278
-652266
-652394
-652338
-652272
-652277
-652331
-652293
-652261
-652136
-652211
-652240
-652229
-652270
-652163
-652330
-652192
-652634
-652223
-652114
-652058
-651908
-652039
-651967
-651911
-651758
-651985
-652024
-651941
-651784
-651932
-652038
-652048
-652124
-652061
-652292
-652330
-652454
-652494
-652522
-652644
-652832
-653012
-653087
-652991
-653194
-653354
-653455
-653510
-653473
-653743
-653791
-653861
-653942
-653958
-654091
-654077
-654155
-654346
-654322
-654386
-654248
-654387
-654476
-654421
-654511
-654455
-654466
-654493
-654329
-654463
-654406
-654461
-654420
-654199
-654289
-654247
-654214
-654205
-654115
-654130
-654061
-654037
-653995
-653814
-653875
-653795
-653691
-653637
-653461
-653521
-653502
-653359
-653286
-653121
-653073
-653061
-652976
-653033
-652848
-652965
-652778
-652755
-652856
-652712
-652699
-652654
-652595
-652652
-652587
-652657
-652669
-652700
-652705
-652654
-652735
-652888
-652869
-653018
-652896
-653016
-653097
-653135
-653276
-653190
-653330
-653365
-653333
-653467
-653502
-653665
-653883
-653901
-653976
-653988
-654219
-654382
-654398
-654552
-654457
-654709
-654838
-654915
-654974
-654901
-655219
-655280
-655424
-655551
-655407
-655656
-655841
-655851
-655962
-655914
-656078
-656192
-656236
-656276
-656327
-656470
-656617
-656698
-656766
-656689
-656933
-657008
-656983
-657224
-657239
-657319
-657391
-657538
-657627
-657506
-657683
-657765
-657781
-657924
-657891
-658084
-658126
-658191
-658306
-658259
-658339
-658491
-658554
-658666
-658678
-658811
-658898
-659006
-658989
-658961
-659079
-659124
-659280
-659365
-659215
-659374
-659538
-659641
-659628
-659588
-659678
-659723
-659907
-659984
-659830
-659931
-660133
-660151
-660163
-660145
-660211
-660298
-660367
-660875
-660643
-660534
-660687
-660719
-660817
-660728
-660807
-660887
-661007
-660965
-660908
-660994
-661074
-661099
-661216
-661148
-661156
-661206
-661193
-661247
-661208
-661174
-661743
-661408
-661418
-661335
-661419
-661389
-661515
-661456
-661396
-661410
-661516
-661571
-662167
-661718
-661641
-661809
-661862
-661929
-661859
-661884
-662065
-662115
-662239
-662179
-662110
-662246
-662346
-662520
-662523
-662481
-662714
-662752
-662849
-662588
-662767
-662919
-663021
-663160
-663132
-663080
-663239
-663300
-663376
-663470
-663412
-663547
-662674
-663353
-663500
-663485
-663613
-663694
-663678
-663656
-663571
-663618
-663653
-663617
-663463
-663203
-663097
-662861
-662508
-662124
-661743
-661232
-661006
-660469
-660099
-659496
-658987
-658473
-657956
-657340
-656597
-656089
-655600
-655033
-654459
-653713
-653345
-653166
-652505
-651910
-651304
-650983
-650554
-650171
-649853
-649377
-649106
-648878
-648689
-648501
-648234
-648161
-648044
-647925
-647886
-647769
-647944
-647836
-647888
-647882
-647863
-648058
-648104
-648308
-648427
-648354
-648600
-648856
-648980
-649195
-649238
-649523
-649712
-649941
-649928
-650188
-650431
-650740
-650961
-651117
-651137
-651531
-651788
-651914
-652067
-652165
-652418
-652589
-652834
-652962
-652986
-653242
-653364
-653556
-653703
-653691
-653895
-653965
-654111
-654196
-654159
-654266
-654367
-654385
-654474
-654350
-654557
-654581
-654594
-654700
-654593
-654674
-654677
-654731
-654811
-654715
-654794
-654801
-654868
-654890
-654780
-654893
-654953
-654987
-655379
-655015
-655077
-655084
-655114
-655203
-655047
-655196
-655270
-655325
-655348
-655337
-655417
-655455
-655799
-655997
-655832
-655797
-655732
-655735
-655794
-655688
-655829
-655875
-655795
-655781
-655704
-655708
-655662
-655713
-655838
-655635
-655650
-655599
-655652
-655579
-655502
-655552
-655531
-655453
-655484
-655213
-655220
-655193
-655167
-655071
-654881
-654809
-654854
-654890
-654758
-654545
-654641
-654571
-654526
-654384
-654181
-654171
-654068
-653980
-654088
-653774
-653734
-653747
-653648
-653571
-653412
-653411
-653326
-653230
-653154
-652988
-652981
-652954
-653001
-653011
-652803
-652808
-652893
-652949
-652871
-652820
-652880
-652917
-652992
-653114
-652904
-653026
-653392
-653274
-653207
-653129
-653313
-653352
-653437
-653564
-653544
-653598
-653702
-653792
-653940
-653912
-654017
-654234
-654273
-654270
-654223
-654419
-654490
-654698
-654763
-654745
-654846
-654971
-655119
-655291
-655175
-655469
-655447
-655723
-655824
-655799
-655922
-656190
-656303
-656484
-656510
-656585
-656695
-656830
-657018
-657088
-657228
-657369
-657576
-657497
-657703
-657851
-658047
-658117
-658278
-658305
-658490
-658664
-658897
-659024
-659036
-659223
-659388
-659539
-659678
-659867
-659919
-660151
-660287
-660399
-660535
-660806
-660871
-661027
-661128
-661089
-661159
-661309
-661326
-661612
-661793
-661714
-661736
-661678
-661465
-661288
-661185
-661372
-661489
-661587
-661458
-661417
-661468
-661553
-661625
-661620
-661738
-661917
-661841
-662213
-661959
-661865
-661897
-661967
-661976
-662014
-661907
-662055
-661948
-661988
-661933
-661816
-661968
-661983
-661999
-661880
-661825
-661840
-661915
-661985
-661964
-661799
-661867
-661917
-661953
-661964
-661813
-662044
-662002
-662065
-662140
-662028
-662121
-662201
-662238
-662191
-662242
-662340
-662274
-662421
-662335
-662270
-662300
-662352
-662412
-662451
-662396
-662510
-662512
-662503
-662626
-662537
-662641
-662671
-662772
-662717
-662611
-662800
-662775
-662855
-662848
-662801
-662851
-662904
-663073
-663051
-662952
-663093
-663192
-663202
-663292
-663273
-663338
-663380
-663503
-663522
-663238
-663445
-663403
-663507
-663630
-663401
-663364
-663404
-663410
-663382
-663173
-663101
-662862
-662692
-662463
-662056
-661769
-661349
-660895
-660483
-659930
-659535
-659010
-658502
-657965
-657145
-656590
-656072
-655461
-654952
-654255
-653700
-653144
-652590
-652041
-651426
-651050
-650580
-650095
-649715
-649223
-648831
-648587
-648216
-647933
-647530
-647398
-647187
-647042
-646890
-646621
-646562
-646534
-646536
-646511
-646404
-646506
-646477
-646501
-646563
-646628
-646727
-646748
-646835
-646958
-647038
-647253
-647404
-647464
-647707
-647678
-647970
-648138
-648279
-648471
-648526
-648734
-648938
-649089
-649277
-649377
-649576
-649709
-649911
-649956
-650023
-650156
-650328
-650484
-650447
-650650
-650761
-650956
-651000
-650876
-651072
-651076
-651112
-651177
-651074
-651283
-651294
-651375
-651419
-651244
-651294
-651350
-651287
-651324
-651267
-651303
-651283
-651258
-651290
-651470
-651345
-651205
-651225
-651140
-651015
-651077
-651217
-651208
-651149
-651050
-651182
-651333
-651360
-651587
-651749
-651956
-652084
-652185
-652271
-652275
-652462
-652540
-652551
-652559
-652436
-652568
-652612
-652649
-652755
-652756
-652829
-652922
-652986
-653061
-652890
-652846
-652992
-653580
-653306
-653118
-653201
-653256
-653324
-653167
-653255
-653398
-653440
-653487
-653635
-653564
-653580
-653927
-653694
-653698
-653657
-653607
-653642
-653721
-653606
-653579
-653534
-653639
-653525
-653491
-653399
-653346
-653302
-653324
-653345
-653141
-653035
-653148
-653064
-653029
-652903
-652860
-652795
-652817
-652847
-652720
-652614
-652692
-652744
-652715
-652669
-652709
-652772
-652843
-652898
-652919
-652855
-652949
-652972
-653106
-653132
-653079
-653290
-653391
-653435
-653453
-653532
-654058
-653956
-654036
-653876
-653976
-654068
-654128
-654236
-654266
-654247
-654400
-654486
-654626
-654616
-654609
-654816
-654958
-655086
-655076
-654985
-655018
-655248
-655332
-655282
-655321
-655449
-655609
-655728
-655695
-655592
-655807
-655936
-656038
-656078
-656152
-656157
-656329
-656339
-656417
-656357
-656561
-656619
-656578
-656763
-656759
-656894
-657013
-657102
-657163
-657053
-657250
-657317
-657419
-657481
-657388
-657544
-657651
-657777
-657712
-657598
-657751
-657828
-657942
-657921
-657954
-658021
-658032
-658086
-657983
-658038
-658142
-658144
-658297
-658336
-658172
-658386
-658442
-658393
-658437
-658507
-658513
-658621
-658722
-658602
-658712
-658835
-658864
-658871
-658893
-659064
-658966
-659114
-659217
-659096
-659222
-659392
-659454
-659504
-659386
-659621
-659763
-659766
-659877
-659785
-660021
-660097
-660213
-660294
-660328
-660394
-660482
-660644
-660649
-660595
-660750
-660783
-660824
-660893
-660814
-661012
-661134
-661138
-661257
-661149
-661310
-661388
-661462
-661572
-661423
-661380
-661382
-661528
-661551
-661446
-661572
-661657
-661602
-661638
-661621
-661718
-661655
-661788
-661846
-661662
-661737
-661707
-661702
-661664
-661616
-661765
-661756
-661710
-661817
-661683
-661779
-661820
-661804
-661770
-661694
-661683
-661766
-661850
-661739
-661640
-661715
-661711
-661743
-661719
-661475
-661636
-661456
-661382
-661286
-661032
-660960
-660741
-660459
-660201
-659845
-659484
-659101
-658653
-658121
-657478
-657053
-656490
-655953
-655379
-654546
-654009
-653486
-652843
-652242
-651333
-650997
-650235
-649781
-649287
-648576
-648139
-647584
-647220
-646754
-646215
-645997
-645689
-645347
-645028
-644602
-644510
-644326
-644218
-643962
-643829
-643872
-643684
-643775
-643986
-643873
-644004
-644087
-644195
-644429
-644409
-644666
-644867
-644975
-645067
-645300
-645488
-645783
-645953
-646290
-646344
-646596
-646874
-647211
-647487
-647670
-647863
-648239
-648492
-648782
-648901
-649194
-649527
-649836
-650100
-650143
-650470
-650755
-651021
-651268
-651360
-651556
-651891
-652175
-652456
-652501
-652683
-652926
-653234
-653351
-653425
-653488
-654186
-654051
-654105
-654176
-654291
-654475
-654628
-654717
-654695
-654802
-654917
-654983
-655128
-655046
-655094
-655289
-655381
-655439
-655353
-655448
-655564
-655593
-655667
-655669
-655664
-655814
-655877
-655948
-656058
-656015
-656214
-656364
-656458
-656425
-656364
-656499
-656610
-656635
-656645
-656635
-656763
-656832
-656903
-656815
-656811
-656933
-657002
-657021
-656998
-656902
-656989
-656966
-657052
-656962
-656911
-656938
-656890
-656941
-656859
-656674
-656771
-656827
-656857
-656570
-656473
-656582
-656479
-656449
-656351
-656244
-656271
-656252
-656189
-656157
-655978
-656093
-655969
-655963
-655861
-655622
-655641
-655634
-655666
-655558
-655415
-655462
-655367
-655291
-655322
-655137
-655261
-655292
-655315
-655157
-655016
-655183
-655201
-655177
-655125
-655046
-655106
-655304
-655252
-655275
-655185
-655286
-655425
-655474
-655554
-655372
-655460
-655652
-655643
-655681
-655645
-655758
-655805
-655846
-655914
-655735
-655940
-656060
-656065
-656055
-656057
-656149
-656163
-656208
-656313
-656268
-656383
-656370
-656389
-656437
-656352
-656460
-656573
-656592
-656680
-656593
-656772
-656828
-656940
-656886
-656920
-656938
-657060
-657130
-657252
-657174
-657232
-657270
-657379
-657242
-657208
-657486
-657478
-657568
-657583
-657492
-657611
-657597
-657680
-657703
-657649
-657787
-657823
-657900
-657986
-657902
-657975
-658002
-658149
-658193
-658063
-658146
-658122
-658232
-658289
-658249
-658348
-658359
-658421
-658517
-658739
-658623
-658585
-658711
-658708
-658631
-658830
-658966
-658976
-659066
-658978
-659081
-659040
-659115
-659244
-659031
-659158
-659245
-659327
-659343
-659288
-659442
-659437
-659491
-659642
-659526
-659538
-659609
-659714
-659764
-659695
-659789
-659871
-659866
-659997
-659889
-659935
-660045
-660131
-660194
-660179
-660222
-660372
-660434
-660495
-660450
-660567
-660571
-660682
-660699
-660819
-660957
-660920
-660891
-660849
-660993
-661052
-661047
-661096
-661058
-661203
-661255
-661297
-661351
-661091
-661305
-661411
-661501
-661603
-661383
-661462
-661497
-661472
-661562
-661401
-661368
-661364
-661319
-661226
-661025
-661004
-660760
-660627
-660339
-659846
-659571
-659257
-658937
-658584
-657950
-657476
-657069
-656571
-656157
-655452
-654973
-654503
-654010
-653387
-652691
-652303
-651772
-651369
-650927
-650356
-649856
-649589
-649130
-649136
-648403
-648051
-647727
-647462
-647243
-646972
-646797
-646656
-646528
-646432
-646165
-646016
-646102
-646174
-646122
-646021
-646072
-646106
-646210
-646379
-646344
-646353
-646619
-646648
-646853
-646911
-647044
-647253
-647392
-647701
-647781
-647859
-648171
-648507
-648614
-648689
-648853
-649058
-649328
-649597
-649716
-649971
-650155
-650402
-650519
-650520
-650795
-651026
-651162
-651237
-651306
-651388
-651531
-651766
-651862
-651840
-652065
-652173
-652326
-652362
-652368
-652550
-652692
-652872
-652837
-652815
-653080
-653278
-653332
-653420
-653376
-653552
-653723
-653869
-653986
-654048
-654165
-654286
-654446
-654569
-654600
-655294
-655009
-654998
-655026
-655029
-655274
-655432
-655485
-655533
-655532
-655722
-655947
-656029
-656041
-656067
-656174
-656244
-656333
-656448
-656314
-656402
-656472
-656643
-656635
-656526
-656635
-656613
-656629
-656603
-656533
-656578
-656657
-656592
-656646
-656560
-656593
-656557
-656431
-656349
-656197
-656249
-656240
-656288
-656198
-656022
-656042
-655962
-656006
-655912
-655647
-655739
-655613
-655646
-655443
-655320
-655401
-655391
-655341
-655290
-655118
-655105
-655038
-655015
-655006
-654872
-654791
-654922
-654990
-654966
-654799
-654865
-654817
-654835
-654922
-654894
-654946
-654952
-654988
-655006
-654876
-654957
-655027
-655069
-655116
-655053
-655202
-655170
-655105
-655238
-655259
-655385
-655393
-655737
-655645
-655413
-655560
-655573
-655665
-655637
-655580
-655671
-655616
-655627
-655679
-655647
-655634
-655697
-655786
-655741
-655673
-655809
-655846
-655844
-655913
-655858
-655927
-655928
-655968
-656030
-655926
-655984
-656040
-655991
-656241
-656009
-656041
-656007
-656131
-656134
-656066
-656143
-656131
-656139
-656178
-656114
-656269
-656306
-656271
-656335
-656218
-656371
-656395
-656614
-656328
-656340
-656475
-656538
-656629
-656753
-656626
-656815
-656878
-656870
-656885
-656938
-657497
-657286
-657145
-657188
-657125
-657254
-657273
-657398
-657397
-657310
-657433
-657579
-657605
-657646
-657534
-657708
-657869
-657768
-657839
-657759
-657897
-658043
-658040
-658490
-657960
-658100
-658198
-658276
-658374
-658264
-658407
-658591
-658685
-658746
-658736
-658812
-659042
-658988
-659007
-659083
-659229
-659301
-659386
-659500
-659443
-659572
-659522
-659654
-659711
-659713
-659861
-660033
-660050
-660090
-659997
-660069
-660139
-660233
-660353
-660218
-660325
-660499
-660606
-660576
-660666
-660671
-660864
-660882
-661278
-661035
-660989
-661013
-661179
-661267
-661182
-661150
-661198
-661356
-661374
-661351
-661352
-661411
-661381
-661348
-661168
-661015
-660986
-660810
-660513
-660042
-659679
-659313
-658921
-658593
-657907
-657362
-656908
-656418
-655827
-655127
-654507
-653954
-653375
-652832
-652154
-651552
-651116
-650537
-650137
-649541
-648955
-648691
-648246
-647872
-647388
-646891
-646734
-646482
-646280
-645914
-645690
-645550
-645557
-645412
-645298
-645358
-645394
-645485
-645523
-645423
-645572
-645674
-645888
-645993
-646022
-646170
-646302
-646554
-646661
-646849
-646936
-647151
-647404
-647504
-647668
-647945
-648123
-648450
-648616
-648720
-648995
-649147
-649355
-649371
-649623
-649893
-650094
-650268
-650420
-650378
-650617
-650729
-650961
-651012
-651049
-651173
-651285
-651456
-651533
-651441
-651526
-651671
-651842
-651772
-651709
-651810
-651843
-651961
-651990
-651921
-651962
-652060
-652071
-652100
-652018
-652155
-652235
-652280
-652297
-652170
-652240
-652314
-652369
-652418
-652321
-652410
-652577
-652676
-652813
-652738
-652860
-652877
-652947
-652987
-653005
-653231
-653259
-653423
-653556
-653471
-653621
-653614
-653637
-653703
-653696
-653807
-653918
-653981
-653947
-653856
-654020
-654090
-654081
-654138
-654086
-654176
-654179
-654225
-654214
-654081
-654201
-654239
-654178
-654286
-654026
-654249
-654128
-654177
-654207
-654032
-654132
-654182
-654210
-654092
-653988
-654041
-653961
-654024
-654025
-653796
-654010
-653946
-653921
-653849
-653644
-653760
-653696
-653592
-653668
-653392
-653521
-653506
-653402
-653416
-653285
-653328
-653877
-653345
-653282
-653056
-653098
-653021
-653064
-653118
-652925
-652897
-652978
-653064
-653031
-652868
-652881
-652955
-653080
-652942
-653055
-653078
-653104
-653188
-653047
-653207
-653321
-653375
-653430
-652859
-653275
-653443
-653530
-653665
-653539
-653707
-653752
-653829
-653823
-653870
-654087
-654088
-654142
-654283
-654193
-654453
-654471
-654579
-654642
-654578
-654716
-654838
-654883
-654976
-654894
-655088
-655190
-655294
-655345
-655272
-655425
-655549
-655643
-656198
-655782
-655767
-655950
-656002
-656083
-656044
-656203
-656106
-656289
-656510
-656497
-656633
-656730
-656675
-656878
-656870
-656993
-657050
-657153
-657207
-657238
-657391
-657454
-657546
-657676
-657653
-657750
-657871
-658032
-658107
-658100
-658204
-658318
-658402
-658553
-658510
-658620
-658791
-658863
-658877
-658880
-658958
-659120
-659250
-659668
-659347
-659409
-659534
-659530
-659653
