PPG
-1430543
-1430637
-1430674
-1430511
-1430373
-1430902
-1431026
-1431077
-1431123
-1430851
-1430968
-1431327
-1431536
-1430805
-1430916
-1431469
-1431716
-1431830
-1431590
-1431545
-1431726
-1431988
-1432113
-1431924
-1431758
-1432236
-1432456
-1432493
-1432297
-1432042
-1432292
-1432554
-1432211
-1432404
-1432413
-1432808
-1432876
-1432991
-1432999
-1432884
-1433106
-1433069
-1433123
-1432748
-1432627
-1432974
-1433200
-1432981
-1432656
-1432678
-1432762
-1432563
-1431998
-1431641
-1431712
-1431526
-1431161
-1430898
-1430180
-1429991
-1429559
-1429184
-1428595
-1427757
-1427534
-1427217
-1426789
-1426363
-1425456
-1425040
-1424847
-1424408
-1423832
-1422973
-1422695
-1422379
-1421950
-1421463
-1420891
-1420573
-1420353
-1420014
-1419191
-1418669
-1418546
-1418424
-1418238
-1417957
-1417171
-1416961
-1416933
-1416748
-1416434
-1415871
-1415977
-1416061
-1415948
-1415587
-1415092
-1415080
-1414757
-1414827
-1414579
-1414327
-1414578
-1414762
-1414558
-1414298
-1414157
-1414028
-1414213
-1414186
-1413803
-1413341
-1413859
-1413944
-1414061
-1414000
-1413727
-1413634
-1413757
-1413693
-1414210
-1413453
-1413414
-1413564
-1413300
-1413326
-1412916
-1413120
-1413119
-1413176
-1412675
-1412413
-1412599
-1412721
-1412817
-1412824
-1412360
-1412410
-1412331
-1412443
-1412480
-1412196
-1411945
-1411867
-1412053
-1412063
-1411737
-1411489
-1411813
-1411913
-1411873
-1411887
-1411423
-1411581
-1411623
-1411479
-1411431
-1411219
-1411519
-1411683
-1411711
-1411757
-1411533
-1411748
-1411844
-1411860
-1411556
-1411349
-1411754
-1411910
-1411892
-1411813
-1411591
-1411811
-1411966
-1412202
-1411860
-1411783
-1412095
-1412217
-1412241
-1412250
-1412098
-1412414
-1412291
-1412299
-1412173
-1412048
-1412290
-1412526
-1412418
-1412468
-1412161
-1412507
-1412464
-1412544
-1412246
-1412041
-1412234
-1412561
-1412362
-1412328
-1412115
-1412166
-1412220
-1412353
-1411994
-1411812
-1411939
-1411642
-1411956
-1412154
-1411938
-1411968
-1412055
-1411756
-1411220
-1411372
-1411698
-1411824
-1411807
-1411779
-1411436
-1411527
-1411656
-1411670
-1411428
-1411111
-1411388
-1411439
-1411331
-1411461
-1411251
-1411293
-1411432
-1411350
-1411222
-1411103
-1411286
-1411467
-1411464
-1411386
-1411093
-1411185
-1411259
-1411188
-1411168
-1410961
-1411360
-1411455
-1411645
-1411487
-1411247
-1411303
-1411454
-1411520
-1411307
-1411046
-1411540
-1411769
-1411632
-1411607
-1411480
-1411492
-1411769
-1411905
-1411694
-1411558
-1411807
-1411913
-1411905
-1411880
-1411651
-1411921
-1412016
-1412035
-1411865
-1411859
-1412226
-1412263
-1412311
-1412285
-1411960
-1412336
-1412340
-1412573
-1412196
-1412086
-1412536
-1412789
-1412792
-1412863
-1412594
-1412766
-1412857
-1412884
-1412848
-1412707
-1412838
-1413043
-1413155
-1413382
-1413055
-1413101
-1413312
-1413387
-1413133
-1412904
-1413298
-1413517
-1413666
-1413645
-1413419
-1413453
-1413556
-1413421
-1414247
-1413612
-1413820
-1413687
-1413896
-1414006
-1413791
-1413898
-1413961
-1413949
-1413663
-1413616
-1414016
-1414157
-1414376
-1414337
-1414063
-1414112
-1414397
-1414517
-1414237
-1414034
-1414572
-1414784
-1414698
-1414734
-1414438
-1414624
-1414779
-1414880
-1414717
-1414501
-1415030
-1415244
-1415161
-1415223
-1414761
-1415097
-1416260
-1415669
-1415355
-1415227
-1415484
-1415611
-1415692
-1415615
-1415389
-1415665
-1415686
-1415786
-1415748
-1415467
-1415909
-1416093
-1416103
-1416251
-1416037
-1416182
-1416331
-1416226
-1416002
-1415929
-1416313
-1416492
-1416600
-1416678
-1416456
-1416728
-1416824
-1416874
-1416588
-1416509
-1416935
-1417021
-1417137
-1417138
-1416762
-1417127
-1417139
-1417332
-1417404
-1417161
-1417490
-1417686
-1417865
-1417877
-1417373
-1417644
-1417689
-1417738
-1417671
-1417630
-1417948
-1418147
-1418261
-1418362
-1417994
-1418257
-1418376
-1418256
-1418174
-1418013
-1418390
-1418611
-1418653
-1418844
-1418502
-1418641
-1418908
-1418822
-1418836
-1418504
-1418906
-1419133
-1419075
-1418741
-1418902
-1419202
-1419285
-1419322
-1419359
-1419370
-1419568
-1419677
-1419749
-1419751
-1419553
-1419682
-1419777
-1419917
-1419529
-1419487
-1419909
-1420257
-1420391
-1420353
-1420033
-1420255
-1420259
-1420308
-1420256
-1420041
-1420555
-1420701
-1420848
-1420611
-1420552
-1420558
-1420858
-1421025
-1420898
-1420871
-1421255
-1421334
-1421584
-1421269
-1421590
-1421604
-1421737
-1421615
-1421468
-1421912
-1421937
-1421958
-1421951
-1421300
-1421835
-1422078
-1422231
-1422186
-1421911
-1422325
-1422471
-1422530
-1422528
-1422115
-1422383
-1422498
-1422486
-1422483
-1422275
-1422671
-1422855
-1423084
-1423081
-1422957
-1423415
-1423712
-1423943
-1423709
-1423879
-1424095
-1424251
-1424183
-1424455
-1424500
-1424496
-1424674
-1424798
-1424588
-1424884
-1425164
-1424947
-1425189
-1425303
-1425700
-1425523
-1425913
-1425726
-1425270
-1425816
-1426023
-1426528
-1425918
-1425935
-1426076
-1425958
-1425522
-1425194
-1425219
-1424983
-1424889
-1424310
-1423766
-1423675
-1423159
-1422716
-1422238
-1421624
-1421385
-1421053
-1420572
-1420114
-1419456
-1419334
-1418974
-1418373
-1417744
-1416997
-1416864
-1416255
-1416089
-1415403
-1414726
-1414456
-1414118
-1413722
-1413119
-1412467
-1412423
-1412123
-1411783
-1411324
-1410689
-1410630
-1410492
-1410315
-1409776
-1409206
-1409384
-1409318
-1409268
-1408847
-1408419
-1408321
-1408418
-1408302
-1408068
-1407276
-1407729
-1407840
-1407678
-1407629
-1407108
-1407320
-1407413
-1407222
-1407032
-1406732
-1406981
-1407190
-1407105
-1407034
-1406662
-1406949
-1406948
-1406811
-1406560
-1406516
-1406709
-1406734
-1406949
-1406583
-1406262
-1406490
-1406538
-1406605
-1406289
-1405905
-1406423
-1406399
-1406538
-1406237
-1405841
-1406197
-1406154
-1406135
-1406055
-1405793
-1405813
-1405982
-1405952
-1405608
-1405202
-1405645
-1405609
-1405781
-1405625
-1405425
-1405600
-1405545
-1405493
-1405144
-1404820
-1405101
-1405089
-1405256
-1405084
-1405030
-1405115
-1405365
-1405247
-1405043
-1404742
-1405121
-1405209
-1405267
-1405275
-1405155
-1405565
-1405870
-1405819
-1405446
-1405416
-1405716
-1405854
-1405962
-1406091
-1405898
-1406257
-1406198
-1406190
-1405763
-1405686
-1406130
-1406094
-1406268
-1406305
-1406042
-1406252
-1406238
-1406265
-1405878
-1405678
-1406186
-1406113
-1406325
-1406025
-1405923
-1405977
-1406019
-1406141
-1405740
-1405506
-1405915
-1405892
-1406077
-1405855
-1405653
-1405886
-1405834
-1405600
-1405254
-1405225
-1405468
-1405603
-1405674
-1406245
-1405444
-1405274
-1405233
-1405064
-1404739
-1404724
-1404967
-1404990
-1405104
-1404881
-1404743
-1404884
-1404951
-1404933
-1404623
-1404402
-1404683
-1404784
-1405038
-1404877
-1404534
-1404794
-1404738
-1404714
-1404323
-1404215
-1404590
-1404734
-1404731
-1404608
-1404531
-1404579
-1404740
-1404679
-1404255
-1404235
-1404714
-1404732
-1404988
-1404780
-1404585
-1404849
-1404838
-1404757
-1404556
-1404392
-1404825
-1405063
-1405128
-1404816
-1404824
-1405114
-1405158
-1405029
-1404792
-1404674
-1405098
-1405220
-1405380
-1405177
-1405015
-1405445
-1405490
-1405278
-1405005
-1405237
-1405414
-1405595
-1405774
-1405729
-1405644
-1405767
-1405886
-1405964
-1405547
-1405545
-1405971
-1406188
-1406393
-1406128
-1406141
-1406356
-1406301
-1406292
-1405944
-1406012
-1406176
-1406574
-1406747
-1406538
-1406312
-1406570
-1406688
-1406686
-1406276
-1406303
-1406634
-1406707
-1406975
-1406929
-1406693
-1406919
-1407221
-1407110
-1406746
-1406874
-1407248
-1407275
-1407613
-1407460
-1407336
-1407465
-1407488
-1407503
-1407206
-1407673
-1407736
-1407988
-1407847
-1407702
-1407891
-1407903
-1407926
-1407772
-1407836
-1408020
-1408061
-1408247
-1408190
-1408003
-1408268
-1408381
-1408326
-1407959
-1407991
-1408306
-1408462
-1408652
-1408618
-1408636
-1408838
-1408772
-1408814
-1408475
-1408622
-1408885
-1408877
-1408954
-1409015
-1408938
-1409167
-1409262
-1409320
-1408873
-1409793
-1409479
-1409379
-1409581
-1409408
-1409058
-1409469
-1409653
-1409502
-1409278
-1409270
-1409734
-1409868
-1410195
-1409810
-1409691
-1410070
-1410123
-1410092
-1409709
-1409895
-1410238
-1410383
-1410379
-1410156
-1410127
-1410415
-1410430
-1410566
-1410142
-1410249
-1410688
-1410902
-1410968
-1410829
-1410836
-1411073
-1411217
-1411020
-1410695
-1410898
-1411257
-1412060
-1411721
-1411275
-1411338
-1411377
-1411406
-1411450
-1411131
-1411246
-1411476
-1411653
-1411771
-1411737
-1411701
-1411859
-1412030
-1412165
-1411812
-1411700
-1412225
-1412229
-1412648
-1412204
-1412362
-1412465
-1412503
-1412441
-1412226
-1412916
-1413086
-1412946
-1413037
-1413156
-1413355
-1413303
-1412762
-1412951
-1413171
-1413619
-1413394
-1413455
-1413852
-1413995
-1414060
-1413817
-1414175
-1414209
-1414248
-1413956
-1414144
-1414265
-1414528
-1414831
-1414574
-1414549
-1414800
-1414879
-1414839
-1414607
-1414780
-1415185
-1415324
-1415678
-1415279
-1415289
-1415414
-1415611
-1415624
-1415406
-1415523
-1415821
-1415911
-1416121
-1416044
-1416011
-1416197
-1416411
-1416146
-1416041
-1416318
-1416441
-1416683
-1416785
-1416477
-1416599
-1416788
-1416673
-1416598
-1417460
-1416845
-1417906
-1417089
-1416863
-1416492
-1416268
-1416150
-1415911
-1415778
-1415177
-1415167
-1414885
-1414496
-1414317
-1413602
-1413253
-1413121
-1412646
-1412221
-1411379
-1411064
-1410786
-1410389
-1409973
-1409280
-1408811
-1408484
-1408070
-1407508
-1406823
-1406387
-1406202
-1405776
-1405729
-1405007
-1404629
-1404423
-1404158
-1403590
-1402907
-1402767
-1402735
-1402574
-1402172
-1401671
-1401494
-1401488
-1401194
-1401019
-1400373
-1400371
-1400472
-1400324
-1400453
-1400111
-1399841
-1399820
-1399710
-1399529
-1399139
-1399190
-1399389
-1399461
-1399509
-1398989
-1399154
-1399161
-1399092
-1398980
-1398648
-1398752
-1398827
-1398755
-1398875
-1398625
-1398583
-1398723
-1398658
-1398493
-1398208
-1398463
-1398506
-1398427
-1398467
-1398238
-1398205
-1398332
-1398283
-1398288
-1397774
-1398017
-1397978
-1397925
-1398147
-1397709
-1397888
-1397962
-1397794
-1397425
-1397167
-1397512
-1397545
-1397607
-1397671
-1397245
-1397345
-1397324
-1397217
-1397104
-1396748
-1396983
-1397078
-1397177
-1397156
-1397111
-1397129
-1397215
-1397303
-1397043
-1396759
-1397066
-1397448
-1397352
-1397323
-1397243
-1397391
-1397399
-1397606
-1397363
-1397160
-1397557
-1397735
-1397840
-1397765
-1397672
-1397805
-1397873
-1397881
-1397795
-1397445
-1397893
-1397951
-1398110
-1398053
-1397889
-1398021
-1398074
-1398071
-1397857
-1397721
-1397866
-1397973
-1398016
-1397729
-1397370
-1397718
-1397521
-1397575
-1397403
-1396933
-1397323
-1397295
-1397225
-1397465
-1396980
-1397168
-1397083
-1396987
-1396767
-1396520
-1396790
-1396822
-1396774
-1396614
-1396534
-1396656
-1396782
-1396831
-1396511
-1396173
-1396492
-1396533
-1396646
-1396605
-1396363
-1396457
-1396561
-1396447
-1395952
-1395725
-1395958
-1396296
-1396418
-1396283
-1396130
-1396168
-1396260
-1396233
-1396100
-1395822
-1396125
-1396180
-1396228
-1396378
-1395952
-1396186
-1396238
-1396218
-1395986
-1395669
-1396143
-1396178
-1396263
-1396366
-1396280
-1396566
-1396528
-1396507
-1396054
-1395923
-1396403
-1396587
-1396562
-1396663
-1396497
-1396737
-1396781
-1396997
-1396720
-1396577
-1396875
-1397121
-1397198
-1397080
-1396921
-1397095
-1397270
-1397279
-1397226
-1396868
-1397279
-1397361
-1397450
-1397745
-1397372
-1397717
-1397719
-1397670
-1397353
-1397269
-1397543
-1397941
-1398080
-1397854
-1397772
-1397918
-1397984
-1398149
-1397921
-1397750
-1398082
-1398365
-1398370
-1398491
-1398278
-1398546
-1398552
-1398625
-1398607
-1398359
-1398647
-1398767
-1398775
-1398805
-1398690
-1398900
-1398956
-1399025
-1398703
-1398694
-1399118
-1399058
-1399222
-1399376
-1399008
-1399278
-1399442
-1399521
-1399301
-1398974
-1399375
-1399439
-1399564
-1399697
-1399544
-1399678
-1399783
-1399856
-1399631
-1399423
-1399730
-1399981
-1399938
-1399935
-1399700
-1399984
-1400119
-1400169
-1399876
-1399863
-1400063
-1400343
-1400490
-1400343
-1400299
-1400473
-1400675
-1400818
-1400524
-1400329
-1400662
-1400745
-1400905
-1400795
-1400733
-1400958
-1401116
-1401211
-1400899
-1400691
-1400919
-1401077
-1401161
-1401186
-1401039
-1401212
-1401324
-1401331
-1401044
-1401019
-1401361
-1401571
-1401531
-1401493
-1401369
-1401777
-1401821
-1401690
-1401348
-1401311
-1401685
-1401857
-1401875
-1401808
-1401707
-1402191
-1402334
-1402097
-1402143
-1401793
-1402226
-1402402
-1402564
-1402489
-1402360
-1402558
-1402744
-1402899
-1402665
-1402414
-1402855
-1402899
-1402869
-1403002
-1402940
-1403044
-1403296
-1403380
-1403086
-1402812
-1403172
-1403473
-1403569
-1403584
-1403326
-1403752
-1403804
-1403722
-1403595
-1403407
-1403703
-1403832
-1404033
-1403909
-1403851
-1404151
-1404200
-1404306
-1404019
-1403909
-1404370
-1404523
-1404656
-1404707
-1404517
-1404824
-1404905
-1404962
-1404692
-1404736
-1404878
-1405099
-1404798
-1405245
-1405233
-1405481
-1405600
-1405561
-1405387
-1405133
-1405476
-1405642
-1405764
-1405923
-1405824
-1406054
-1406229
-1406233
-1405965
-1405773
-1406693
-1406401
-1406516
-1406475
-1406291
-1406712
-1406790
-1406742
-1406640
-1406399
-1406771
-1406651
-1406843
-1406954
-1406924
-1407125
-1407303
-1407472
-1407345
-1407195
-1407559
-1407681
-1407793
-1407936
-1407837
-1408138
-1408294
-1408473
-1408113
-1407885
-1408300
-1408519
-1408706
-1408754
-1408469
-1408604
-1408867
-1408909
-1408579
-1408419
-1408703
-1408941
-1408935
-1408779
-1408587
-1408665
-1408595
-1408233
-1407632
-1407192
-1407226
-1407189
-1407010
-1406523
-1405769
-1405653
-1405348
-1404684
-1403927
-1403478
-1403307
-1403052
-1402360
-1401952
-1401346
-1400768
-1400450
-1400046
-1399326
-1398607
-1398430
-1398146
-1397824
-1397460
-1396675
-1396612
-1396102
-1395706
-1395142
-1394501
-1394403
-1394217
-1394579
-1394043
-1393365
-1392970
-1392963
-1392683
-1393267
-1391765
-1390847
-1390816
-1390818
-1390682
-1390011
-1389612
-1390100
-1389950
-1389852
-1389674
-1389357
-1390474
-1389865
-1389570
-1389439
-1388907
-1389002
-1389149
-1389020
-1388838
-1388663
-1388720
-1389024
-1388948
-1388436
-1388258
-1388653
-1388719
-1388692
-1388479
-1388133
-1388332
-1388227
-1387855
-1387632
-1387319
-1387660
-1387887
-1387706
-1387596
-1387325
-1387366
-1387423
-1387335
-1386867
-1386671
-1386963
-1386996
-1387000
-1386638
-1386553
-1386674
-1386601
-1386491
-1386188
-1385872
-1386151
-1386203
-1386115
-1386003
-1385905
-1385864
-1386049
-1385914
-1385526
-1385266
-1385601
-1385672
-1385551
-1385550
-1385383
-1385637
-1385767
-1385902
-1385452
-1385273
-1385696
-1385690
-1385668
-1385724
-1385699
-1385947
-1385959
-1385988
-1385790
-1385537
-1385993
-1386069
-1386098
-1385912
-1385919
-1385785
-1386149
-1386184
-1385916
-1385702
-1386101
-1386304
-1386140
-1386356
-1386295
-1386416
-1386448
-1386434
-1385974
-1385923
-1386187
-1386326
-1386290
-1386185
-1385829
-1386093
-1386095
-1386083
-1385743
-1385427
-1385828
-1385878
-1385957
-1385998
-1385684
-1385657
-1385744
-1385479
-1385293
-1385015
-1385390
-1385561
-1385468
-1385377
-1385189
-1385323
-1385258
-1385208
-1384897
-1384803
-1385211
-1385176
-1385243
-1385043
-1384865
-1385161
-1385296
-1385154
-1384377
-1384312
-1384901
-1384983
-1384998
-1384949
-1384749
-1384855
-1384866
-1384616
-1384575
-1384477
-1384820
-1385002
-1384961
-1384929
-1384647
-1384847
-1384944
-1385103
-1384641
-1384401
-1384946
-1384873
-1385086
-1385099
-1384991
-1385105
-1385290
-1385184
-1384913
-1384845
-1385296
-1385449
-1385509
-1385241
-1385237
-1385216
-1385420
-1385531
-1385292
-1385090
-1385531
-1385602
-1385722
-1385786
-1385601
-1385838
-1385933
-1385941
-1385649
-1385524
-1385871
-1386064
-1385953
-1386180
-1385597
-1385929
-1386143
-1386289
-1385789
-1385799
-1385949
-1386439
-1386447
-1386409
-1386397
-1386392
-1386542
-1386558
-1386336
-1386234
-1386489
-1386845
-1386725
-1386906
-1386666
-1386954
-1387104
-1387168
-1386939
-1386834
-1387222
-1387427
-1387355
-1387455
-1387161
-1387481
-1387635
-1387680
-1387508
-1387226
-1387767
-1387927
-1387834
-1387822
-1387662
-1387824
-1388092
-1388023
-1387877
-1387673
-1387906
-1388287
-1388304
-1387988
-1387945
-1388252
-1388513
-1388490
-1388304
-1388018
-1388305
-1388546
-1389524
-1388853
-1388574
-1388855
-1388844
-1389103
-1388466
-1388424
-1388881
-1389113
-1389281
-1389346
-1389149
-1389325
-1389559
-1389588
-1389385
-1389071
-1389254
-1389608
-1389617
-1389682
-1389440
-1389686
-1389817
-1389857
-1389652
-1390407
-1390017
-1390035
-1390090
-1390207
-1389987
-1389917
-1390240
-1390227
-1390157
-1389874
-1390265
-1390502
-1390472
-1390773
-1390322
-1390537
-1390624
-1390674
-1390442
-1390204
-1390681
-1390842
-1391063
-1391072
-1390870
-1391123
-1391182
-1391214
-1391062
-1390973
-1391128
-1391549
-1391492
-1391601
-1391466
-1391689
-1391703
-1391730
-1391690
-1391373
-1391806
-1391862
-1391854
-1391945
-1391840
-1392000
-1392064
-1392246
-1391846
-1391743
-1391933
-1392119
-1392331
-1392471
-1392277
-1392518
-1392658
-1392550
-1392363
-1392286
-1392786
-1393012
-1392997
-1392961
-1392812
-1392870
-1393106
-1393282
-1393131
-1392999
-1393191
-1393351
-1393611
-1393483
-1393436
-1393705
-1393733
-1393924
-1393728
-1393461
-1393771
-1394066
-1394088
-1394321
-1394168
-1395309
-1394809
-1394481
-1394053
-1394789
-1394476
-1395688
-1394938
-1394916
-1394662
-1394829
-1395109
-1395135
-1394962
-1394818
-1395149
-1395264
-1395384
-1395519
-1395285
-1395578
-1395774
-1395770
-1395425
-1395287
-1395713
-1395989
-1396163
-1396248
-1396153
-1396379
-1396454
-1396339
-1396389
-1396184
-1396521
-1396845
-1396965
-1397091
-1396937
-1397010
-1397146
-1397283
-1397079
-1396919
-1397202
-1397504
-1397395
-1397560
-1397318
-1397709
-1397902
-1397891
-1397628
-1397011
-1397507
-1397587
-1397500
-1397450
-1397065
-1397136
-1397054
-1396988
-1396498
-1395608
-1395862
-1395674
-1395371
-1394865
-1394360
-1394149
-1393765
-1393313
-1392419
-1391803
-1391590
-1391230
-1390856
-1390503
-1389818
-1389459
-1388825
-1388450
-1387661
-1387164
-1387033
-1386626
-1386233
-1385981
-1385361
-1385209
-1384887
-1384445
-1383677
-1382876
-1383132
-1383094
-1382857
-1382626
-1382038
-1382016
-1381874
-1381555
-1380956
-1380697
-1380809
-1380669
-1380708
-1380604
-1380154
-1380042
-1379929
-1379795
-1379438
-1379105
-1379379
-1379360
-1379445
-1379350
-1379074
-1379219
-1379266
-1379074
-1378826
-1378361
-1378681
-1378641
-1378679
-1378883
-1378576
-1378615
-1378548
-1378317
-1378272
-1377810
-1378133
-1378096
-1378013
-1378609
-1377985
-1377872
-1377844
-1377853
-1377464
-1377151
-1377466
-1377593
-1377521
-1377368
-1376965
-1377105
-1377227
-1377366
-1377182
-1376917
-1377260
-1377179
-1377256
-1376975
-1376730
-1376996
-1376826
-1376836
-1376502
-1376232
-1376449
-1376608
-1376625
-1376576
-1376168
-1376699
-1376556
-1376433
-1376285
-1375999
-1376251
-1376427
-1376585
-1376473
-1376402
-1376610
-1376692
-1376481
-1376268
-1376241
-1376211
-1376233
-1376621
-1376480
-1376599
-1376962
-1376999
-1376871
-1376851
-1376437
-1376853
-1377103
-1377185
-1377153
-1376950
-1377069
-1377207
-1377349
-1376974
-1376685
-1376979
-1377195
-1377175
-1377281
-1377156
-1376684
-1376979
-1377132
-1377100
-1377134
-1376965
-1377094
-1376948
-1376996
-1376810
-1376331
-1376651
-1376923
-1376816
-1376643
-1376393
-1376532
-1376563
-1376497
-1376353
-1375971
-1376361
-1376424
-1376160
-1376269
-1377098
-1376437
-1376212
-1376066
-1375757
-1375554
-1375830
-1376040
-1376139
-1376252
-1375827
-1376090
-1376048
-1375955
-1375841
-1375465
-1375776
-1376059
-1375821
-1376109
-1375761
-1375985
-1375969
-1375962
-1375874
-1375540
-1375879
-1376039
-1376017
-1375712
-1376194
-1376211
-1376051
-1375905
-1375624
-1375954
-1376093
-1376172
-1376289
-1375930
-1376349
-1376366
-1376457
-1376178
-1375890
-1376039
-1376426
-1376483
-1376477
-1376308
-1376443
-1376646
-1376809
-1376555
-1376423
-1376985
-1377145
-1377327
-1377397
-1377075
-1377295
-1377399
-1377585
-1377362
-1377055
-1377426
-1377602
-1377717
-1377877
-1377170
-1377785
-1377969
-1377885
-1377771
-1377485
-1377862
-1378110
-1378195
-1378398
-1378087
-1378305
-1378470
-1378521
-1378162
-1377990
-1378499
-1378599
-1378682
-1378838
-1378509
-1378781
-1378876
-1378933
-1378791
-1378682
-1379014
-1379135
-1379156
-1379358
-1379008
-1379197
-1379249
-1379400
-1379184
-1378873
-1379189
-1379400
-1379422
-1379588
-1379499
-1379770
-1379857
-1379831
-1379661
-1379326
-1379679
-1380054
-1380066
-1380100
-1379934
-1380087
-1380305
-1380394
-1380192
-1379973
-1380384
-1380471
-1380661
-1380639
-1380479
-1380602
-1380699
-1380751
-1380427
-1380308
-1380881
-1380967
-1380972
-1380924
-1380814
-1380921
-1381069
-1381222
-1381230
-1380789
-1381183
-1381354
-1381394
-1381610
-1381218
-1381576
-1381671
-1381783
-1381759
-1381427
-1381752
-1381848
-1381936
-1382030
-1381784
-1382184
-1382221
-1382107
-1382097
-1381974
-1382218
-1382542
-1382597
-1382687
-1382597
-1382712
-1382721
-1382856
-1382632
-1382404
-1382894
-1382971
-1383080
-1383286
-1383090
-1383224
-1383415
-1383436
-1383083
-1382932
-1383401
-1383547
-1383662
-1383712
-1383429
-1383677
-1383906
-1383843
-1383725
-1383493
-1384052
-1384276
-1384353
-1384495
-1384236
-1384472
-1384487
-1384635
-1384533
-1384264
-1384527
-1384741
-1384790
-1384935
-1384784
-1385057
-1385165
-1385277
-1385109
-1384809
-1386042
-1385523
-1385575
-1385640
-1385454
-1385705
-1385710
-1385821
-1385684
-1385425
-1385914
-1387011
-1386252
-1386209
-1385988
-1386098
-1386194
-1386346
-1386048
-1385897
-1386271
-1386408
-1386638
-1386784
-1386595
-1386855
-1386860
-1387066
-1386967
-1386746
-1387175
-1387348
-1387501
-1387625
-1386931
-1387520
-1387644
-1387844
-1387620
-1387382
-1387797
-1388141
-1388198
-1388518
-1388240
-1388328
-1388605
-1388744
-1388461
-1388294
-1388791
-1389045
-1389099
-1389197
-1388952
-1390323
-1389687
-1389473
-1389305
-1389118
-1389382
-1389629
-1390338
-1389977
-1389583
-1389904
-1389925
-1389872
-1390652
-1390229
-1390083
-1390126
-1390093
-1389801
-1389891
-1389740
-1389594
-1389336
-1388856
-1388758
-1388800
-1388455
-1388324
-1388311
-1387634
-1387207
-1386814
-1385972
-1385465
-1385243
-1386012
-1384839
-1384317
-1383449
-1382682
-1381045
-1380960
-1380541
-1380124
-1379577
-1379082
-1378761
-1378471
-1378190
-1377425
-1376797
-1376928
-1376671
-1376475
-1376332
-1375791
-1375738
-1375426
-1375272
-1374796
-1374314
-1374435
-1374479
-1374429
-1374256
-1373712
-1373629
-1373721
-1373459
-1373261
-1372698
-1372811
-1372894
-1372799
-1372965
-1372398
-1372615
-1372620
-1372554
-1372226
-1371962
-1372125
-1372270
-1372287
-1372307
-1371988
-1372031
-1372138
-1371830
-1371655
-1371476
-1371777
-1371810
-1371901
-1371838
-1371519
-1371717
-1371639
-1371498
-1371219
-1371099
-1371387
-1371441
-1371362
-1371276
-1370884
-1371115
-1371306
-1371186
-1370852
-1370524
-1370850
-1370870
-1370854
-1370693
-1370535
-1370759
-1370707
-1370744
-1370492
-1370217
-1370602
-1370613
-1370635
-1370588
-1370418
-1370481
-1370660
-1370589
-1370540
-1370184
-1370457
-1370755
-1370742
-1370815
-1370484
-1370725
-1370820
-1370858
-1370742
-1370474
-1370712
-1370888
-1371091
-1371043
-1371065
-1371271
-1371339
-1371458
-1371160
-1371013
-1371478
-1371604
-1371538
-1371664
-1371374
-1371649
-1371544
-1371608
-1371374
-1370979
-1371498
-1371678
-1371364
-1371536
-1371442
-1371555
-1371286
-1371127
-1371327
-1371080
-1371475
-1371552
-1371615
-1371541
-1371304
-1371462
-1371404
-1371378
-1371166
-1370827
-1371285
-1371182
-1371285
-1371184
-1370795
-1370826
-1371882
-1371171
-1370511
-1369787
-1370496
-1370718
-1370833
-1370674
-1370457
-1370690
-1370613
-1370278
-1370231
-1370105
-1370261
-1370470
-1370419
-1370479
-1370225
-1370449
-1370408
-1370278
-1370113
-1369902
-1370283
-1370360
-1370478
-1370480
-1370315
-1370565
-1370596
-1370727
-1370336
-1370141
-1370371
-1371542
-1370615
-1370694
-1370460
-1370665
-1370796
-1370850
-1370539
-1370281
-1370866
-1371053
-1371018
-1371174
-1370736
-1370820
-1371214
-1371130
-1370848
-1370790
-1371206
-1371348
-1371405
-1371621
-1371284
-1371612
-1371722
-1371819
-1371481
-1371320
-1371658
-1371756
-1372100
-1372123
-1371856
-1372203
-1372217
-1372215
-1372139
-1372014
-1372306
-1373244
-1372741
-1372815
-1372529
-1372738
-1372945
-1372849
-1372668
-1372542
-1372885
-1373229
-1373347
-1373318
-1373175
-1373468
-1373443
-1373481
-1373355
-1373749
-1373559
-1373695
-1373737
-1373840
-1373495
-1373715
-1373754
-1373882
-1373675
-1373315
-1373776
-1374167
-1374318
-1374176
-1373866
-1374257
-1374418
-1374456
-1374107
-1373931
-1374323
-1374488
-1374508
-1374698
-1374305
-1374872
-1374812
-1374926
-1374682
-1374405
-1374874
-1375194
-1375225
-1375281
-1374880
-1375251
-1375303
-1375339
-1375281
-1374915
-1375346
-1375494
-1375552
-1375648
-1375428
-1375727
-1375912
-1375830
-1375686
-1375450
-1375812
-1376730
-1376383
-1376292
-1375972
-1376286
-1376452
-1376432
-1376289
-1376172
-1376587
-1376595
-1376651
-1376667
-1376406
-1376855
-1376926
-1376819
-1376626
-1376303
-1376984
-1377097
-1377255
-1377446
-1377182
-1377431
-1377467
-1377601
-1377243
-1377166
-1377601
-1377446
-1378987
-1378328
-1377929
-1378123
-1377672
-1377993
-1378041
-1377912
-1378193
-1378253
-1378434
-1378561
-1378195
-1378460
-1378650
-1378857
-1378530
-1378490
-1378840
-1379040
-1379111
-1378953
-1378957
-1379252
-1379272
-1379184
-1379027
-1378970
-1380459
-1379850
-1379746
-1379836
-1379518
-1379720
-1379888
-1379506
-1379425
-1379398
-1379972
-1380073
-1380373
-1380272
-1381049
-1380524
-1380736
-1380963
-1381002
-1380760
-1380978
-1381286
-1381251
-1381029
-1380987
-1381431
-1381611
-1381644
-1381611
-1381597
-1381937
-1381955
-1381909
-1381776
-1381571
-1382160
-1383617
-1382969
-1382604
-1382241
-1382702
-1382738
-1382630
-1382416
-1382509
-1382785
-1383070
-1383225
-1383233
-1382950
-1383201
-1383218
-1383201
-1383159
-1383048
-1383465
-1383588
-1383800
-1383909
-1383581
-1383947
-1384142
-1384035
-1383952
-1383834
-1384341
-1384432
-1384594
-1384513
-1384372
-1384611
-1384931
-1384963
-1384749
-1384539
-1384968
-1385298
-1385554
-1385486
-1385324
-1385578
-1385707
-1385825
-1385549
-1385402
-1385963
-1386191
-1386264
-1386204
-1386045
-1386208
-1386469
-1386498
-1386131
-1386125
-1386342
-1386495
-1386536
-1386281
-1386058
-1386171
-1385984
-1385748
-1385170
-1384997
-1384781
-1384353
-1383948
-1383543
-1382787
-1382772
-1382349
-1381847
-1381180
-1380621
-1380426
-1379880
-1379533
-1379034
-1378306
-1378110
-1377743
-1377243
-1376576
-1375846
-1375841
-1375519
-1375201
-1374703
-1374048
-1373846
-1373629
-1373220
-1372367
-1371963
-1371955
-1371826
-1371666
-1371173
-1370543
-1370538
-1370391
-1370135
-1369675
-1369136
-1369410
-1369277
-1369290
-1368965
-1368555
-1368441
-1368467
-1368192
-1367845
-1367679
-1367853
-1367782
-1367843
-1367628
-1367249
-1367493
-1367517
-1367342
-1366497
-1366547
-1366821
-1366869
-1367112
-1366883
-1366561
-1366714
-1366635
-1366477
-1366158
-1366095
-1366304
-1366214
-1366020
-1366012
-1365846
-1365908
-1366036
-1365848
-1365498
-1365331
-1365614
-1365619
-1365668
-1365355
-1364996
-1365258
-1365168
-1365070
-1364715
-1364587
-1364807
-1364967
-1364895
-1364707
-1364469
-1364586
-1364516
-1364553
-1364104
-1363999
-1364099
-1364237
-1364319
-1363979
-1363712
-1363912
-1363922
-1363995
-1363579
-1363414
-1363808
-1363810
-1364124
-1364030
-1363646
-1363932
-1363674
-1363932
-1363715
-1363745
-1364178
-1364215
-1364335
-1364209
-1364048
-1364363
-1364044
-1364383
-1364163
-1364039
-1364444
-1364280
-1364738
-1364710
-1364563
-1365905
-1365061
-1364980
-1364705
-1364598
-1364808
-1364931
-1365006
-1364564
-1364622
-1365043
-1365053
-1364993
-1364766
-1364652
-1365102
-1364986
-1365210
-1365128
-1364762
-1364899
-1364965
-1364941
-1364681
-1364357
-1364628
-1364722
-1364903
-1364668
-1364307
-1364645
-1364654
-1364441
-1364241
-1363925
-1364189
-1364276
-1364475
-1364201
-1364116
-1364240
-1364348
-1364156
-1363794
-1363728
-1363998
-1364112
-1364365
-1364072
-1363791
-1364039
-1364014
-1363968
-1363594
-1363611
-1364064
-1364059
-1364254
-1363957
-1363794
-1363998
-1364071
-1363988
-1363837
-1363693
-1363989
-1364000
-1363986
-1364147
-1363839
-1364307
-1364270
-1364436
-1364127
-1363955
-1364438
-1364348
-1364553
-1364292
-1364140
-1364559
-1364588
-1364700
-1364398
-1364369
-1364770
-1364815
-1365094
-1364966
-1364863
-1365082
-1365071
-1365045
-1364662
-1364609
-1365208
-1365246
-1365480
-1365421
-1365180
-1365539
-1365480
-1365707
-1365401
-1365418
-1365708
-1365860
-1366105
-1365887
-1365541
-1365929
-1366078
-1366009
-1365778
-1365707
-1366071
-1366165
-1366491
-1366400
-1366087
-1366444
-1366532
-1366469
-1366085
-1366072
-1366605
-1366634
-1366850
-1366742
-1366660
-1366921
-1367124
-1367140
-1366901
-1366676
-1366985
-1367190
-1367499
-1367445
-1367067
-1367462
-1367458
-1367533
-1367335
-1367233
-1367719
-1367708
-1368045
-1367843
-1367764
-1367941
-1368046
-1368033
-1367599
-1367622
-1368127
-1368392
-1368576
-1368457
-1367978
-1368518
-1368592
-1368471
-1368146
-1368163
-1368674
-1368677
-1368938
-1368788
-1368573
-1368696
-1368996
-1368921
-1368687
-1368568
-1369002
-1369090
-1369287
-1369177
-1368946
-1369361
-1369445
-1369381
-1369261
-1369084
-1369539
-1369585
-1369828
-1369847
-1369568
-1369933
-1369956
-1369915
-1369671
-1369746
-1369950
-1370257
-1370358
-1370250
-1370086
-1370456
-1370518
-1370513
-1370276
-1370382
-1370819
-1370961
-1371091
-1370884
-1370304
-1370809
-1370946
-1371170
-1370787
-1370798
-1371196
-1371437
-1371647
-1371368
-1371285
-1371520
-1371648
-1371651
-1371444
-1371496
-1372068
-1372030
-1372347
-1372191
-1371869
-1372288
-1372213
-1372319
-1372061
-1372041
-1372476
-1372690
-1372717
-1372630
-1372435
-1372706
-1372941
-1373070
-1372873
-1372992
-1373494
-1373622
-1373793
-1373740
-1373590
-1373785
-1373876
-1373953
-1373833
-1373879
-1374174
-1374152
-1374474
-1374341
-1374160
-1374577
-1374706
-1374628
-1374350
-1374316
-1374785
-1375012
-1375248
-1375020
-1374930
-1375186
-1375173
-1375252
-1374824
-1374862
-1375305
-1375585
-1375808
-1375596
-1375510
-1375817
-1375838
-1375813
-1375658
-1375700
-1376082
-1376269
-1376376
-1376141
-1376194
-1376437
-1376582
-1376388
-1376173
-1376229
-1376673
-1377032
-1377204
-1377222
-1377153
-1377410
-1377541
-1377665
-1377291
-1377439
-1377791
-1378028
-1378399
-1378466
-1378245
-1378072
-1378556
-1378775
-1378951
-1378783
-1378650
-1378869
-1379068
-1379064
-1378912
-1378965
-1379245
-1379483
-1379712
-1379418
-1379431
-1379762
-1379851
-1379833
-1379645
-1379546
-1379997
-1380092
-1380295
-1380222
-1379926
-1380144
-1380166
-1380049
-1379760
-1379545
-1379566
-1379379
-1379474
-1379082
-1378665
-1378835
-1378510
-1378404
-1377561
-1377159
-1376742
-1376753
-1376568
-1375834
-1375156
-1374882
-1374510
-1374009
-1373184
-1372729
-1372701
-1372238
-1372031
-1371420
-1370664
-1370353
-1370173
-1369710
-1368873
-1368490
-1368349
-1368267
-1368044
-1367561
-1367018
-1366819
-1366519
-1365868
-1365538
-1365347
-1365418
-1365373
-1365293
-1364735
-1364449
-1364548
-1364302
-1364021
-1363625
-1363369
-1363507
-1363552
-1363622
-1363372
-1363090
-1363129
-1363118
-1363017
-1363073
-1362459
-1362624
-1362735
-1362841
-1362536
-1362254
-1362408
-1362495
-1362426
-1362059
-1361913
-1362025
-1362066
-1362203
-1361928
-1361886
-1361973
-1361940
-1361912
-1361380
-1361327
-1361474
-1361630
-1361758
-1361443
-1361237
-1361032
-1361129
-1360999
-1360901
-1361047
-1361354
-1361297
-1361382
-1361151
-1360806
-1361003
-1360996
-1360896
-1360565
-1360317
-1360724
-1360821
-1360942
-1360370
-1360424
-1360658
-1360526
-1360410
-1360027
-1359921
-1360397
-1360471
-1360763
-1360324
-1360360
-1360585
-1360678
-1360544
-1360192
-1360216
-1360571
-1360796
-1361056
-1360815
-1360632
-1360962
-1360803
-1360991
-1360549
-1361601
-1361373
-1361344
-1361428
-1361208
-1361050
-1361291
-1361399
-1361451
-1361080
-1361067
-1361387
-1361516
-1361739
-1361488
-1361291
-1361548
-1361656
-1361351
-1361033
-1361009
-1359437
-1361013
-1361645
-1361559
-1361342
-1361565
-1361546
-1361609
-1361110
-1361208
-1361566
-1361548
-1361584
-1361365
-1361096
-1361409
-1361429
-1361292
-1360916
-1360726
-1360899
-1361107
-1361255
-1361061
-1360713
-1360768
-1360811
-1360753
-1360408
-1360264
-1360558
-1360803
-1360711
-1360445
-1360423
-1360598
-1360668
-1360609
-1360098
-1360215
-1360536
-1360458
-1360828
-1360199
-1360112
-1360471
-1360558
-1360542
-1360053
-1360176
-1360487
-1360603
-1360565
-1360470
-1360203
-1360564
-1360627
-1360670
-1360188
-1360298
-1360661
-1360671
-1360813
-1360674
-1360466
-1360671
-1360738
-1360797
-1360388
-1360483
-1360822
-1360859
-1361187
-1360909
-1360673
-1361014
-1361037
-1360979
-1360797
-1360909
-1361350
-1361329
-1361442
-1361294
-1361307
-1361349
-1361541
-1361422
-1361149
-1361166
-1361331
-1361420
-1361795
-1361523
-1361530
-1361584
-1361839
-1361843
-1361529
-1361545
-1361824
-1361779
-1361950
-1361747
-1361272
-1361850
-1361878
-1361997
-1361577
-1361602
-1361874
-1362150
-1362185
-1361919
-1362063
-1362316
-1362194
-1362097
-1361911
-1361923
-1362206
-1363073
-1362698
-1362376
-1362259
-1362608
-1362773
-1362600
-1362250
-1362457
-1362717
-1362875
-1363213
-1362837
-1362816
-1363158
-1363218
-1363272
-1362803
-1362992
-1363297
-1363406
-1364665
-1363679
-1363491
-1363748
-1363566
-1363568
-1363269
-1363263
-1363596
-1363818
-1363956
-1363478
-1363735
-1364129
-1364170
-1364267
-1364032
-1363954
-1364347
-1364554
-1364762
-1364484
-1364320
-1364687
-1364766
-1364825
-1364412
-1364519
-1364852
-1365004
-1365193
-1365012
-1365014
-1365226
-1365167
-1365314
-1364570
-1364750
-1365103
-1365424
-1365520
-1365472
-1365313
-1365738
-1365709
-1365521
-1365676
-1365640
-1366067
-1366479
-1366119
-1366058
-1366321
-1366367
-1366370
-1366540
-1366452
-1366641
-1366831
-1367144
-1366799
-1366769
-1367189
-1367283
-1367185
-1366772
-1367075
-1367417
-1367474
-1367652
-1367476
-1367499
-1367827
-1367873
-1367909
-1367509
-1367566
-1367927
-1368059
-1368262
-1368174
-1368307
-1368396
-1368522
-1368397
-1368540
-1368542
-1368998
-1369240
-1369086
-1368959
-1369275
-1369490
-1369337
-1369007
-1369233
-1369460
-1369813
-1370031
-1369849
-1369911
-1370156
-1370175
-1370079
-1369533
-1369952
-1370400
-1370505
-1370661
-1370927
-1370666
-1370843
-1370790
-1370782
-1370389
-1370475
-1370792
-1370928
-1371143
-1371006
-1370964
-1371123
-1371396
-1371297
-1371054
-1371150
-1371485
-1371645
-1371944
-1371775
-1371688
-1371856
-1372024
-1372039
-1371832
-1371979
-1372357
-1372555
-1372768
-1372606
-1372658
-1372897
-1372896
-1372981
-1372631
-1372763
-1373044
-1373317
-1373532
-1373459
-1373271
-1373619
-1373515
-1373205
-1373395
-1373862
-1374077
-1374314
-1373959
-1373908
-1374075
-1374256
-1374303
-1373826
-1373864
-1374107
-1374159
-1374189
-1373958
-1373484
-1373590
-1373315
-1373027
-1372391
-1372243
-1372143
-1372026
-1371766
-1371006
-1370568
-1370200
-1369935
-1369514
-1368525
-1368006
-1367775
-1367519
-1367379
-1366429
-1365840
-1365445
-1365006
-1364486
-1363871
-1363444
-1363161
-1362863
-1362773
-1362100
-1361580
-1361287
-1361738
-1360679
-1359896
-1359710
-1359797
-1359643
-1359637
-1359018
-1358647
-1358494
-1358274
-1357979
-1357562
-1357553
-1357524
-1357534
-1357543
-1357163
-1356987
-1357153
-1356918
-1356848
-1356295
-1356271
-1356575
-1356551
-1356788
-1356289
-1356269
-1356434
-1356300
-1355980
-1355520
-1355560
-1355873
-1355867
-1355589
-1355178
-1355066
-1355331
-1355315
-1355373
-1354999
-1354913
-1354985
-1354900
-1354964
-1354481
-1354480
-1354762
-1354835
-1354763
-1354473
-1354307
-1354393
-1354551
-1354537
-1353876
-1353907
-1354264
-1354223
-1354255
-1353932
-1353746
-1353967
-1353985
-1354004
-1353518
-1353536
-1353842
-1353334
-1353810
-1353542
-1353555
-1353734
-1353868
-1353666
-1353344
-1353487
-1353659
-1353780
-1354133
-1353829
-1353736
-1354105
-1354125
-1354263
-1353836
-1353863
-1354178
-1354324
-1354587
-1354430
-1354356
-1354534
-1354681
-1354751
-1354365
-1354583
-1354749
-1354908
-1355187
-1355026
-1355075
-1355158
-1355210
-1355149
-1354787
-1354930
-1355356
-1355350
-1355722
-1355268
-1355289
-1355368
-1355396
-1355384
-1355160
-1355258
-1355508
-1355404
-1355818
-1355494
-1355386
-1355561
-1355487
-1355334
-1354998
-1355078
-1355369
-1354869
-1355123
-1355097
-1354980
-1355134
-1355189
-1355036
-1354626
-1354584
-1354732
-1354796
-1354833
-1354499
-1354048
-1354472
-1354697
-1354610
-1354278
-1354385
-1354545
-1354567
-1354584
-1354204
-1354028
-1354345
-1354452
-1354229
-1353903
-1354118
-1354431
-1354347
-1354153
-1354138
-1354205
-1354319
-1354408
-1355208
-1354385
-1354275
-1354572
-1354636
-1354935
-1354521
-1354591
-1354749
-1354737
-1354463
-1354303
-1354390
-1354509
-1354684
-1354937
-1354668
-1354544
-1354699
-1354672
-1354796
-1354295
-1354250
-1354635
-1354770
-1354929
-1354711
-1354600
-1354740
-1354895
-1354791
-1354442
-1354602
-1355756
-1355172
-1355270
-1354772
-1354855
-1355048
-1355228
-1355141
-1354972
-1355035
-1355279
-1355363
-1355559
-1355386
-1355445
-1355601
-1355566
-1355789
-1355334
-1355396
-1355745
-1355947
-1355911
-1355824
-1355747
-1355906
-1356039
-1356091
-1355834
-1355898
-1356200
-1356225
-1356602
-1356362
-1356452
-1356456
-1356471
-1356423
-1356111
-1356373
-1356627
-1356874
-1356895
-1356710
-1356770
-1356919
-1356902
-1357019
-1356787
-1356927
-1357190
-1357300
-1357623
-1357237
-1357427
-1357717
-1357822
-1357921
-1357396
-1357506
-1357927
-1358065
-1358195
-1358083
-1358210
-1358409
-1358418
-1358501
-1358090
-1358197
-1358560
-1358533
-1358804
-1358632
-1358629
-1358833
-1358921
-1358851
-1358689
-1358881
-1359284
-1359338
-1359549
-1359390
-1359469
-1359657
-1359706
-1359683
-1359313
-1359496
-1359909
-1359983
-1360373
-1359947
-1360093
-1360165
-1360450
-1360479
-1360100
-1360316
-1360683
-1360672
-1360813
-1360523
-1360719
-1360864
-1360804
-1360621
-1360602
-1360859
-1361950
-1361516
-1361362
-1361269
-1361289
-1361550
-1361558
-1361562
-1361190
-1361575
-1361747
-1362006
-1361964
-1362004
-1361947
-1362304
-1362403
-1362352
-1361933
-1362267
-1362458
-1362553
-1362893
-1362821
-1362808
-1362939
-1362982
-1363194
-1362749
-1362911
-1363322
-1363555
-1364460
-1363643
-1363552
-1363904
-1363865
-1363996
-1363509
-1363769
-1363945
-1364109
-1364296
-1364189
-1364359
-1364677
-1364607
-1364603
-1364187
-1364596
-1364823
-1365087
-1365344
-1365740
-1365188
-1365381
-1365450
-1365377
-1365132
-1365173
-1365587
-1365650
-1365894
-1365736
-1365764
-1365968
-1365994
-1365804
-1365546
-1365896
-1367102
-1366440
-1366493
-1366424
-1366404
-1366652
-1366573
-1366579
-1366332
-1366516
-1366823
-1366953
-1367261
-1368100
-1367272
-1367132
-1367320
-1367141
-1366863
-1367014
-1367331
-1367422
-1367912
-1367573
-1367614
-1367754
-1367839
-1367879
-1367563
-1367738
-1368110
-1368176
-1368673
-1368427
-1368342
-1368640
-1368631
-1368527
-1368376
-1368702
-1368873
-1368955
-1369339
-1369079
-1369165
-1369327
-1369494
-1369344
-1369144
-1369206
-1369564
-1369749
-1370018
-1369796
-1369764
-1369863
-1370023
-1369899
-1369744
-1369992
-1370098
-1370382
-1370500
-1370102
-1370088
-1370124
-1369954
-1369849
-1369368
-1369199
-1369173
-1369035
-1368884
-1368284
-1367969
-1367735
-1367388
-1367011
-1366184
-1365910
-1365704
-1365292
-1364917
-1364237
-1363904
-1363529
-1363164
-1362489
-1361731
-1361452
-1361344
-1360924
-1360606
-1359968
-1359725
-1359330
-1358901
-1358537
-1357706
-1357453
-1357361
-1357102
-1357111
-1356379
-1356187
-1355978
-1355854
-1355464
-1354825
-1354873
-1354686
-1354697
-1354593
-1354171
-1353911
-1353820
-1353773
-1353528
-1353025
-1353161
-1353103
-1353035
-1353280
-1352752
-1352754
-1352845
-1352650
-1352461
-1352058
-1352198
-1352205
-1352322
-1352459
-1352067
-1352086
-1352243
-1352042
-1351804
-1351488
-1351582
-1351777
-1351759
-1351686
-1351458
-1351583
-1351532
-1351461
-1351418
-1350915
-1351090
-1351172
-1351166
-1351243
-1350812
-1350801
-1350935
-1350778
-1350642
-1350197
-1350292
-1350369
-1350272
-1350283
-1350109
-1350161
-1350241
-1350119
-1349969
-1349588
-1349537
-1349829
-1349861
-1350044
-1349749
-1349621
-1349643
-1349627
-1349641
-1349306
-1349507
-1349688
-1349632
-1350009
-1349612
-1349601
-1349950
-1349960
-1349751
-1349462
-1349606
-1349856
-1350013
-1350135
-1350191
-1350119
-1350262
-1350389
-1350508
-1350187
-1350307
-1350601
-1350571
-1350730
-1350532
-1350541
-1350708
-1350808
-1350877
-1350570
-1350811
-1351054
-1351167
-1351332
-1351055
-1351080
-1351211
-1351283
-1351182
-1350975
-1351079
-1351238
-1351457
-1351549
-1351165
-1351356
-1351425
-1351446
-1351164
-1350624
-1350696
-1351022
-1351215
-1351119
-1350800
-1350910
-1350895
-1350843
-1350892
-1350535
-1350506
-1350605
-1350652
-1350824
-1350494
-1350650
-1350628
-1350812
-1350672
-1350186
-1350443
-1350641
-1350705
-1351005
-1350657
-1350490
-1350577
-1350390
-1350645
-1350708
-1350985
-1350690
-1350480
-1350636
-1350648
-1350501
-1350373
-1350611
-1350770
-1350698
-1350904
-1350572
-1350685
-1350858
-1350920
-1350797
-1350592
-1350780
-1350866
-1350963
-1351129
-1350949
-1350317
-1351065
-1351269
-1351252
-1350983
-1351158
-1351423
-1351605
-1351819
-1351591
-1351661
-1351745
-1351773
-1351653
-1351461
-1351710
-1352078
-1352553
-1352457
-1352262
-1352170
-1352281
-1352533
-1352606
-1352234
-1352319
-1352665
-1352806
-1352955
-1352794
-1352722
-1353039
-1353146
-1352921
-1352738
-1352865
-1352933
-1353163
-1353552
-1353352
-1353366
-1353566
-1353496
-1353461
-1353136
-1353593
-1353711
-1353883
-1354106
-1353824
-1354032
-1354175
-1354111
-1354043
-1353827
-1353856
-1354074
-1354361
-1354548
-1354217
-1354303
-1354460
-1354538
-1354678
-1354402
-1354517
-1354883
-1355039
-1355362
-1354972
-1355126
-1356014
-1355586
-1355257
-1354922
-1355308
-1355613
-1355724
-1356011
-1355584
-1355637
-1355838
-1355932
-1355907
-1355572
-1355741
-1356107
-1356130
-1356374
-1356190
-1356251
-1356504
-1356533
-1356378
-1356227
-1356473
-1356815
-1356866
-1357069
-1356904
-1356821
-1357089
-1357141
-1357159
-1356797
-1357084
-1357404
-1357493
-1357754
-1357480
-1357590
-1357640
-1357717
-1357829
-1357412
-1357644
-1357915
-1357982
-1358159
-1357950
-1358091
-1358274
-1358297
-1358321
-1358175
-1358356
-1358523
-1358729
-1358876
-1358624
-1358801
-1358960
-1358961
-1359143
-1358691
-1359068
-1359386
-1359367
-1359618
-1359465
-1359355
-1359629
-1359748
-1359822
-1359469
-1359646
-1359953
-1360167
-1360423
-1360276
-1360222
-1360527
-1360625
-1360355
-1360268
-1360428
-1360754
-1361035
-1361259
-1360782
-1360909
-1361002
-1361111
-1361207
-1360788
-1361065
-1361461
-1361591
-1361721
-1361471
-1361465
-1361786
-1361811
-1361947
-1361557
-1361886
-1362113
-1362186
-1362488
-1362131
-1362295
-1362617
-1362511
-1362401
-1362225
-1362592
-1362904
-1362913
-1363327
-1362955
-1363225
-1363288
-1363340
-1363372
-1363180
-1363473
-1363626
-1363896
-1364095
-1363783
-1363778
-1363940
-1364051
-1364204
-1363764
-1364021
-1364220
-1364524
-1364864
-1364428
-1364561
-1364749
-1364901
-1364987
-1364718
-1364969
-1365147
-1365325
-1365456
-1365243
-1365351
-1365509
-1365697
-1365723
-1365369
-1365521
-1365786
-1366026
-1366245
-1365930
-1365998
-1366271
-1366321
-1367259
-1366378
-1366411
-1366760
-1366789
-1367159
-1366929
-1366940
-1367087
-1367248
-1366906
-1366740
-1367066
-1367450
-1367703
-1367741
-1367601
-1367654
-1367958
-1367942
-1368122
-1367810
-1368042
-1368352
-1368538
-1368681
-1368457
-1368463
-1368630
-1368789
-1368645
-1368346
-1368517
-1368771
-1368827
-1369157
-1368795
-1368694
-1368834
-1368662
-1368403
-1368077
-1367946
-1367735
-1367733
-1367736
-1366853
-1366505
-1366292
-1366062
-1365431
-1364567
-1364391
-1364101
-1363650
-1363486
-1362762
-1362237
-1361957
-1361399
-1360945
-1360038
-1359990
-1359713
-1359337
-1358888
-1358265
-1358011
-1357635
-1357255
-1356922
-1356148
-1356107
-1355800
-1355610
-1355480
-1355092
-1354789
-1354481
-1354364
-1353881
-1353405
-1353417
-1353317
-1353175
-1353148
-1352783
-1352614
-1352736
-1352549
-1352315
-1351859
-1352047
-1352149
-1352085
-1352032
-1351914
-1351870
-1351947
-1352049
-1351754
-1351389
-1351524
-1351853
-1351804
-1351867
-1351560
-1351744
-1351873
-1351740
-1351615
-1351272
-1351461
-1351520
-1351531
-1351478
-1351306
-1351452
-1351503
-1351494
-1351145
-1350859
-1350924
-1351119
-1351281
-1351461
-1351189
-1351063
-1351190
-1351240
-1351215
-1350650
-1350731
-1350885
-1350941
-1351163
-1350828
-1350735
-1350984
-1350977
-1350863
-1350525
-1350689
-1350809
-1350864
-1350988
-1350622
-1350746
-1351032
-1350900
-1350876
-1350429
-1350646
-1350936
-1351025
-1351135
-1351036
-1351089
-1351438
-1351334
-1351440
-1351105
-1351206
-1351336
-1351535
-1351552
-1351352
-1351374
-1351515
-1351628
-1351692
-1351209
-1351498
-1351785
-1351723
-1351945
-1351590
-1351723
-1351698
-1351816
-1351815
-1351396
-1351415
-1351581
-1351672
-1351853
-1351407
-1351415
-1351430
-1351476
-1351509
-1351013
-1351264
-1351330
-1351469
-1351597
-1351300
-1351284
-1351199
-1351287
-1351072
-1350624
-1350986
-1351027
-1351173
-1351243
-1350896
-1350867
-1351101
-1351168
-1351240
-1350662
-1350836
-1350926
-1350999
-1351222
-1351051
-1350955
-1351021
-1351117
-1351032
-1350756
-1350989
-1351080
-1351303
-1351459
-1351081
-1351203
-1351301
-1351432
-1350838
-1351097
-1351301
-1351466
-1351579
-1351352
-1351565
-1351714
-1351704
-1351594
-1351426
-1351512
-1351686
-1351797
-1352171
-1351874
-1351966
-1352206
-1352393
-1352260
-1352089
-1352061
-1352419
-1352609
-1352704
-1352619
-1352675
-1352834
-1353187
-1353052
-1352653
-1352828
-1353112
-1353279
-1353415
-1353268
-1353522
-1353623
-1353611
-1353774
-1353523
-1353609
-1353941
-1354047
-1354176
-1354051
-1354046
-1354155
-1354292
-1354472
-1354104
-1354208
-1354605
-1354653
-1354777
-1354701
-1354797
-1355006
-1355022
-1354948
-1354629
-1354837
-1355127
-1355337
-1355468
-1355196
-1355283
-1355621
-1355564
-1355691
-1355481
-1356073
-1356430
-1357669
-1356980
-1356703
-1356411
-1356684
-1356935
-1357091
-1356807
-1357052
-1357390
-1357386
-1357480
-1357405
-1357515
-1357717
-1357756
-1357788
-1357492
-1357839
-1357898
-1358008
-1358262
-1357985
-1358102
-1358394
-1358358
-1358403
-1358045
-1358385
-1358738
-1358715
-1358891
-1358760
-1358794
-1359157
-1359077
-1359113
-1358784
-1359114
-1359531
-1359591
-1359859
-1359921
-1359903
-1359608
-1359771
-1360080
-1360419
-1360809
-1360535
-1360588
-1360722
-1360418
-1360740
-1360936
-1361106
-1361390
-1361134
-1361148
-1361298
-1361383
-1361209
-1361031
-1361256
-1361695
-1361766
-1362131
-1361862
-1362003
-1362131
-1362247
-1362042
-1361694
-1362095
-1362411
-1362369
-1362632
-1362389
-1362340
-1362699
-1362727
-1362584
-1362261
-1362602
-1363085
-1363168
-1363628
-1363366
-1363492
-1363696
-1363734
-1363688
-1363425
-1363550
-1363840
-1364014
-1364286
-1364007
-1364067
-1364308
-1364447
-1364616
-1364175
-1364491
-1364864
-1364984
-1365108
-1364850
-1364954
-1365373
-1365446
-1365540
-1365195
-1365359
-1365612
-1365879
-1366047
-1365904
-1365947
-1366133
-1366255
-1366414
-1366031
-1366212
-1366528
-1366715
-1366990
-1366726
-1366677
-1367052
-1367100
-1367250
-1366980
-1367083
-1367314
-1367480
-1367845
-1367570
-1367732
-1367991
-1368209
-1367983
-1367770
-1368069
-1368568
-1368809
-1368968
-1368920
-1369027
-1369311
-1369488
-1369407
-1369245
-1369394
-1369699
-1369876
-1369965
-1369971
-1370141
-1370259
-1370388
-1370488
-1370088
-1370454
-1370616
-1370863
-1370951
-1370657
-1370648
-1370889
-1370956
-1370864
-1370627
-1370860
-1371086
-1371401
-1371450
-1371202
-1371425
-1371695
-1372393
-1371976
-1371855
-1372055
-1372517
-1372641
-1372733
-1372693
-1372721
-1372938
-1372822
-1372851
-1372373
-1372636
-1373034
-1373004
-1373254
-1373049
-1373098
-1373242
-1373418
-1373354
-1372912
-1373282
-1373582
-1373498
-1373669
-1373281
-1373407
-1373484
-1373385
-1373029
-1372714
-1372685
-1372717
-1372171
-1372294
-1371894
-1371572
-1371540
-1371178
-1370760
-1370121
-1369826
-1369705
-1369172
-1368676
-1368099
-1367783
-1367513
-1366954
-1366320
-1365399
-1365065
-1364799
-1364495
-1364002
-1363389
-1362970
-1362674
-1362185
-1361710
-1361022
-1360802
-1360422
-1360321
-1360228
-1359682
-1359536
-1359506
-1358982
-1358781
-1358353
-1358250
-1358217
-1358166
-1358217
-1357608
-1357551
-1357660
-1357426
-1357452
-1356975
-1356746
-1356921
-1357017
-1356976
-1356533
-1356639
-1356749
-1356592
-1356326
-1356137
-1356174
-1356367
-1356364
-1356750
-1356298
-1356154
-1356238
-1356150
-1356138
-1355742
-1355787
-1356054
-1356144
-1356006
-1355867
-1355772
-1355918
-1355843
-1355886
-1355329
-1355393
-1355672
-1355629
-1355497
-1355224
-1355377
-1355518
-1355483
-1355387
-1354959
-1354936
-1355072
-1355134
-1355262
-1354771
-1354752
-1354973
-1354797
-1354769
-1354223
-1354368
-1354562
-1354532
-1354783
-1354395
-1354382
-1354483
-1354715
-1354631
-1354255
-1354233
-1354510
-1354679
-1354831
-1354458
-1354635
-1354893
-1354570
-1354976
-1354586
-1354686
-1354957
-1355010
-1355229
-1354892
-1354965
-1355308
-1355236
-1355196
-1354948
-1354955
-1355129
-1355259
-1355293
-1355025
-1355251
-1355213
-1355162
-1355304
-1354857
-1354958
-1355172
-1355338
-1355265
-1355099
-1355166
-1355465
-1355450
-1355432
-1355151
-1355132
-1355400
-1355486
-1355646
-1355385
-1355318
-1355434
-1355396
-1355329
-1355036
-1355014
-1355243
-1355296
-1355405
-1354955
-1354923
-1355078
-1354999
-1354802
-1354318
-1354358
-1354684
-1354641
-1354604
-1354445
-1354376
-1354516
-1354597
-1354623
-1354309
-1354372
-1354446
-1354571
-1354822
-1354425
-1354475
-1354470
-1354591
-1354510
-1354082
-1354278
-1354448
-1354516
-1354716
-1354553
-1354491
-1354755
-1354818
-1354788
-1354597
-1354759
-1355042
-1355178
-1355241
-1355155
-1355166
-1355407
-1355599
-1355391
-1355072
-1355520
-1355869
-1355849
-1356022
-1355838
-1355872
-1355958
-1356031
-1355965
-1355849
-1355969
-1356312
-1356424
-1356548
-1356217
-1356302
-1356598
-1356675
-1356695
-1356463
-1356612
-1356955
-1357126
-1357345
-1357024
-1357279
-1357538
-1357210
-1357251
-1357143
-1357186
-1357540
-1357626
-1357768
-1357254
-1357379
-1357366
-1357539
-1357431
-1356692
-1357208
-1357412
-1357463
-1357594
-1357270
-1357182
-1357237
-1357190
-1357385
-1357135
-1357390
-1357754
-1357459
-1357707
-1357398
-1357458
-1357852
-1357845
-1357976
-1357752
-1357771
-1357967
-1358067
-1358478
-1358229
-1358159
-1358468
-1358582
-1358725
-1358265
-1358435
-1358695
-1358959
-1359097
-1358808
-1358998
-1359117
-1359169
-1359276
-1359009
-1359161
-1359394
-1359489
-1359667
-1359479
-1359644
-1360022
-1359951
-1359946
-1359773
-1359896
-1360249
-1360243
-1360719
-1360239
-1360505
-1360542
-1360607
-1360670
-1360407
-1360571
-1361086
-1361160
-1361300
-1361172
-1361348
-1361607
-1361834
-1361900
-1361821
-1362119
-1362267
-1362585
-1362383
-1362312
-1362579
-1362731
-1362798
-1362432
-1362586
-1362756
-1362871
-1363044
-1362810
-1362771
-1363037
-1363043
-1363212
-1362853
-1363673
-1363622
-1363472
-1363523
-1363928
-1364005
-1364163
-1363877
-1363990
-1364193
-1364291
-1364104
-1364006
-1364249
-1364624
-1364738
-1364653
-1364510
-1364642
-1364843
-1365041
-1364965
-1364839
-1364814
-1365351
-1365369
-1365632
-1365292
-1365226
-1365439
-1365528
-1365559
-1365260
-1365531
-1365840
-1365836
-1367003
-1366179
-1366000
-1366121
-1366384
-1366437
-1366155
-1366400
-1366651
-1366741
-1367001
-1366697
-1366397
-1366810
-1366812
-1367151
-1366820
-1367006
-1367339
-1367589
-1367835
-1367412
-1367494
-1367642
-1367757
-1367961
-1367581
-1369003
-1369576
-1369497
-1368320
-1368252
-1368198
-1368370
-1368119
-1367945
-1368169
-1368566
-1368598
-1369006
-1368755
-1368852
-1369095
-1369097
-1369167
-1368802
-1369110
-1369407
-1369498
-1369645
-1369602
-1369385
-1369487
-1369814
-1369999
-1370002
-1369771
-1369719
-1369752
-1369773
-1369873
-1369344
-1369375
-1369354
-1369310
-1368955
-1368663
-1368578
-1368424
-1368149
-1367639
-1367424
-1367430
-1367140
-1367108
-1366459
-1365949
-1365524
-1365005
-1364468
-1363843
-1363799
-1363553
-1363222
-1362898
-1362169
-1361907
-1361611
-1361324
-1360994
-1360296
-1360116
-1360066
-1360316
-1359848
-1359154
-1359013
-1358990
-1358684
-1358503
-1357888
-1357979
-1358041
-1357914
-1357852
-1357582
-1357436
-1357539
-1357343
-1357247
-1356767
-1356754
-1357003
-1357018
-1357208
-1356844
-1356699
-1356795
-1356784
-1356591
-1356394
-1356389
-1356696
-1356663
-1356751
-1356539
-1356447
-1356581
-1356545
-1356714
-1356184
-1356248
-1357080
-1356751
-1356793
-1356373
-1356313
-1356302
-1356222
-1356204
-1355841
-1355889
-1356204
-1356094
-1356104
-1355929
-1355837
-1356110
-1356012
-1356072
-1355568
-1355598
-1355888
-1356011
-1356053
-1355619
-1355151
-1355319
-1355322
-1355515
-1355179
-1355287
-1355384
-1355523
-1355757
-1355619
-1355732
-1355740
-1355760
-1355690
-1355523
-1355584
-1355969
-1355995
-1356232
-1355855
-1355860
-1356181
-1356481
-1356444
-1356111
-1356453
-1356822
-1357059
-1357234
-1356889
-1356914
-1357152
-1357323
-1357084
-1356867
-1357042
-1357345
-1357402
-1357589
-1357420
-1357308
-1357617
-1357733
-1357630
-1357277
-1357443
-1357585
-1357716
-1357821
-1357518
-1357519
-1357705
-1357611
-1357739
-1357283
-1357365
-1357524
-1357528
-1357642
-1357311
-1357257
-1357443
-1357505
-1357272
-1356859
-1357107
-1357325
-1357332
-1357596
-1357176
-1357245
-1357375
-1357511
-1357265
-1356885
-1356980
-1357213
-1357347
-1357564
-1357287
-1357283
-1357585
-1357740
-1357650
-1357197
-1357381
-1357683
-1357868
-1357954
-1357768
-1357601
-1357872
-1357833
-1357740
-1357421
-1357391
-1357621
-1357745
-1357921
-1357317
-1357652
-1357853
-1357960
-1358612
-1357680
-1357735
-1357910
-1357967
-1358033
-1357983
-1357950
-1358172
-1358348
-1358065
-1357746
-1358001
-1358374
-1358377
-1358756
-1358501
-1358491
-1358611
-1358796
-1358834
-1358471
-1358530
-1358711
-1359022
-1359136
-1358981
-1358866
-1359174
-1359087
-1359150
-1358665
-1358768
-1359045
-1359242
-1359559
-1359084
-1359187
-1359158
-1359365
-1359267
-1359007
-1358978
-1359198
-1359254
-1359460
-1359215
-1359318
-1359498
-1359330
-1359437
-1359062
-1359080
-1359323
-1359393
-1359530
-1359288
-1360133
-1359775
-1359606
-1359767
-1359473
-1359526
-1359667
-1359791
-1360215
-1359806
-1359873
-1359932
-1360160
-1360177
-1359789
-1359719
-1359978
-1360233
-1360330
-1359949
-1360078
-1360472
-1360425
-1360316
-1359930
-1360259
-1360432
-1360605
-1360996
-1360610
-1360708
-1361010
-1361304
-1361310
-1361092
-1361192
-1361548
-1361703
-1361937
-1361742
-1361837
-1362195
-1362375
-1362359
-1362072
-1362177
-1362502
-1362760
-1362999
-1362758
-1362791
-1363124
-1363307
-1363348
-1363141
-1363334
-1363489
-1363608
-1363986
-1363733
-1363809
-1364129
-1364204
-1364203
-1364091
-1364153
-1364581
-1364484
-1364858
-1364597
-1364486
-1364718
-1364906
-1364897
-1364511
-1364814
-1364997
-1365037
-1365300
-1365031
-1364928
-1365209
-1365160
-1364968
-1364735
-1364747
-1364971
-1365801
-1365422
-1364917
-1364788
-1365027
-1365030
-1364895
-1364593
-1364712
-1364871
-1364939
-1365279
-1364983
-1364812
-1365168
-1365242
-1365441
-1365191
-1365468
-1365849
-1365923
-1366113
-1365843
-1365921
-1366124
-1366285
-1366201
-1366124
-1366207
-1366499
-1366699
-1367006
-1366720
-1366772
-1366987
-1367038
-1367229
-1366876
-1367058
-1367464
-1367834
-1367889
-1367608
-1367749
-1368062
-1368222
-1368463
-1368174
-1368454
-1368748
-1369015
-1368714
-1369104
-1369152
-1369596
-1369819
-1369807
-1369582
-1369658
-1369820
-1369982
-1370131
-1370130
-1370307
-1370484
-1370588
-1370617
-1370447
-1370486
-1370837
-1370955
-1371322
-1371098
-1371185
-1370922
-1372264
-1371658
-1371338
-1371420
-1371696
-1372103
-1372238
-1371918
-1372367
-1372758
-1372979
-1373031
-1372440
-1372512
-1372703
-1372839
-1373222
-1373130
-1373459
-1373665
-1373813
-1373804
-1373654
-1373821
-1373993
-1374006
-1374109
-1373875
-1373553
-1373640
-1373563
-1373303
-1372763
-1372715
-1372581
-1372332
-1372143
-1371528
-1371101
-1370906
-1370567
-1370180
-1369394
-1368875
-1368619
-1368376
-1368171
-1367485
-1367240
-1366977
-1366766
-1366421
-1365892
-1365695
-1365654
-1365473
-1365322
-1364838
-1364454
-1364368
-1364314
-1363930
-1362910
-1363059
-1363155
-1363293
-1363322
-1362979
-1362707
-1362820
-1362811
-1362749
-1362216
-1362181
-1362274
-1362222
-1362429
-1362212
-1362136
-1362361
-1362285
-1362414
-1362037
-1362018
-1362187
-1362202
-1362470
-1362114
-1362270
-1362386
-1362441
-1362360
-1361982
-1362198
-1362480
-1362505
-1362673
-1362328
-1362255
-1362564
-1362583
-1362589
-1362344
-1362522
-1362639
-1362790
-1362690
-1362842
-1363067
-1362775
-1362928
-1363175
-1363431
-1363511
-1363248
-1363375
-1363539
-1363406
-1363433
-1362904
-1363015
-1363256
-1363346
-1363504
-1363269
-1363084
-1363263
-1363281
-1363286
-1362822
-1362857
-1363047
-1363113
-1363230
-1363046
-1363193
-1363334
-1363375
-1363273
-1362974
-1363162
-1363352
-1363392
-1363749
-1363321
-1363433
-1363657
-1363845
-1363715
-1363464
-1363434
-1363722
-1363765
-1363909
-1363704
-1363814
-1364271
-1364575
-1364419
-1364250
-1364417
-1364645
-1364986
-1365162
-1364985
-1365139
-1365394
-1365179
-1365174
-1365003
-1365150
-1365242
-1365552
-1365537
-1365336
-1365400
-1365659
-1365606
-1365420
-1365225
-1365373
-1365524
-1365745
-1366026
-1365624
-1365573
-1365716
-1365744
-1365649
-1365403
-1365517
-1365669
-1365832
-1366890
-1365970
-1365798
-1366075
-1365997
-1366035
-1365824
-1365742
-1365934
-1366112
-1366258
-1366020
-1365915
-1366129
-1366205
-1366166
-1365745
-1365836
-1366008
-1366009
-1366309
-1366013
-1365980
-1366122
-1366162
-1366149
-1366029
-1366152
-1366355
-1366369
-1366699
-1366340
-1366285
-1366628
-1366643
-1366729
-1366753
-1366816
-1366974
-1367092
-1367189
-1367032
-1367077
-1367504
-1367471
-1367556
-1367195
-1367391
-1367781
-1367908
-1368028
-1367910
-1368064
-1368061
-1368119
-1368185
-1367942
-1368088
-1368040
-1368408
-1368783
-1368702
-1368607
-1368892
-1368938
-1369047
-1368654
-1368846
-1369060
-1369262
-1369403
-1369146
-1369215
-1369150
-1369593
-1369598
-1369257
-1369484
-1369848
-1370053
-1370325
-1370089
-1370140
-1370369
-1370575
-1370541
-1370327
-1370461
-1370843
-1371032
-1371239
-1371047
-1371067
-1371449
-1371468
-1371633
-1371245
-1371476
-1371718
-1372029
-1372431
-1372050
-1372070
-1372296
-1372499
-1372471
-1372185
-1372263
-1372730
-1372927
-1372973
-1372747
-1372842
-1373181
-1373260
-1373129
-1372875
-1372994
-1373392
-1373447
-1373699
-1373521
-1373558
-1373870
-1373899
-1373669
-1373506
-1373587
-1373977
-1374101
-1374272
-1373870
-1374135
-1374394
-1374580
-1374701
-1374193
-1374461
-1374880
-1375061
-1375261
-1374999
-1374951
-1375310
-1375470
-1375432
-1375095
-1375322
-1375791
-1375817
-1376279
-1375929
-1376079
-1376352
-1376610
-1376740
-1376326
-1376629
-1376936
-1377032
-1377253
-1377089
-1377087
-1377400
-1377523
-1377412
-1377218
-1377171
-1377468
-1377483
-1377733
-1377603
-1377637
-1377963
-1377907
-1377865
-1377745
-1377991
-1378168
-1378282
-1378620
-1378408
-1378396
-1378627
-1378968
-1378786
-1378728
-1379552
-1379330
-1379370
-1379461
-1379572
-1379632
-1380070
-1380052
-1380091
-1379795
-1380088
-1380636
-1380766
-1380926
-1381760
-1381206
-1381349
-1381505
-1381482
-1381128
-1381312
-1381568
-1381828
-1382067
-1381804
-1381855
-1382065
-1382125
-1382172
-1381797
-1381990
-1382459
-1382517
-1382910
-1382678
-1382671
-1382859
-1383067
-1383302
-1383052
-1383298
-1383451
-1383564
-1383819
-1383662
-1383719
-1384138
-1384179
-1384076
-1383928
-1384289
-1384662
-1384761
-1385070
-1384857
-1385152
-1385447
-1385475
-1385291
-1384862
-1385338
-1385650
-1385766
-1386250
-1386100
-1385984
-1386267
-1386392
-1386448
-1386132
-1386365
-1386734
-1386896
-1387125
-1387115
-1387664
-1387454
-1387673
-1387789
-1387294
-1387438
-1387788
-1388071
-1388324
-1388143
-1388176
-1388310
-1388517
-1388624
-1388296
-1388366
-1388777
-1390078
-1389369
-1388775
-1388687
-1388796
-1389006
-1388846
-1388379
-1388542
-1388853
-1388998
-1389001
-1389145
-1389152
-1389254
-1389211
-1389286
-1388645
-1388548
-1388554
-1388577
-1388216
-1387799
-1387462
-1387400
-1387084
-1386774
-1385999
-1385552
-1385370
-1385119
-1385001
-1384259
-1383811
-1383686
-1383299
-1382805
-1382026
-1382699
-1381806
-1381490
-1381152
-1380487
-1380212
-1379619
-1379481
-1379404
-1378738
-1378528
-1378450
-1379093
-1378473
-1377822
-1377535
-1377532
-1377243
-1376405
-1376331
-1376389
-1376476
-1376483
-1376644
-1376240
-1375518
-1375876
-1376103
-1376227
-1375736
-1375436
-1375890
-1375673
-1376128
-1375743
-1375683
-1375405
-1375443
-1375767
-1375536
-1375681
-1376859
-1376233
-1376168
-1376372
-1376034
-1376215
-1376392
-1376239
-1375841
-1375916
-1376315
-1376298
-1376558
-1376382
-1376246
-1376480
-1376395
-1376522
-1376056
-1376152
-1376360
-1376472
-1376701
-1376467
-1376488
-1376624
-1376639
-1376769
-1376486
-1376763
-1376886
-1376872
-1377087
-1376877
-1376906
-1377017
-1376803
-1377009
-1376684
-1376893
-1377310
-1377060
-1377385
-1377309
-1378379
-1377856
-1377589
-1377741
-1377307
-1377405
-1377326
-1377572
-1377723
-1377450
-1377589
-1377896
-1378497
-1378151
-1377634
-1377803
-1377893
-1378021
-1378370
-1378067
-1378223
-1378364
-1378446
-1378419
-1378227
-1378251
-1379727
-1379102
-1379422
-1379134
-1379030
-1379448
-1379715
-1379770
-1379053
-1379394
-1379862
-1379917
-1380370
-1380142
-1379999
-1380120
-1380243
-1379328
-1379725
-1380124
-1380279
-1380282
-1380685
-1380176
-1380329
-1380487
-1380145
-1380666
-1380185
-1380441
-1380676
-1380616
-1380953
-1380540
-1381528
-1380893
-1381142
-1381073
-1380697
-1380766
-1381038
-1382011
-1381667
-1381228
-1381004
-1381122
-1381256
-1381249
-1380855
-1380827
-1381247
-1381459
-1381450
-1381207
-1381297
-1381360
-1381517
-1381494
-1381251
-1381439
-1381616
-1382796
-1382407
-1381738
-1381768
-1381887
-1381902
-1381968
-1381764
-1381765
-1382085
-1381736
-1382314
-1382151
-1382172
-1382391
-1382565
-1382597
-1382414
-1382622
-1382506
-1382952
-1383220
-1383084
-1383073
-1383397
-1383414
-1383419
-1383105
-1383339
-1383181
-1383593
-1383831
-1383883
-1384409
-1384327
-1384351
-1384371
-1384221
-1384325
-1384724
-1384801
-1385224
-1384454
-1384730
-1385528
-1385472
-1385469
-1385141
-1385387
-1385703
-1385906
-1386058
-1385892
-1386006
-1386331
-1386438
-1386391
-1386195
-1386690
-1386969
-1387204
-1387192
-1387269
-1387108
-1387188
-1387642
-1387678
-1387894
-1387601
-1388278
-1388070
-1388235
-1388156
-1387803
-1388028
-1388281
-1388446
-1388848
-1388571
-1388693
-1388811
-1388902
-1388785
-1388571
-1388890
-1389303
-1389404
-1389640
-1389447
-1389431
-1389499
-1389510
-1389438
-1389320
-1389354
-1389689
-1389751
-1390190
-1390129
-1390205
-1390292
-1390305
-1390181
-1390078
-1390226
-1390475
-1390554
-1390905
-1390771
-1390776
-1390876
-1390944
-1390911
-1390551
-1390781
-1390998
-1391150
-1391404
-1391080
-1391169
-1391295
-1391266
-1391280
-1390930
-1391131
-1391388
-1391545
-1391420
-1391342
-1391425
-1391626
-1391665
-1391109
-1391269
-1391615
-1391662
-1391851
-1391572
-1391725
-1392000
-1392080
-1391943
-1391699
-1391772
-1392203
-1392237
-1392358
-1392195
-1392321
-1392647
-1392746
-1392697
-1392490
-1392629
-1392965
-1393147
-1393287
-1392990
-1393204
-1393543
-1393584
-1393571
-1393286
-1393574
-1393833
-1394091
-1394349
-1393999
-1394055
-1394216
-1394321
-1394242
-1393984
-1394130
-1394432
-1394519
-1394949
-1394727
-1394576
-1394795
-1394849
-1394932
-1394621
-1394758
-1395117
-1395266
-1395436
-1395331
-1395330
-1395467
-1395750
-1395624
-1395451
-1395634
-1396115
-1396205
-1396481
-1396305
-1396443
-1396753
-1396763
-1396855
-1396484
-1396808
-1397080
-1397287
-1397406
-1397291
-1397436
-1397518
-1397525
-1397154
-1397168
-1397354
-1397217
-1397157
-1396842
-1396682
-1396573
-1396381
-1395966
-1395356
-1395139
-1395113
-1394783
-1394668
-1394118
-1393736
-1393697
-1393350
-1392813
-1392294
-1392083
-1391848
-1391463
-1391357
-1390903
-1390641
-1390347
-1390082
-1389625
-1389048
-1389083
-1389006
-1388759
-1388674
-1388435
-1388362
-1388160
-1388138
-1387906
-1387253
-1387307
-1387388
-1387110
-1387198
-1386659
-1386592
-1386567
-1386485
-1386337
-1385903
-1386060
-1386134
-1386153
-1386477
-1386101
-1386109
-1386195
-1386164
-1386161
-1385720
-1386008
-1386265
-1386398
-1386539
-1386199
-1386048
-1386332
-1386328
-1386178
-1385844
-1386036
-1386495
-1386550
-1386782
-1386460
-1386581
-1386700
-1386749
-1386737
-1386383
-1386671
-1386894
-1386974
-1387101
-1386953
-1387044
-1387165
-1387286
-1387244
-1386951
-1386988
-1387310
-1387280
-1387472
-1387212
-1387116
-1387239
-1387153
-1386996
-1386761
-1386985
-1387239
-1387161
-1387634
-1387252
-1387313
-1387506
-1387566
-1387523
-1387092
-1387251
-1387430
-1387598
-1387857
-1387769
-1387817
-1388167
-1388241
-1388141
-1387927
-1388190
-1388482
-1388823
-1389081
-1388741
-1388771
-1389016
-1389089
-1389177
-1388848
-1389154
-1389548
-1389617
-1389811
-1389583
-1389631
-1390043
-1390233
-1390036
-1389900
-1390036
-1390579
-1390599
-1390594
-1390423
-1390555
-1390828
-1390785
-1390920
-1390475
-1390596
-1391015
-1391082
-1391370
-1391127
-1391090
-1391291
-1391362
-1391289
-1390849
-1390955
-1391261
-1391253
-1391276
-1390994
-1391143
-1391204
-1391389
-1391438
-1390947
-1390989
-1391354
-1391505
-1391403
-1391157
-1391265
-1391464
-1391521
-1391484
-1391095
-1391157
-1391414
-1391552
-1391739
-1391665
-1391610
-1391669
-1391711
-1391412
-1391097
-1391272
-1391566
-1391694
-1391962
-1391706
-1391686
-1391807
-1391963
-1391849
-1391389
-1391750
-1392055
-1392125
-1392185
-1392186
-1392135
-1392259
-1392526
-1392504
-1392166
-1392444
-1392783
-1392741
-1393079
-1392767
-1392797
-1393056
-1393309
-1393207
-1392897
-1393257
-1393490
-1393657
-1394067
-1393709
-1393796
-1394008
-1394284
-1394096
-1393911
-1394174
-1394345
-1394578
-1394862
-1394587
-1394673
-1394924
-1395019
-1394956
-1394872
-1395085
-1395381
-1395567
-1395791
-1395582
-1395651
-1396022
-1396168
-1395939
-1395789
-1395949
-1396322
-1396461
-1396600
-1396494
-1396679
-1396956
-1396894
-1396913
-1396534
-1396756
-1397181
-1397254
-1397561
-1397385
-1397493
-1397747
-1397667
-1397769
-1397442
-1397754
-1398103
-1398158
-1398377
-1398093
-1398138
-1398345
-1398613
-1398571
-1398321
-1398474
-1398888
-1399125
-1399253
-1398972
-1399127
-1399415
-1399590
-1399641
-1399112
-1399457
-1399690
-1399920
-1400293
-1399875
-1399904
-1400167
-1400294
-1400363
-1400176
-1400413
-1400654
-1400904
-1401107
-1400973
-1401083
-1401377
-1401372
-1401020
-1400918
-1401053
-1401336
-1401618
-1401776
-1401459
-1401620
-1401830
-1401997
-1401739
-1401607
-1401826
-1402083
-1402356
-1402378
-1402350
-1402285
-1402411
-1402631
-1402438
-1402413
-1402445
-1402700
-1402825
-1402844
-1402759
-1402844
-1403110
-1403162
-1403203
-1402708
-1402978
-1403224
-1403500
-1403565
-1403317
-1403504
-1403754
-1403731
-1403802
-1403426
-1403652
-1403963
-1404248
-1404406
-1404284
-1404446
-1404653
-1404741
-1404917
-1404475
-1404859
-1405318
-1405280
-1405678
-1405446
-1405466
-1405892
-1406100
-1406088
-1405840
-1406061
-1406361
-1406491
-1406850
-1406625
-1406808
-1406953
-1407130
-1406822
-1406596
-1406753
-1407004
-1407352
-1407386
-1407338
-1407430
-1407413
-1407465
-1407141
-1406793
-1406852
-1407094
-1406939
-1406954
-1406434
-1406168
-1406025
-1405839
-1405611
-1404719
-1404508
-1404496
-1404321
-1404096
-1403433
-1402954
-1402654
-1402325
-1402018
-1401121
-1401003
-1400754
-1400433
-1400326
-1399641
-1399245
-1398876
-1398726
-1398243
-1397582
-1397284
-1397242
-1396948
-1397064
-1396382
-1396263
-1396087
-1395961
-1395727
-1394975
-1394876
-1394956
-1394901
-1394950
-1394682
-1394507
-1394384
-1394458
-1394081
-1393854
-1393955
-1394029
-1394051
-1394170
-1393765
-1393837
-1393847
-1393942
-1393727
-1393413
-1393478
-1393825
-1393798
-1393891
-1393693
-1393548
-1393626
-1393734
-1393424
-1393337
-1393482
-1393811
-1393940
-1394038
-1393632
-1393820
-1393849
-1393789
-1393735
-1393449
-1393509
-1393648
-1393756
-1393765
-1393568
-1393615
-1393901
-1393941
-1393648
-1393324
-1393586
-1393720
-1393654
-1394147
-1393683
-1393637
-1393685
-1393803
-1393671
-1393279
-1393360
-1393477
-1393609
-1393921
-1393563
-1393636
-1393890
-1393802
-1393494
-1393427
-1393707
-1393822
-1393884
-1393947
-1393792
-1393942
-1394115
-1394230
-1394251
-1393912
-1394288
-1394416
-1394536
-1394695
-1394722
-1394838
-1394880
-1395036
-1394965
-1394621
-1394888
-1395238
-1395443
-1395411
-1395198
-1395391
-1395504
-1395706
-1395636
-1395198
-1395645
-1395770
-1396063
-1396084
-1395885
-1396049
-1396100
-1396288
-1396160
-1395727
-1396152
-1396320
-1396381
-1396724
-1396483
-1396573
-1396644
-1396672
-1396490
-1396186
-1396351
-1396723
-1396873
-1396965
-1396645
-1396870
-1397009
-1397049
-1396973
-1396605
-1396847
-1397107
-1397268
-1397324
-1397004
-1397170
-1397203
-1397241
-1397119
-1396899
-1397135
-1397258
-1397375
-1397500
-1397241
-1397246
-1397360
-1397392
-1397250
-1396982
-1397165
-1397527
-1397517
-1397910
-1397472
-1397533
-1397742
-1397934
-1397768
-1397524
-1397817
-1398043
-1398114
-1398385
-1398051
-1398136
-1398355
-1398406
-1398333
-1398076
-1398316
-1398544
-1398720
-1398917
-1398813
-1399052
-1399122
-1399330
-1399131
-1398707
-1398969
-1399206
-1399402
-1399416
-1399216
-1399441
-1399671
-1399651
-1399681
-1399351
-1399598
-1399909
-1400099
-1400008
-1399937
-1400078
-1400170
-1400406
-1400073
-1399986
-1400356
-1400643
-1400694
-1400774
-1400654
-1400840
-1401055
-1401221
-1400916
-1400947
-1401176
-1401537
-1401522
-1401569
-1401434
-1401584
-1401780
-1401969
-1401796
-1401589
-1401893
-1402133
-1402337
-1402592
-1402338
-1402393
-1402463
-1402453
-1402323
-1401987
-1402258
-1402488
-1402708
-1403059
-1402727
-1402873
-1403110
-1403152
-1402884
-1402760
-1403100
-1403380
-1403501
-1403722
-1403537
-1403749
-1403905
-1403821
-1403868
-1403426
-1403667
-1404101
-1404351
-1404600
-1404324
-1404399
-1404502
-1404753
-1404462
-1404216
-1404480
-1404837
-1404899
-1405141
-1404999
-1405091
-1405202
-1405296
-1405434
-1405167
-1405196
-1405577
-1405779
-1406032
-1405756
-1405918
-1405992
-1406086
-1405965
-1405789
-1405988
-1406286
-1406226
-1406306
-1406182
-1406399
-1406509
-1406655
-1406336
-1406137
-1406485
-1406918
-1406937
-1407212
-1406979
-1407022
-1407114
-1407305
-1407145
-1406893
-1407319
-1407596
-1407745
-1407773
-1407462
-1407732
-1407951
-1407850
-1407997
-1407677
-1407938
-1408139
-1408087
-1408180
-1407942
-1408207
-1408463
-1408292
-1408112
-1407920
-1408001
-1408380
-1408266
-1408445
-1408287
-1408547
-1408492
-1408566
-1408468
-1408175
-1408332
-1408638
-1408979
-1409075
-1408853
-1408922
-1409238
-1409392
-1409115
-1409048
-1409369
-1409559
-1409575
-1409798
-1409468
-1409769
-1409922
-1410074
-1410258
-1410056
-1410027
-1410039
-1410141
-1409749
-1409439
-1409588
-1409624
-1409451
-1409473
-1408836
-1408655
-1408594
-1408400
-1407939
-1407170
-1406967
-1406874
-1406543
-1406374
-1405709
-1405276
-1404903
-1404513
-1403971
-1403499
-1403194
-1402865
-1402665
-1402633
-1401876
-1401609
-1401335
-1401229
-1400627
-1399968
-1399991
-1399961
-1399720
-1399645
-1399202
-1399086
-1398867
-1398797
-1398586
-1397884
-1398004
-1398027
-1398042
-1397881
-1397479
-1397510
-1397637
-1397476
-1397408
-1396913
-1397023
-1397360
-1397348
-1397205
-1396911
-1397184
-1397329
-1397347
-1396942
-1396793
-1396950
-1397205
-1397114
-1397326
-1397056
-1397182
-1397176
-1397371
-1397131
-1396693
-1397030
-1397066
-1397150
-1397170
-1396908
-1396804
-1396838
-1396904
-1396738
-1396258
-1396553
-1396746
-1396656
-1396591
-1396416
-1396507
-1396458
-1396221
-1395833
-1395954
-1396111
-1396089
-1396022
-1395752
-1396129
-1396114
-1395672
-1396019
-1395624
-1395936
-1396108
-1396081
-1396212
-1395931
-1396132
-1396098
-1396353
-1395970
-1395940
-1396012
-1396306
-1396375
-1396652
-1396614
-1396980
-1396997
-1397159
-1397066
-1396880
-1397234
-1397630
-1397738
-1397945
-1397747
-1397944
-1398169
-1398325
-1398324
-1397806
-1398288
-1398389
-1398435
-1398557
-1398365
-1398554
-1398823
-1398893
-1398643
-1398376
-1398726
-1399026
-1399046
-1399296
-1398917
-1399006
-1399200
-1399405
-1399043
-1398821
-1399113
-1399519
-1399573
-1399543
-1399356
-1399440
-1399501
-1399707
-1399428
-1399208
-1399487
-1399749
-1399781
-1399800
-1399577
-1399801
-1399983
-1400055
-1400067
-1399551
-1399830
-1399888
-1400021
-1400139
-1399852
-1400085
-1399915
-1399992
-1399768
-1399572
-1399906
-1399926
-1400059
-1400134
-1399797
-1399947
-1399975
-1400160
-1400008
-1399753
-1399889
-1400123
-1400095
-1400385
-1400035
-1400287
-1400389
-1400374
-1400090
-1399976
-1400129
-1400434
-1400577
-1400874
-1400405
-1400714
-1400837
-1400821
-1400754
-1400336
-1400708
-1400999
-1401240
-1401586
-1401198
-1401294
-1401367
-1401395
-1401408
-1401225
-1401454
-1401699
-1401897
-1402039
-1401829
-1402094
-1402386
-1402164
-1401981
-1401884
-1402238
-1402336
-1402660
-1402712
-1402523
-1402750
-1402961
-1403074
-1402831
-1402606
-1402958
-1403200
-1403290
-1403395
-1403307
-1403511
-1403580
-1403845
-1403638
-1403532
-1403797
-1403992
-1404068
-1404076
-1403997
-1404005
-1404365
-1404523
-1404391
-1404234
-1404573
-1404888
-1405451
-1405393
-1404900
-1405063
-1405034
-1405213
-1405275
-1404996
-1405205
-1405443
-1405384
-1405400
-1405510
-1405706
-1405992
-1406130
-1406055
-1405937
-1406090
-1406371
-1406462
-1406549
-1406459
-1406696
-1406640
-1406823
-1406825
-1406436
-1406845
-1407169
-1407243
-1407372
-1407223
-1407489
-1407665
-1407767
-1407452
-1407344
-1407821
-1408114
-1408179
-1408300
-1408231
-1408538
-1408677
-1408632
-1408596
-1408345
-1408613
-1408875
-1409068
-1409299
-1409165
-1409272
-1409602
-1409699
-1409494
-1409283
-1409716
-1409827
-1410031
-1410200
-1410619
-1410367
-1410409
-1410315
-1410167
-1409980
-1410321
-1410431
-1410536
-1410781
-1410509
-1410750
-1411044
-1411128
-1411214
-1410803
-1411036
-1411329
-1411478
-1411474
-1411233
-1411539
-1411662
-1411822
-1411449
-1411509
-1411959
-1412022
-1412184
-1412333
-1412032
-1412386
-1412369
-1412486
-1412431
-1412277
-1412575
-1412843
-1413003
-1412942
-1412755
-1413139
-1413213
-1413226
-1413021
-1412901
-1413177
-1413442
-1413506
-1413465
-1413420
-1413845
-1414005
-1414055
-1414001
-1413651
-1413914
-1414302
-1414400
-1414283
-1414263
-1414542
-1414862
-1414765
-1414768
-1414433
-1415012
-1415227
-1415431
-1415528
-1415198
-1415523
-1415741
-1415684
-1416257
-1415599
-1415938
-1416020
-1415992
-1416294
-1415918
-1416230
-1416277
-1416344
-1416354
-1415961
-1416358
-1416631
-1416707
-1416682
-1416549
-1416768
-1416757
-1416763
-1416411
-1416068
-1416602
-1416736
-1416490
-1416286
-1416037
-1415990
-1415748
-1415422
-1414820
-1414266
-1414249
-1414189
-1413813
-1413325
-1412719
-1412555
-1412219
-1411839
-1410928
-1410466
-1410495
-1410186
-1409894
-1409212
-1408570
-1408398
-1408158
-1407833
-1407153
-1406492
-1406418
-1406265
-1405847
-1405652
-1405131
-1405144
-1404783
-1404462
-1404164
-1403741
-1403865
-1403738
-1403544
-1403382
-1402903
-1403039
-1402996
-1402772
-1402644
-1402197
-1402276
-1402453
-1402187
-1402137
-1401845
-1402114
-1402180
-1401968
-1401733
-1401455
-1401787
-1401969
-1401929
-1401858
-1401456
-1401774
-1401825
-1401911
-1401391
-1401056
-1401521
-1401499
-1401559
-1401668
-1401285
-1401470
-1401662
-1401668
-1401259
-1401140
-1401339
-1401466
-1401377
-1401411
-1401193
-1401236
-1401396
-1401491
-1401087
-1400758
-1400968
-1400880
-1401132
-1400951
-1400849
-1401156
-1401283
-1401267
-1401011
-1400791
-1401095
-1401244
-1401192
-1401166
-1400812
-1401101
-1401240
-1401276
-1400987
-1400717
-1400986
-1400753
-1401019
-1401173
-1401012
-1401411
-1401477
-1401617
-1401453
-1401105
-1401591
-1401402
-1401867
-1402004
-1401626
-1401969
-1402083
-1402065
-1401906
-1401918
-1402216
-1402557
-1402555
-1402629
-1402395
-1402558
-1402828
-1402835
-1402602
-1402579
-1403018
-1403226
-1403181
-1403241
-1403016
-1403259
-1403401
-1403449
-1403062
-1402934
-1403343
-1403598
-1403726
-1403854
-1403472
-1403832
-1403762
-1403956
-1403445
-1403429
-1403848
-1403865
-1403851
-1403967
-1403710
-1403977
-1404092
-1403916
-1404048
-1403756
-1404091
-1404127
-1404278
-1404271
-1403993
-1403982
-1404284
-1404335
-1404033
-1403878
-1404216
-1404336
-1404294
-1404284
-1404216
-1404471
-1404398
-1404592
-1404232
-1404115
-1404223
-1404360
-1404472
-1404476
-1404387
-1404756
-1404734
-1404615
-1404343
-1404280
-1404776
-1404734
-1404809
-1404663
-1404612
-1404713
-1404894
-1405104
-1404750
-1404684
-1404781
-1404971
-1405227
-1405440
-1404814
-1405241
-1405468
-1405596
-1405196
-1405151
-1405425
-1405977
-1405755
-1405501
-1405442
-1405936
-1406020
-1406029
-1405840
-1405690
-1405818
-1406111
-1405870
-1405986
-1405798
-1406130
-1406308
-1406361
-1406129
-1406107
-1406475
-1406740
-1406689
-1406805
-1406638
-1406691
-1406907
-1406948
-1406701
-1406620
-1406673
-1407070
-1407322
-1407417
-1407124
-1407306
-1407418
-1407599
-1407328
-1407135
-1407656
-1407784
-1407898
-1407893
-1407823
-1408072
-1408187
-1408267
-1408206
-1407883
-1408129
-1408361
-1408624
-1408449
-1408488
-1408628
-1408947
-1408980
-1408558
-1408414
-1408913
-1409210
-1409280
-1409342
-1409152
-1409271
-1409005
-1409375
-1409092
-1408993
-1409441
-1409635
-1409537
-1409798
-1409669
-1409759
-1409849
-1409922
-1409849
-1409751
-1410003
-1410200
-1410262
-1410222
-1410090
-1410513
-1410583
-1411548
-1410853
-1410505
-1410700
-1411020
-1411045
-1411069
-1410899
-1411218
-1411332
-1411538
-1411246
-1411232
-1411475
-1411788
-1411952
-1411834
-1411553
-1411930
-1412090
-1412143
-1411979
-1411925
-1412253
-1412410
-1412591
-1412698
-1412530
-1412644
-1412823
-1412864
-1412540
-1412454
-1412973
-1413160
-1413317
-1413129
-1412991
-1413279
-1413335
-1413433
-1413105
-1413065
-1413304
-1413679
-1413685
-1413647
-1413457
-1413915
-1414086
-1414107
-1413693
-1413596
-1414202
-1414442
-1414538
-1414477
-1414315
-1414477
-1414767
-1414858
-1414627
-1414574
-1414945
-1415140
-1415302
-1415258
-1415192
-1415467
-1415701
-1415861
-1415478
-1415279
-1415647
-1415865
-1416158
-1416272
-1415982
-1416272
-1416504
-1416656
-1416444
-1416372
-1416803
-1416847
-1416960
-1417017
-1416943
-1417282
-1417421
-1417530
-1417336
-1417182
-1417555
-1417718
-1417819
-1417895
-1417723
-1418159
-1418335
-1418431
-1418447
-1417938
-1418149
-1418652
-1418684
-1418589
-1418415
-1418869
-1418956
-1419154
-1418997
-1418737
-1419002
-1419086
-1419097
-1419110
-1418879
-1418872
-1418869
-1418930
-1418468
-1418021
-1418176
-1418035
-1417786
-1417641
-1416924
-1416816
-1416532
-1416000
-1415261
-1414589
-1414491
-1414341
-1413825
-1413284
-1412704
-1412420
-1412115
-1411899
-1411227
-1410606
-1410318
-1410234
-1409835
-1409665
-1408886
-1408589
-1408533
-1408298
-1407620
-1407288
-1407051
-1407144
-1406742
-1406466
-1406151
-1406065
-1406168
-1405885
-1405399
-1405201
-1405412
-1405276
-1405371
-1405069
-1404710
-1404654
-1404688
-1404495
-1404644
-1404579
-1404644
-1404190
-1403691
-1404027
-1404269
-1404368
-1404170
-1404126
-1404203
-1404381
-1404425
-1404018
-1403823
-1403966
-1404136
-1404205
-1403921
-1403737
-1403892
-1403887
-1403680
-1403477
-1403227
-1403561
-1403775
-1403794
-1403678
-1403501
-1403604
-1403610
-1403648
-1403165
-1402897
-1403230
-1403351
-1403337
-1403231
-1403067
-1403132
-1403433
-1403472
-1403027
-1402750
-1403000
-1403320
-1403273
-1403110
-1402924
-1403329
-1403343
-1403388
-1403146
-1402951
-1403427
-1403498
-1403750
-1403716
-1403433
-1403568
-1403823
-1403812
-1403627
-1403535
-1403993
-1404188
-1404209
-1404318
-1404138
-1404502
-1404579
-1404746
-1404351
-1404366
-1404728
-1405026
-1405179
-1404961
-1404780
-1404799
-1405075
-1405270
-1405033
-1404890
-1405282
-1405519
-1405622
-1405358
-1405342
-1405328
-1405670
-1405822
-1405399
-1405171
-1405477
-1405597
-1405596
-1405684
-1405423
-1405708
-1405818
-1405747
-1405621
-1405323
-1405664
-1405669
-1405606
-1406651
-1405626
-1405571
-1405666
-1405532
-1405227
-1405178
-1405581
-1405691
-1405851
-1405669
-1405356
-1405482
-1405716
-1405877
-1405602
-1405255
-1405445
-1405687
-1405739
-1405843
-1405566
-1405747
-1405929
-1406071
-1405988
-1405722
-1405922
-1406069
-1406163
-1406056
-1405940
-1406275
-1406505
-1406587
-1406351
-1406062
-1406326
-1406505
-1406642
-1406478
-1406475
-1406523
-1406927
-1407048
-1406659
-1406472
-1406943
-1407070
-1407309
-1407272
-1407032
-1407349
-1407471
-1407679
-1407453
-1407218
-1407618
-1407815
-1407846
-1407944
-1407748
-1407853
-1408160
-1408194
-1408166
-1407886
-1408249
-1408358
-1408318
-1408504
-1408434
-1408420
-1408659
-1408757
-1408471
-1408450
-1408905
-1409034
-1408996
-1408955
-1408769
-1409140
-1409165
-1409447
-1409121
-1408887
-1409458
-1409479
-1409707
-1409650
-1409536
-1409799
-1409990
-1410062
-1409933
-1409784
-1409914
-1410277
-1410308
-1410444
-1410128
-1410444
-1410580
-1410728
-1410534
-1410343
-1410720
-1410784
-1410969
-1411015
-1410751
-1410903
-1411244
-1411182
-1411122
-1410980
-1411393
-1411552
-1411542
-1411417
-1411393
-1411536
-1411270
-1411766
-1411515
-1411349
-1411755
-1411901
-1412113
-1412138
-1412021
-1412089
-1412226
-1412154
-1412050
-1411924
-1412293
-1412514
-1412568
-1412838
-1412438
-1412623
-1412889
-1412932
-1412711
-1412430
-1412720
-1413137
-1413245
-1413102
-1412933
-1413211
-1413423
-1413374
-1413164
-1412894
-1413380
-1413614
-1413741
-1413694
-1413587
-1413760
-1414043
-1413991
-1414223
-1413891
-1414219
-1414270
-1414424
-1414471
-1414105
-1414363
-1414547
-1414830
-1414589
-1414546
-1414762
-1414943
-1415108
-1415019
-1414955
-1415097
-1415364
-1415671
-1415101
-1415024
-1415345
-1415571
-1415792
-1415743
-1415492
-1415622
-1415926
-1416163
-1415855
-1415854
-1415802
-1416306
-1416377
-1416565
-1416426
-1416461
-1416669
-1416840
-1416587
-1416419
-1416794
-1416853
-1416929
-1416989
-1416909
-1417201
-1417283
-1417279
-1417105
-1416891
-1417306
-1417678
-1417834
-1417829
-1417601
-1417966
-1418152
-1418044
-1417837
-1417703
-1418349
-1418529
-1418535
-1418600
-1418358
-1418602
-1418717
-1418885
-1418893
-1418680
-1418873
-1419075
-1419380
-1419393
-1419218
-1419399
-1419675
-1419822
-1419493
-1419368
-1419778
-1420090
-1420275
-1420205
-1419834
-1420176
-1420557
-1420426
-1419775
-1420038
-1420532
-1420732
-1420855
-1420814
-1420843
-1420597
-1421105
-1421401
-1420944
-1420803
-1421428
-1421633
-1421769
-1421749
-1421564
-1421856
-1422179
-1422078
-1421877
-1421917
-1422198
-1422298
-1422312
-1422497
-1422429
-1422739
-1422436
-1422627
-1422566
-1422388
-1423288
-1423248
-1423339
-1423527
-1423360
-1423551
-1423598
-1423495
-1423039
-1422954
-1423221
-1423674
-1423721
-1423559
-1423280
-1423117
-1423140
-1422720
-1422161
-1421968
-1421964
-1421835
-1421283
-1420959
-1420423
-1420074
-1419719
-1419372
-1418139
-1417799
-1417519
-1417641
-1416972
-1416746
-1416013
-1415726
-1415445
-1414870
-1414130
-1413530
-1413413
-1413308
-1413022
-1412388
-1411968
-1411457
-1411466
-1411310
-1410650
-1410097
-1410175
-1410005
-1409642
-1409485
-1409160
-1409141
-1409111
-1408756
-1408413
-1407926
-1408171
-1408114
-1408139
-1408027
-1407645
-1407511
-1407701
-1407427
-1407123
-1406829
-1406950
-1407243
-1407353
-1407060
-1406739
-1406973
-1407125
-1407068
-1406552
-1406395
-1406585
-1406634
-1406583
-1406805
-1406516
-1406769
-1406441
-1406465
-1406231
-1405952
-1405995
-1406156
-1406240
-1406139
-1406001
-1406272
-1405985
-1405772
-1405606
-1405363
-1405780
-1405844
-1405781
-1405554
-1405309
-1405374
-1405482
-1405392
-1405090
-1404892
-1404926
-1405005
-1404992
-1405092
-1404905
-1404937
-1405004
-1404904
-1404544
-1404285
-1404707
-1404694
-1404732
-1404905
-1404603
-1404812
-1404881
-1404624
-1404460
-1404449
-1404707
-1404867
-1404919
-1405247
-1404889
-1404991
-1404988
-1405220
-1404804
-1404844
-1405463
-1405771
-1405695
-1405801
-1405528
-1405495
-1405664
-1405839
-1405568
-1405513
-1405805
-1406185
-1406029
-1405958
-1405874
-1406054
-1406268
-1406410
-1406166
-1406069
-1406224
-1406428
-1406662
-1406538
-1406505
-1406585
-1406603
-1406715
-1406309
-1406260
-1406654
-1406786
-1406622
-1406693
-1406483
-1406892
-1406941
-1406705
-1406313
-1406215
-1406519
-1406812
-1406754
-1406786
-1406438
-1406577
-1406749
-1406779
-1406379
-1405899
-1406339
-1406482
-1406476
-1406474
-1406400
-1406571
-1406738
-1406649
-1406306
-1406675
-1406562
-1406305
-1406644
-1406695
-1406839
-1406619
-1406242
-1406630
-1406764
-1406872
-1406728
-1406749
-1406883
-1407072
-1406934
-1406839
-1406489
-1406777
-1407025
-1407157
-1407187
-1407094
-1407415
-1407284
-1407439
-1407213
-1406949
-1407349
-1407550
-1407422
-1407781
-1407476
-1407492
-1407759
-1407824
-1407704
-1407239
-1407751
-1408014
-1408026
-1408318
-1408036
-1408313
-1408492
-1408359
-1407903
-1407729
-1408180
-1408720
-1408775
-1408745
-1408547
-1408914
-1408874
-1408995
-1408620
-1408103
-1408737
-1409082
-1409189
-1409373
-1409152
-1409168
-1409231
-1409569
-1409449
-1409367
-1409643
-1409925
-1409758
-1409796
-1409522
-1409956
-1410079
-1409988
-1409713
-1409622
-1409879
-1410115
-1410307
-1410546
-1410234
-1410491
-1410452
-1410401
-1410232
-1410267
-1410586
-1410732
-1410775
-1410739
-1410725
-1410967
-1411031
-1411103
-1411021
-1410827
-1411208
-1411315
-1411321
-1411667
-1411311
-1411350
-1411563
-1411626
-1411441
-1411260
-1411753
-1412079
-1412502
-1412600
-1412560
-1412673
-1412889
-1412810
-1412420
-1412277
-1412742
-1412912
-1413030
-1413171
-1413940
-1413512
-1413532
-1413380
-1413267
-1412990
-1413204
-1413590
-1413637
-1413658
-1413563
-1413812
-1413838
-1413574
-1413548
-1413350
-1413801
-1413981
-1414126
-1415306
-1414260
-1414442
-1414455
-1414489
-1414236
-1414017
-1414540
-1414709
-1414922
-1414893
-1414735
-1414967
-1415242
-1415313
-1414994
-1414664
-1415040
-1415356
-1415601
-1415766
-1415421
-1415854
-1415902
-1415897
-1415551
-1415330
-1415778
-1416202
-1416327
-1416464
-1416164
-1416231
-1416324
-1416492
-1416268
-1416004
-1416576
-1416914
-1417679
-1417257
-1416712
-1416770
-1416884
-1416901
-1416818
-1416758
-1417061
-1417486
-1417632
-1417368
-1417273
-1417570
-1417747
-1417154
-1417439
-1417247
-1417779
-1418052
-1418044
-1417955
-1417904
-1418227
-1418324
-1418331
-1418181
-1417567
-1418340
-1418557
-1418798
-1418730
-1418666
-1418990
-1419111
-1419188
-1418931
-1418970
-1419284
-1419579
-1419492
-1419350
-1419626
-1419807
-1419814
-1419673
-1419410
-1419898
-1420096
-1420234
-1420266
-1420004
-1420269
-1420350
-1420584
-1420396
-1420212
-1420512
-1420701
-1420876
-1421020
-1420741
-1420970
-1421169
-1421420
-1421167
-1420940
-1421557
-1421672
-1421745
-1421893
-1421600
-1421976
-1422132
-1422110
-1422008
-1421788
-1422348
-1422518
-1422417
-1422681
-1422534
-1422576
-1422686
-1422762
-1422807
-1422418
-1422855
-1423135
-1423106
-1423362
-1423155
-1423178
-1423451
-1423418
-1423379
-1423276
-1423609
-1423863
-1423906
-1424156
-1424067
-1424275
-1424425
-1424443
-1424336
-1424133
-1424421
-1424690
-1424902
-1425146
-1424835
-1425045
-1425235
-1425238
-1425171
-1424852
-1425074
-1426531
-1426160
-1425816
-1425544
-1425711
-1425566
-1425503
-1425350
-1424896
-1425097
-1425218
-1424822
-1424688
-1424070
-1423543
-1423479
-1423244
-1422689
-1421794
-1421718
-1421374
-1420910
-1420676
-1419886
-1419714
-1419260
-1418826
-1417902
-1417207
-1417269
-1416935
-1416534
-1415953
-1415473
-1415202
-1414820
-1415335
-1414162
-1413401
-1413276
-1412939
-1412781
-1412696
-1412072
-1411917
-1411718
-1411642
-1411081
-1410465
-1410786
-1410397
-1411217
-1410234
-1409874
-1409750
-1409950
-1409908
-1409523
-1408998
-1409262
-1409323
-1409196
-1409426
-1408846
-1409064
-1409031
-1408958
-1408777
-1408442
-1408624
-1408618
-1408720
-1408704
-1408500
-1409221
-1408816
-1408691
-1407872
-1407796
-1408216
-1408468
-1408351
-1408585
-1408086
-1408391
-1408270
-1408344
-1408032
-1407818
-1408016
-1408095
-1408192
-1408933
-1408148
-1408051
-1408054
-1408038
-1407926
-1407538
-1407707
-1407676
-1407614
-1407882
-1407443
-1407611
-1407441
-1407456
-1407114
-1406816
-1407206
-1407319
-1407283
-1407268
-1406978
-1407207
-1407154
-1407289
-1406948
-1406753
-1406976
-1407083
-1407252
-1407220
-1407078
-1407275
-1407359
-1407487
-1407219
-1406913
-1407468
-1407636
-1407715
-1407851
-1407665
-1407885
-1407975
-1408066
-1408054
-1407806
-1408195
-1408358
-1408596
-1408643
-1408313
-1408746
-1408851
-1408906
-1408805
-1408597
-1408824
-1408919
-1409123
-1409075
-1408922
-1409150
-1409134
-1409291
-1409049
-1408736
-1409166
-1409135
-1409182
-1409360
-1408935
-1409251
-1409384
-1409234
-1409015
-1408693
-1409119
-1409117
-1409241
-1409197
-1409011
-1409143
-1409165
-1409319
-1409113
-1408783
-1409074
-1409143
-1409218
-1409319
-1408889
-1408926
-1409102
-1408834
-1408874
-1408677
-1409154
-1409268
-1409104
-1409095
-1408823
-1409017
-1409203
-1409138
-1408890
-1408761
-1408928
-1408889
-1408950
-1408973
-1408878
-1409317
-1409333
-1409238
-1409131
-1408631
-1408938
-1409087
-1409288
-1409489
-1409131
-1409362
-1409383
-1409362
-1409294
-1409155
-1409594
-1409778
-1409860
-1409967
-1409673
-1409982
-1409997
-1409967
-1409811
-1409590
-1409911
-1410097
-1410245
-1410375
-1410246
-1410384
-1410634
-1410667
-1410571
-1410264
-1410635
-1410785
-1410763
-1411053
-1410699
-1411070
-1411189
-1411117
-1410990
-1410776
-1411197
-1411396
-1411567
-1411276
-1410779
-1411182
-1411560
-1411831
-1411555
-1411336
-1411782
-1412053
-1412189
-1412162
-1411935
-1412328
-1412333
-1412351
-1412168
-1412039
-1412312
-1412551
-1412730
-1412934
-1412558
-1412766
-1412951
-1413030
-1412840
-1412623
-1412906
-1413080
-1413307
-1413472
-1413028
-1413471
-1413469
-1413247
-1413261
-1412996
-1413511
-1413667
-1413720
-1413839
-1413601
-1413875
-1414094
-1414088
-1413916
-1413735
-1414163
-1414216
-1414494
-1414698
-1414339
-1414135
-1414401
-1414649
-1414668
-1414431
-1414734
-1414907
-1415152
-1415352
-1415027
-1415189
-1415294
-1415382
-1415207
-1414925
-1415459
-1415322
-1415754
-1415805
-1415703
-1415827
-1415838
-1415814
-1415871
-1415644
-1416148
-1416295
-1416375
-1416480
-1416188
-1416432
-1416711
-1416807
-1416517
-1416483
-1416901
-1417089
-1417109
-1417190
-1416877
-1417169
-1417367
-1417425
-1417195
-1416905
-1417284
-1417421
-1417776
-1417834
-1417654
-1418042
-1418008
-1418196
-1417906
-1418103
-1418176
-1418254
-1418469
-1418479
-1418236
-1418050
-1418351
-1418476
-1418290
-1418178
-1418734
-1418888
-1419081
-1419124
-1418835
-1419120
-1419464
-1419482
-1419190
-1418892
-1419455
-1419522
-1419785
-1419863
-1419659
-1420057
-1420210
-1420326
-1419694
-1419161
-1420128
-1419840
-1420493
-1420607
-1420464
-1420889
-1420753
-1420833
-1420483
-1420261
-1420748
-1421024
-1421232
-1421297
-1420764
-1420966
-1421208
-1421222
-1421106
-1420828
-1421388
-1421438
-1421744
-1421633
-1421479
-1421505
-1421737
-1421879
-1421722
-1421519
-1421955
-1422101
-1422451
-1422313
-1422045
-1422490
-1422509
-1422598
-1422373
-1422376
-1422719
-1422913
-1423241
-1423235
-1422853
-1423280
-1423491
-1423410
-1423234
-1423173
-1423665
-1424764
-1424186
-1423955
-1423716
-1423895
-1424108
-1424139
-1423871
-1423742
-1424209
-1424343
-1424576
-1424773
-1424389
-1424241
-1424743
-1424806
-1424533
-1424613
-1424745
-1425114
-1425346
-1425411
-1425210
-1425538
-1425510
-1425566
-1425568
-1425338
-1425818
-1425915
-1426444
-1426281
-1425854
-1426289
-1426343
-1426443
-1426268
-1426143
-1426412
-1426732
-1426873
-1426685
-1426306
-1426653
-1426597
-1426440
-1426173
-1425833
-1426107
-1426041
-1425858
-1425585
-1425070
-1424895
-1424674
-1424130
-1423649
-1423059
-1423015
-1422543
-1422198
-1421619
-1421020
-1420757
-1420358
-1419813
-1419118
-1418554
-1418432
-1418196
-1417806
-1417086
-1416568
-1416251
-1415959
-1415534
-1414760
-1414143
-1414174
-1413961
-1413980
-1413393
-1412921
-1412417
-1412246
-1412238
-1411871
-1411381
-1411627
-1411517
-1411393
-1411273
-1410781
-1410870
-1410847
-1410603
-1410304
-1410032
-1410266
-1410177
-1410256
-1410007
-1409750
-1409928
-1409826
-1409744
-1409392
-1409270
-1409589
-1409448
-1409576
-1408977
-1408865
-1409152
-1409290
-1409214
-1408677
-1408659
-1408840
-1408801
-1409034
-1408907
-1408512
-1408760
-1408828
-1408717
-1408341
-1408024
-1408613
-1408741
-1408147
-1408277
-1408111
-1407647
-1407523
-1408063
-1408145
-1408163
-1407721
-1407400
-1407566
-1407615
-1407683
-1407521
-1407256
-1407721
-1407717
-1407647
-1407383
-1407102
-1407391
-1407696
-1407602
-1407244
-1407217
-1407498
-1407247
-1407538
-1407442
-1407217
-1407341
-1407572
-1407607
-1407304
-1407206
-1407480
-1407503
-1407903
-1407867
-1407515
-1407778
-1408061
-1408147
-1407771
-1407830
-1408006
-1408317
-1409240
-1408621
-1408331
-1408462
-1408711
-1408578
-1408226
-1408263
-1408698
-1408850
-1409189
-1408870
-1408734
-1408426
-1408852
-1409059
-1408615
-1408496
-1409007
-1409230
-1409359
-1409146
-1408752
-1408993
-1409244
-1409097
-1408652
-1408577
-1408956
-1409149
-1409159
-1408974
-1408754
-1408831
-1408915
-1408911
-1408473
-1408367
-1408761
-1408881
-1409017
-1408860
-1408659
-1408831
-1408803
-1408776
-1408456
-1408404
-1408765
-1408753
-1408964
-1408564
-1408532
-1408694
-1408801
-1408647
-1408476
-1408449
-1408613
-1408717
-1409094
-1408779
-1408601
-1408852
-1408876
-1408950
-1408624
-1408580
-1408828
-1409072
-1409232
-1408982
-1408722
-1408953
-1409000
-1408898
-1408437
-1408394
-1408943
-1409028
-1409250
-1408914
-1408786
-1408976
-1409019
-1409258
-1408992
-1408976
-1409186
-1409296
-1409495
-1409330
-1409120
-1409445
-1409575
-1409764
-1409235
-1409274
-1409614
-1409861
-1410193
-1409843
-1409693
-1409979
-1410177
-1410139
-1409879
-1409846
-1410134
-1410259
-1410578
-1410333
-1410216
-1410666
-1410628
-1410634
-1410474
-1410434
-1410827
-1411079
-1411164
-1410886
-1410920
-1411074
-1411292
-1411363
-1411099
-1411030
-1411436
-1411515
-1411654
-1411363
-1411372
-1411723
-1411862
-1411779
-1411439
-1411633
-1411952
-1411981
-1412251
-1412196
-1412077
-1412426
-1412629
-1412548
-1412289
-1412431
-1412588
-1412627
-1412779
-1412600
-1412613
-1412962
-1413114
-1413117
-1412923
-1412723
-1412945
-1413087
-1413216
-1413050
-1413260
-1413503
-1413719
-1413182
-1413071
-1413125
-1413353
-1413663
-1413879
-1413608
-1413596
-1413914
-1413863
-1413971
-1413714
-1413635
-1413948
-1414194
-1414400
-1414301
-1414027
-1414226
-1414320
-1414375
-1414034
-1414469
-1414536
-1414715
-1414697
-1414681
-1414888
-1414864
-1414845
-1414569
-1414646
-1414935
-1415059
-1415492
-1415302
-1415093
-1415332
-1415595
-1415630
-1415304
-1415191
-1415490
-1415754
-1415955
-1415660
-1415704
-1416023
-1415941
-1415973
-1415713
-1415788
-1416192
-1416384
-1416814
-1416634
-1416707
-1416990
-1417029
-1416720
-1416279
-1416641
-1417279
-1417350
-1417656
-1417180
-1417116
-1417478
-1417777
-1417718
-1418323
-1417800
-1418022
-1418127
-1418267
-1418037
-1418128
-1418441
-1418502
-1418914
-1418378
-1418392
-1418696
-1419794
-1419290
-1418946
-1418752
-1419134
-1419124
-1418965
-1419092
-1419432
-1419638
-1419680
-1419485
-1419416
-1419649
-1419882
-1419751
-1419563
-1419523
-1419840
-1420021
-1420204
-1419891
-1419862
-1420326
-1420372
-1420363
-1420916
-1420525
-1420518
-1420813
-1421096
-1420758
-1420831
-1421034
-1421333
-1421228
-1421112
-1421141
-1421515
-1421549
-1421846
-1421418
-1421606
-1421823
-1421870
-1421835
-1421582
-1421662
-1422155
-1422147
-1422410
-1422181
-1422304
-1422477
-1422496
-1422388
-1422284
-1422383
-1422825
-1422838
-1422932
-1422803
-1423009
-1423177
-1423327
-1423558
-1423142
-1423465
-1423793
-1423876
-1424161
-1423845
-1423928
-1424114
-1424285
-1424403
-1424012
-1424141
-1424531
-1424756
-1424833
-1424745
-1424877
-1425043
-1425097
-1425071
-1424878
-1424635
-1425138
-1425430
-1425719
-1425658
-1425735
-1426018
-1425814
-1425768
-1425427
-1425491
-1425989
-1426011
-1426038
-1425890
-1426025
-1426032
-1425700
-1425461
-1425237
-1425452
-1425394
-1425169
-1424885
-1424396
-1423869
-1423775
-1423521
-1423372
-1422374
-1422026
-1421311
-1421222
-1420855
-1420141
-1419726
-1419371
-1418770
-1418372
-1417503
-1417175
-1416825
-1416462
-1416142
-1415286
-1414780
-1414779
-1414388
-1413665
-1412843
-1412707
-1412652
-1412345
-1412375
-1411700
-1411453
-1411156
-1410846
-1410631
-1409931
-1409832
-1409948
-1409888
-1409759
-1409235
-1409081
-1408831
-1408974
-1408608
-1408300
-1408304
-1408397
-1408369
-1408139
-1407977
-1408152
-1407958
-1407917
-1407904
-1407302
-1407434
-1407499
-1407490
-1407798
-1407405
-1407260
-1407326
-1407353
-1407039
-1406696
-1406817
-1406946
-1407193
-1407396
-1407035
-1406906
-1407169
-1407129
-1406686
-1406398
-1406593
-1406660
-1406649
-1406430
-1406289
-1406236
-1406470
-1406363
-1406215
-1405796
-1405884
-1406156
-1406121
-1406111
-1405697
-1405793
-1405960
-1405879
-1405501
-1405294
-1405345
-1405546
-1405489
-1405615
-1405802
-1405293
-1405132
-1405287
-1405820
-1404905
-1404966
-1405087
-1405107
-1405243
-1404971
-1404986
-1405073
-1405163
-1405005
-1404785
-1405119
-1405209
-1405442
-1405858
-1405557
-1405718
-1405906
-1405843
-1406967
-1405838
-1405979
-1406247
-1406276
-1406212
-1406072
-1406255
-1406355
-1406946
-1406520
-1406001
-1406297
-1406430
-1406500
-1406486
-1406304
-1406321
-1406583
-1406752
-1406548
-1406162
-1406437
-1406498
-1406586
-1406499
-1406406
-1406397
-1406544
-1406663
-1406446
-1406067
-1406278
-1406219
-1406373
-1406399
-1406098
-1406343
-1406333
-1406274
-1406097
-1405748
-1405704
-1405976
-1406015
-1406057
-1405913
-1405937
-1406115
-1406131
-1405827
-1405739
-1405975
-1406178
-1406093
-1406001
-1405736
-1405802
-1405773
-1406040
-1405866
-1406315
-1405921
-1405905
-1405862
-1406069
-1405681
-1405908
-1406008
-1406086
-1405850
-1405663
-1405919
-1406028
-1405924
-1406036
-1405884
-1406315
-1406438
-1406396
-1406242
-1405713
-1406075
-1406116
-1406091
-1406288
-1406148
-1406352
-1406349
-1406343
-1406211
-1405997
-1406452
-1406640
-1406576
-1406753
-1406338
-1406496
-1406630
-1406660
-1406583
-1406385
-1406705
-1406751
-1406868
-1407098
-1406861
-1407084
-1407062
-1407088
-1406774
-1406795
-1407275
-1407358
-1407383
-1407308
-1407256
-1407618
-1407743
-1407850
-1407426
-1407369
-1407602
-1407838
-1407920
-1407755
-1407512
-1407903
-1407966
-1408157
-1407712
-1407577
-1408016
-1408333
-1408467
-1408385
-1408266
-1408608
-1408626
-1408812
-1408641
-1408375
-1408906
-1408868
-1408768
-1408881
-1408659
-1409040
-1409099
-1409210
-1409082
-1408748
-1409270
-1409419
-1409524
-1409576
-1409348
-1409465
-1409705
-1409692
-1409423
-1409183
-1409438
-1409735
-1409857
-1409827
-1409648
-1409858
-1410058
-1410020
-1409812
-1409580
-1410134
-1410301
-1410219
-1410153
-1410111
-1410397
-1410631
-1410602
-1410281
-1409999
-1410537
-1410616
-1410854
-1410650
-1410523
-1410907
-1410957
-1410986
-1411014
-1410809
-1411013
-1411231
-1411402
-1411447
-1411062
-1411181
-1411346
-1411519
-1411281
-1411077
-1411435
-1411744
-1411776
-1411695
-1411458
-1411940
-1411802
-1412019
-1411904
-1411650
-1412001
-1412121
-1412211
-1412266
-1412025
-1412463
-1412490
-1412541
-1412131
-1412189
-1412426
-1412721
-1412640
-1412577
-1412447
-1412929
-1413091
-1412920
-1412770
-1412779
-1412962
-1413328
-1413440
-1413498
-1413298
-1413515
-1413687
-1413757
-1413264
-1413154
-1413444
-1413867
-1413891
-1414045
-1413890
-1414096
-1414286
-1414323
-1414179
-1413918
-1414395
-1414470
-1414567
-1414651
-1414331
-1414561
-1414830
-1415031
-1414704
-1414518
-1415032
-1415034
-1415185
-1415251
-1414986
-1415118
-1415429
-1415531
-1415174
-1415101
-1415522
-1415655
-1415843
-1415639
-1415515
-1415659
-1415848
-1416046
-1415663
-1415549
-1416076
-1416350
-1416175
-1416229
-1416019
-1416255
-1416456
-1416461
-1416116
-1416122
-1416447
-1416875
-1417093
-1416801
-1416729
-1417032
-1417246
-1416945
-1416994
-1416845
-1417277
-1417605
-1417659
-1417791
-1417527
-1417812
-1418024
-1418090
-1417886
-1417798
-1418177
-1418384
-1418490
-1418565
-1418495
-1418830
-1418849
-1418951
-1418514
-1418512
-1419093
-1419249
-1419342
-1418997
-1418765
-1418926
-1419051
-1419055
-1418539
-1418264
-1418271
-1418437
-1418104
-1417761
-1417229
-1417402
-1417249
-1416876
-1416259
-1415553
-1415386
-1415049
-1414640
-1414171
-1413579
-1413539
-1413070
-1412649
-1411820
-1411144
-1410881
-1410665
-1410245
-1409669
-1409172
-1408985
-1408519
-1408092
-1407461
-1407043
-1406831
-1406641
-1406371
-1405859
-1405310
-1405370
-1405166
-1404859
-1404290
-1403984
-1403943
-1403856
-1403685
-1403677
-1403192
-1403023
-1402974
-1402853
-1402153
-1401958
-1402222
-1402458
-1402467
-1402334
-1401920
-1401974
-1402088
-1401859
-1401530
-1401185
-1401374
-1401480
-1401395
-1401402
-1401079
-1401162
-1401200
-1401311
-1401008
-1400513
-1400897
-1400880
-1401018
-1400889
-1400559
-1400748
-1400636
-1400551
-1400207
-1399910
-1400207
-1400227
-1400160
-1400315
-1399870
-1399965
-1399973
-1400007
-1399684
-1399517
-1399603
-1399493
-1399308
-1399408
-1399172
-1399387
-1399290
-1399206
-1398722
-1398597
-1398870
-1398587
-1398619
-1398632
-1398892
-1398712
-1398278
-1398727
-1398659
-1398654
-1398631
-1398448
-1398507
-1398773
-1398711
-1398535
-1398425
-1398681
-1398583
-1398818
-1398558
-1398637
-1398996
-1399102
-1399212
-1398997
-1398934
-1399122
-1399344
-1399686
-1399613
-1399344
-1399768
-1399819
-1399827
-1399488
-1399290
-1399702
-1399775
-1399964
-1400001
-1399599
-1399688
-1399834
-1399809
-1399608
-1399507
-1399795
-1399928
-1399885
-1399770
-1399485
-1399513
-1399836
-1400908
-1399898
-1399225
-1399522
-1399479
-1399474
-1399329
-1399199
-1399225
-1399354
-1399323
-1398867
-1398569
-1398759
-1398976
-1398870
-1398877
-1398516
-1398753
-1398856
-1398699
-1398370
-1398170
-1398284
-1398411
-1398520
-1398542
-1398627
-1398988
-1399253
-1399211
-1398912
-1398718
-1398880
-1398862
-1398572
-1398724
-1398502
-1398804
-1398937
-1398870
-1398590
-1398449
-1398742
-1398846
-1398932
-1398875
-1398603
-1398862
-1398918
-1399052
-1398911
-1398717
-1398935
-1399087
-1399164
-1399139
-1399009
-1399112
-1399307
-1399348
-1399360
-1398978
-1399264
-1399510
-1399658
-1399546
-1399483
-1399544
-1399731
-1399644
-1399581
-1399315
-1399701
-1399922
-1399753
-1399989
-1399879
-1400023
-1400255
-1400161
-1399953
-1399844
-1400245
-1400481
-1400450
-1400585
-1400291
-1400542
-1400626
-1400795
-1401187
-1400544
-1400684
-1400887
-1400868
-1400595
-1400742
-1401118
-1401156
-1401199
-1400978
-1400887
-1401397
-1401773
-1401741
-1401671
-1401380
-1401394
-1401739
-1401752
-1401503
-1401555
-1401764
-1402114
-1401906
-1401925
-1401754
-1402785
-1402504
-1402284
-1402180
-1401624
-1402120
-1402317
-1402110
-1402287
-1402188
-1402531
-1402617
-1402822
-1402319
-1402134
-1402575
-1402740
-1402664
-1402669
-1402517
-1402726
-1402929
-1402908
-1402554
-1402581
-1402905
-1403006
-1403244
-1403126
-1402941
-1403077
-1403110
-1403132
-1403071
-1402782
-1403227
-1403252
-1403197
-1403198
-1402934
-1403295
-1403451
-1403370
-1403118
-1402851
-1403224
-1403233
-1403347
-1403225
-1403043
-1403180
-1403523
-1403260
-1403022
-1402991
-1403070
-1403381
-1403383
-1403411
-1403158
-1403601
-1403707
-1403481
-1403346
-1403178
-1403465
-1403602
-1403464
-1403725
-1403599
-1403941
-1403940
-1403776
-1403515
-1403511
-1403863
-1403893
-1404099
-1404067
-1403701
-1403705
-1404017
-1403680
-1403732
-1403549
-1403849
-1403976
-1403994
-1404040
-1403955
-1404125
-1404177
-1404178
-1403961
-1403725
-1404158
-1404417
-1404486
-1404494
-1404232
-1404399
-1404551
-1404564
-1404372
-1404171
-1404591
-1404813
-1404897
-1404752
-1404642
-1404772
-1405108
-1405301
-1405018
-1404648
-1405127
-1405024
-1405194
-1405459
-1405275
-1405499
-1405448
-1405549
-1405190
-1405041
-1405506
-1405713
-1405544
-1405879
-1405667
-1405867
-1406082
-1406024
-1405683
-1405569
-1405976
-1406128
-1406059
-1406405
-1406006
-1406423
-1406531
-1406613
-1406403
-1406141
-1406382
-1406624
-1406929
-1406824
-1406706
-1406846
-1407099
-1407172
-1406892
-1406801
-1407020
-1407193
-1407309
-1407422
-1407275
-1407370
-1407584
-1407797
-1407765
-1407386
-1407758
-1408016
-1408075
-1408180
-1407782
-1408097
-1408313
-1408318
-1407802
-1407530
-1407908
-1407921
-1407820
-1407884
-1407510
-1407585
-1407410
-1407285
-1406757
-1406149
-1406304
-1406047
-1405684
-1405473
-1404679
-1404395
-1404047
-1403619
-1402930
-1402181
-1401960
-1401553
-1401287
-1400577
-1400010
-1399647
-1399168
-1398682
-1397853
-1397270
-1397232
-1397074
-1396700
-1396249
-1395539
-1395339
-1395020
-1394745
-1394097
-1393351
-1393354
-1393209
-1392993
-1392753
-1392338
-1392309
-1392001
-1391646
-1391139
-1390720
-1390984
-1390839
-1390668
-1390587
-1390195
-1390197
-1390090
-1390152
-1389531
-1389282
-1389533
-1389446
-1389468
-1388740
-1388871
-1389014
-1389036
-1388926
-1388712
-1388310
-1388491
-1388625
-1388507
-1388362
-1387964
-1388074
-1388174
-1387788
-1387763
-1387410
-1387665
-1387730
-1387678
-1387656
-1387132
-1387188
-1387032
-1387005
-1386934
-1386401
-1386621
-1386727
-1386549
-1386167
-1385777
-1385878
-1385907
-1385906
-1385733
-1385306
-1385552
-1385407
-1385265
-1385112
-1384862
-1385172
-1385058
-1385012
-1384951
-1384293
-1384406
-1384417
-1384394
-1384533
-1384205
-1384271
-1384405
-1384337
-1383975
-1383746
-1384168
-1384288
-1384212
-1384435
-1384014
-1384202
-1384237
-1384121
-1383849
-1383898
-1384310
-1384275
-1384337
-1384482
-1384333
-1384466
-1384568
-1384497
-1384273
-1383969
-1384331
-1384489
-1384755
-1384865
-1384605
-1384598
-1384771
-1384803
-1384618
-1384080
-1384661
-1384604
-1384546
-1384758
-1384421
-1384579
-1384660
-1384452
-1384350
-1383980
-1384267
-1384371
-1384255
-1384209
-1383828
-1383962
-1383940
-1383811
-1383819
-1383362
-1383538
-1383572
-1383637
-1383569
-1383114
-1383236
-1383376
-1383320
-1382984
-1382910
-1383035
-1382644
-1382679
-1382668
-1382694
-1382384
-1382171
-1382277
-1382305
-1382405
-1382558
-1382173
-1382346
-1382297
-1382220
-1382052
-1381784
-1382028
-1382079
-1382196
-1382306
-1381896
-1382115
-1382229
-1382065
-1382063
-1381618
-1382063
-1382109
-1382150
-1382222
-1381906
-1382104
-1382169
-1382233
-1382114
-1381858
-1382012
-1382175
-1382281
-1382399
-1381935
-1382152
-1382168
-1382240
-1382169
-1381801
-1382047
-1382263
-1382258
-1382576
-1382102
-1382221
-1382387
-1382567
-1382276
-1382011
-1382307
-1382545
-1382510
-1382711
-1382262
-1382566
-1382529
-1382648
-1382396
-1382018
-1382617
-1382739
-1382773
-1382766
-1382536
-1382803
-1382800
-1382707
-1382527
-1382328
-1382779
-1382933
-1382841
-1382935
-1382627
-1382768
-1382923
-1383041
-1382753
-1382461
-1382858
-1383095
-1382984
-1383183
-1382797
-1383052
-1383098
-1383109
-1383214
-1382869
-1383160
-1383331
-1383276
-1383329
-1383098
-1383286
-1383543
-1383581
-1383325
-1383021
-1383291
-1383325
-1383446
-1383729
-1383327
-1383377
-1383524
-1383520
-1383441
-1383162
-1383531
-1383778
-1383809
-1383868
-1383589
-1383749
-1383990
-1383605
-1383649
-1383537
-1383907
-1384234
-1384298
-1384369
-1384097
-1384472
-1384441
-1384506
-1384349
-1384125
-1384480
-1384759
-1384894
-1385027
-1384745
-1384942
-1385122
-1385126
-1384971
-1384748
-1385074
-1385460
-1385271
-1385465
-1385254
-1385440
-1385594
-1385646
-1385599
-1385401
-1385730
-1385777
-1385789
-1385941
-1385754
-1385913
-1386216
-1386149
-1385879
-1385859
-1386346
-1386683
-1386638
-1386732
-1386454
-1386586
-1386712
-1386636
-1386647
-1386485
-1387078
-1387190
-1387276
-1387298
-1386846
-1387182
-1387364
-1387426
-1387407
-1387243
-1387574
-1387734
-1387771
-1387841
-1387523
-1387670
-1387886
-1387959
-1388104
-1388305
-1388343
-1388022
-1388008
-1388342
-1388496
-1388593
-1388739
-1388399
-1388768
-1388727
-1388939
-1388808
-1388576
-1389001
-1388752
-1389027
-1389190
-1388979
-1389178
-1389252
-1389285
-1389189
-1389019
-1390650
-1389899
-1389679
-1389813
-1389485
-1389634
-1389826
-1389863
-1389779
-1389421
-1389772
-1390094
-1390260
-1390193
-1389996
-1390197
-1390384
-1390265
-1390175
-1390064
-1390460
-1390551
-1390611
-1390741
-1390390
-1390645
-1391010
-1391035
-1390920
-1390723
-1391018
-1391305
-1391266
-1391432
-1391122
-1391454
-1391577
-1391505
-1392356
-1391488
-1391623
-1391834
-1391979
-1391924
-1391657
-1391971
-1392018
-1392009
-1391786
-1391762
-1392016
-1392218
-1392294
-1392267
-1392036
-1392190
-1392140
-1392148
-1391893
-1391391
-1391743
-1391528
-1391174
-1390538
-1390572
-1390193
-1389775
-1389344
-1388517
-1388561
-1388244
-1387876
-1387300
-1386346
-1386124
-1385673
-1385184
-1384386
-1383815
-1383589
-1383146
-1382801
-1382261
-1381415
-1381128
-1380797
-1380105
-1379444
-1378794
-1378542
-1378267
-1377890
-1377629
-1376852
-1376805
-1376407
-1376035
-1375553
-1374913
-1374879
-1374674
-1374516
-1374217
-1373520
-1373503
-1373396
-1373093
-1372676
-1372099
-1371916
-1372179
-1372038
-1372021
-1371343
-1371376
-1371439
-1371161
-1370815
-1370575
-1370745
-1370602
-1370548
-1370357
-1369915
-1370056
-1369873
-1369760
-1369443
-1369143
-1369279
-1369029
-1369020
-1370091
-1368823
-1368747
-1368475
-1368250
