PPG
-1037951
-1037653
-1036890
-1036173
-1035501
-1034650
-1033775
-1032774
-1031633
-1030769
-1029784
-1028698
-1027496
-1026436
-1025485
-1024389
-1023297
-1022284
-1021129
-1020173
-1019292
-1018410
-1017545
-1016437
-1015581
-1014816
-1014031
-1013351
-1012478
-1011929
-1011414
-1010879
-1010210
-1009739
-1010066
-1009275
-1008799
-1008302
-1008200
-1008171
-1008074
-1008011
-1008020
-1008208
-1008194
-1008204
-1008276
-1008389
-1008347
-1008574
-1008994
-1009199
-1009355
-1009551
-1009913
-1010148
-1010357
-1010737
-1010938
-1011383
-1011639
-1012003
-1012203
-1012205
-1012754
-1013206
-1013370
-1013564
-1013794
-1014131
-1014561
-1014958
-1014879
-1015114
-1015680
-1015944
-1016073
-1016402
-1016538
-1016704
-1016926
-1017189
-1017148
-1016919
-1017371
-1017353
-1018456
-1017680
-1017459
-1017515
-1017455
-1017425
-1017383
-1017220
-1017125
-1016983
-1016936
-1016849
-1016883
-1016864
-1016859
-1016607
-1016466
-1017262
-1016587
-1016346
-1016300
-1016160
-1016129
-1016121
-1016140
-1015992
-1015776
-1015698
-1015590
-1015566
-1015342
-1015150
-1015041
-1015026
-1015025
-1014834
-1014499
-1014519
-1014409
-1014250
-1014054
-1013838
-1013911
-1013776
-1013666
-1013476
-1013191
-1013236
-1013128
-1012905
-1012801
-1012649
-1012517
-1012493
-1012428
-1012296
-1011943
-1011986
-1011900
-1011794
-1011688
-1011542
-1011649
-1011664
-1011525
-1011521
-1011383
-1011402
-1011530
-1011516
-1011424
-1011140
-1011875
-1011752
-1011605
-1011709
-1011577
-1011688
-1011693
-1011753
-1011764
-1011904
-1012159
-1012377
-1012344
-1012459
-1012443
-1012788
-1012937
-1013098
-1013219
-1013282
-1013614
-1013875
-1014087
-1014096
-1014389
-1014684
-1014759
-1015160
-1015339
-1015452
-1015865
-1016067
-1016333
-1016617
-1016762
-1017068
-1017289
-1017473
-1017613
-1017542
-1017900
-1018249
-1018586
-1018607
-1018710
-1019095
-1019128
-1019321
-1019473
-1019577
-1020017
-1020073
-1020289
-1020223
-1020225
-1020498
-1020574
-1020821
-1020871
-1020901
-1021131
-1021289
-1021501
-1021514
-1021606
-1021728
-1021951
-1022135
-1022198
-1022273
-1022504
-1022576
-1022722
-1022751
-1022749
-1022885
-1023153
-1023317
-1023245
-1023348
-1023450
-1024382
-1023932
-1024023
-1023862
-1024114
-1024097
-1024132
-1024275
-1024462
-1024607
-1024759
-1024863
-1024921
-1024980
-1025346
-1025358
-1025545
-1025649
-1025676
-1025996
-1026351
-1026435
-1026555
-1026727
-1026923
-1027169
-1027040
-1027476
-1027593
-1027818
-1028047
-1028228
-1028344
-1028411
-1028626
-1028905
-1029098
-1029188
-1029312
-1029735
-1029978
-1030083
-1030154
-1030308
-1030560
-1030684
-1030806
-1030912
-1030953
-1031118
-1031228
-1031502
-1031522
-1031438
-1031677
-1031623
-1031782
-1031856
-1031907
-1032037
-1032222
-1032341
-1032334
-1032471
-1032720
-1032532
-1032827
-1033066
-1033073
-1033290
-1033593
-1033647
-1033644
-1033719
-1033778
-1033859
-1033998
-1034078
-1034153
-1034264
-1034543
-1034789
-1034786
-1034817
-1035117
-1035184
-1035307
-1035447
-1035568
-1035787
-1036017
-1036124
-1036386
-1036300
-1036685
-1036787
-1037012
-1037115
-1037277
-1037414
-1037587
-1037863
-1037983
-1037950
-1038118
-1038465
-1038530
-1038539
-1038760
-1039004
-1039239
-1039432
-1039612
-1039684
-1039833
-1040095
-1040233
-1040323
-1040469
-1040607
-1040893
-1041091
-1040806
-1041030
-1041200
-1041324
-1041453
-1041533
-1041713
-1041757
-1041904
-1042051
-1042370
-1042391
-1042499
-1042571
-1042729
-1042864
-1043044
-1043094
-1043244
-1043503
-1043669
-1043627
-1043786
-1044069
-1044179
-1044074
-1045167
-1044830
-1044987
-1045521
-1045326
-1045132
-1045569
-1045646
-1045795
-1045946
-1046031
-1046291
-1046540
-1046824
-1047029
-1047165
-1047462
-1047545
-1047716
-1047788
-1048039
-1048302
-1048479
-1048724
-1048818
-1049006
-1049807
-1049682
-1049744
-1049754
-1050158
-1050527
-1050661
-1050970
-1051087
-1051269
-1051650
-1051933
-1052120
-1052230
-1052461
-1052778
-1053103
-1053424
-1053394
-1053802
-1054077
-1054213
-1054180
-1054310
-1054602
-1054829
-1054907
-1055021
-1054846
-1054894
-1054929
-1054685
-1054349
-1053854
-1053455
-1052892
-1052274
-1051406
-1050226
-1049296
-1048086
-1046929
-1046422
-1044621
-1043325
-1042199
-1040986
-1039720
-1038438
-1037104
-1036014
-1034938
-1033740
-1032446
-1031031
-1030291
-1029367
-1028400
-1027326
-1026413
-1025633
-1024900
-1024229
-1023323
-1022663
-1022155
-1021677
-1021162
-1020651
-1020371
-1020050
-1019768
-1019694
-1019340
-1019197
-1019279
-1019232
-1019265
-1019152
-1019375
-1019549
-1019621
-1019823
-1020039
-1020203
-1020451
-1020705
-1020949
-1021175
-1021423
-1021900
-1022199
-1022456
-1022815
-1023097
-1023492
-1023819
-1024289
-1024464
-1024740
-1025064
-1025431
-1025826
-1025954
-1026260
-1026703
-1026995
-1027316
-1027491
-1027649
-1027942
-1028147
-1028409
-1028474
-1028640
-1028827
-1028894
-1029166
-1028998
-1029086
-1029202
-1029315
-1029279
-1029288
-1029102
-1029221
-1029267
-1029237
-1028914
-1029865
-1029727
-1028905
-1029307
-1028502
-1028312
-1028395
-1028167
-1028159
-1027972
-1027754
-1027812
-1027759
-1027670
-1027488
-1027522
-1027445
-1027358
-1027521
-1027201
-1027090
-1027140
-1027142
-1026774
-1026638
-1026265
-1025977
-1025860
-1025815
-1025537
-1025819
-1026204
-1026371
-1026383
-1026238
-1026111
-1025988
-1025724
-1025565
-1025554
-1025597
-1025539
-1025268
-1025205
-1025190
-1025209
-1025186
-1025218
-1025235
-1025209
-1025343
-1025296
-1025305
-1025360
-1025409
-1025499
-1025604
-1025634
-1025665
-1025696
-1025814
-1025880
-1025971
-1026017
-1026227
-1026255
-1026368
-1026413
-1026504
-1026754
-1026969
-1027143
-1027166
-1027372
-1027613
-1027846
-1028115
-1028254
-1028334
-1028639
-1028838
-1029132
-1029205
-1029438
-1029650
-1029896
-1030151
-1030242
-1030359
-1030544
-1030850
-1031055
-1031014
-1031333
-1031442
-1031613
-1031947
-1032982
-1032420
-1032516
-1032676
-1032850
-1032897
-1033118
-1033366
-1033516
-1033729
-1033826
-1033990
-1034260
-1034398
-1034705
-1034646
-1034852
-1035194
-1035339
-1035442
-1035464
-1035619
-1036011
-1036047
-1036288
-1036247
-1036449
-1036678
-1036809
-1036905
-1036872
-1036720
-1036956
-1037200
-1037411
-1037369
-1037427
-1037607
-1037790
-1037795
-1037888
-1037847
-1038179
-1038228
-1038076
-1038312
-1038447
-1038653
-1038830
-1039046
-1039061
-1039064
-1039279
-1039404
-1039396
-1039507
-1039418
-1039654
-1039800
-1039906
-1039862
-1039879
-1040074
-1040244
-1040444
-1040358
-1040581
-1040717
-1040807
-1040706
-1040831
-1040950
-1041091
-1041140
-1041283
-1041108
-1041438
-1041507
-1041690
-1041693
-1041667
-1042083
-1042493
-1042751
-1042821
-1042924
-1043341
-1043518
-1043667
-1043700
-1043289
-1043587
-1043784
-1044810
-1044112
-1044060
-1044028
-1044137
-1044196
-1044236
-1044214
-1044485
-1044687
-1044668
-1044675
-1044720
-1044843
-1044954
-1044956
-1045071
-1045134
-1045250
-1045327
-1045519
-1045495
-1045360
-1045545
-1045620
-1045642
-1045676
-1045719
-1045737
-1045875
-1045923
-1045980
-1045823
-1046064
-1046175
-1046122
-1046227
-1047285
-1046700
-1046483
-1046575
-1046416
-1046469
-1046657
-1046795
-1046717
-1046850
-1046873
-1046963
-1046976
-1047111
-1047007
-1046997
-1047269
-1047324
-1047571
-1047481
-1047466
-1047680
-1047873
-1048104
-1048032
-1048061
-1048268
-1048460
-1048508
-1048623
-1048488
-1048697
-1048759
-1048893
-1048898
-1049023
-1049183
-1049369
-1049318
-1049436
-1049669
-1049742
-1049950
-1050091
-1050197
-1050327
-1050456
-1051437
-1050977
-1050922
-1050989
-1051074
-1051260
-1051401
-1051255
-1051299
-1051721
-1051695
-1052044
-1052119
-1052090
-1052347
-1052484
-1052415
-1052538
-1052503
-1052805
-1052871
-1053021
-1053186
-1053279
-1053404
-1053513
-1053559
-1054127
-1053807
-1053929
-1054075
-1054291
-1054474
-1054396
-1054513
-1054590
-1054677
-1054629
-1054796
-1055060
-1055164
-1055400
-1055684
-1055718
-1055893
-1056145
-1056234
-1056247
-1056396
-1056737
-1056998
-1057257
-1057466
-1057647
-1058839
-1058444
-1058185
-1058184
-1058431
-1058671
-1058554
-1058955
-1059333
-1059364
-1059267
-1059637
-1059572
-1059499
-1059568
-1059749
-1059620
-1059732
-1059708
-1059218
-1058999
-1058559
-1058053
-1057182
-1056495
-1055719
-1054818
-1053901
-1053089
-1051800
-1050360
-1049440
-1048316
-1047093
-1045929
-1044788
-1043653
-1042650
-1041628
-1040346
-1039194
-1038308
-1037311
-1036039
-1034947
-1034209
-1033306
-1032524
-1031855
-1030867
-1030189
-1029511
-1028789
-1028071
-1027511
-1027261
-1026890
-1026551
-1026273
-1025872
-1025652
-1025393
-1025207
-1024966
-1025010
-1025406
-1025746
-1026102
-1026234
-1026041
-1026191
-1026186
-1026175
-1026197
-1026338
-1026689
-1027044
-1027323
-1027674
-1027783
-1028187
-1028351
-1028383
-1028593
-1028792
-1029320
-1029587
-1029879
-1030316
-1030297
-1030504
-1030838
-1031169
-1031147
-1031371
-1031835
-1032144
-1032454
-1032745
-1032709
-1032855
-1033024
-1033197
-1032917
-1033037
-1033354
-1033414
-1033515
-1033732
-1033521
-1033564
-1033447
-1033347
-1033151
-1032982
-1033042
-1032976
-1032854
-1032967
-1032616
-1032403
-1032132
-1032005
-1031715
-1031503
-1031518
-1031538
-1031456
-1031533
-1031190
-1031192
-1031094
-1030921
-1030793
-1030604
-1030683
-1030696
-1030588
-1030603
-1030287
-1030135
-1030038
-1029948
-1029504
-1029272
-1029274
-1029189
-1029155
-1029141
-1028861
-1028684
-1028405
-1028267
-1028044
-1027921
-1027795
-1027754
-1027674
-1027560
-1027248
-1027155
-1026979
-1026880
-1026763
-1026520
-1026498
-1026430
-1026526
-1026597
-1026432
-1026404
-1026504
-1026356
-1026217
-1026162
-1026384
-1026475
-1026466
-1026576
-1026435
-1026506
-1026592
-1026531
-1026384
-1026417
-1026611
-1026546
-1026449
-1026698
-1026620
-1026587
-1026511
-1026431
-1026148
-1026105
-1026164
-1026198
-1026363
-1026529
-1026418
-1026526
-1026583
-1026591
-1026339
-1026519
-1026799
-1027013
-1027170
-1027561
-1027547
-1027683
-1027857
-1028105
-1028061
-1028245
-1028625
-1028815
-1028992
-1029264
-1029359
-1029426
-1029471
-1029648
-1029556
-1029549
-1029882
-1029964
-1030004
-1030191
-1030038
-1030292
-1030273
-1030277
-1029852
-1030049
-1030368
-1030286
-1030500
-1030826
-1030622
-1030550
-1030631
-1030450
-1030276
-1030224
-1030468
-1030589
-1030843
-1031029
-1031109
-1031280
-1031488
-1031601
-1031400
-1031254
-1031369
-1031471
-1031482
-1031236
-1031197
-1031413
-1031500
-1031540
-1031360
-1031289
-1031577
-1031826
-1032086
-1032376
-1032237
-1032315
-1032427
-1032517
-1032449
-1032432
-1032712
-1032914
-1033000
-1033312
-1033256
-1033328
-1033416
-1033492
-1034216
-1033762
-1033786
-1033793
-1033967
-1034253
-1034239
-1034427
-1034629
-1034588
-1034476
-1034419
-1034684
-1034812
-1035118
-1035211
-1035257
-1035270
-1035555
-1035652
-1035500
-1035648
-1035755
-1035785
-1036035
-1036382
-1036314
-1036444
-1036529
-1036538
-1036530
-1036683
-1036813
-1036948
-1036796
-1037317
-1036933
-1037215
-1037316
-1037411
-1037419
-1037237
-1037609
-1037901
-1037932
-1038274
-1038226
-1038333
-1038557
-1038479
-1038389
-1038366
-1038759
-1038843
-1038939
-1038937
-1039362
-1039506
-1039558
-1039682
-1039515
-1039495
-1039846
-1039920
-1040025
-1040364
-1040370
-1040451
-1040443
-1040667
-1040466
-1040556
-1040707
-1040836
-1041662
-1041570
-1041473
-1041483
-1041450
-1041581
-1041506
-1041465
-1041640
-1041650
-1041599
-1041650
-1041911
-1042444
-1042746
-1042825
-1042607
-1042421
-1042751
-1042966
-1043079
-1043235
-1043074
-1043057
-1043299
-1043344
-1043341
-1043441
-1043588
-1043616
-1043572
-1043661
-1043584
-1043768
-1043957
-1044039
-1044023
-1043938
-1044165
-1044203
-1044158
-1044299
-1044185
-1044242
-1044196
-1044174
-1044082
-1043975
-1044451
-1044922
-1045243
-1045516
-1045424
-1045283
-1045432
-1045546
-1045470
-1045489
-1045624
-1045791
-1045929
-1045993
-1046109
-1046296
-1046645
-1046847
-1047154
-1047309
-1047827
-1048304
-1048639
-1049046
-1049951
-1050165
-1050553
-1050826
-1051190
-1051241
-1051336
-1051683
-1051762
-1051961
-1052037
-1052142
-1052316
-1052331
-1052279
-1052237
-1052094
-1052240
-1052231
-1052307
-1052173
-1052083
-1051980
-1051910
-1051725
-1051539
-1051425
-1051576
-1051603
-1051649
-1051585
-1051597
-1051881
-1052033
-1052067
-1052674
-1052230
-1052281
-1052376
-1052360
-1052358
-1052437
-1052510
-1052551
-1052390
-1052273
-1052022
-1051926
-1051654
-1051275
-1050565
-1049933
-1049072
-1048151
-1047001
-1045826
-1044372
-1043429
-1042667
-1041780
-1040565
-1038913
-1037612
-1036383
-1035238
-1033915
-1032367
-1031086
-1029862
-1028736
-1027447
-1026368
-1025535
-1024411
-1023452
-1022874
-1021632
-1020766
-1019945
-1019082
-1018063
-1017237
-1016661
-1015887
-1015307
-1014576
-1013939
-1013479
-1013057
-1012502
-1012224
-1011846
-1011537
-1011096
-1010836
-1010379
-1009959
-1009620
-1009374
-1009019
-1008782
-1008438
-1008359
-1008303
-1008251
-1008130
-1007921
-1007862
-1007963
-1007982
-1007904
-1007938
-1008100
-1008321
-1008352
-1008410
-1008604
-1008747
-1009129
-1009274
-1009424
-1009517
-1009937
-1010158
-1010374
-1010427
-1010752
-1010915
-1011104
-1011239
-1011170
-1011219
-1011290
-1011297
-1010988
-1011002
-1010953
-1010934
-1010537
-1010427
-1010040
-1009616
-1009330
-1009023
-1008810
-1008827
-1008965
-1009159
-1009276
-1008975
-1008708
-1008556
-1008479
-1008491
-1008368
-1008078
-1007825
-1007931
-1007805
-1007804
-1007603
-1007378
-1007380
-1007339
-1007149
-1007098
-1006842
-1006824
-1006766
-1006586
-1006493
-1006275
-1006278
-1006050
-1005755
-1005615
-1005279
-1005217
-1005252
-1005023
-1004723
-1004473
-1004382
-1004360
-1004126
-1004087
-1003889
-1003828
-1003693
-1003637
-1003214
-1002633
-1001921
-1001572
-1001304
-1000915
-1000568
-1000321
-1000204
-999863
-999570
-999032
-998731
-998599
-998201
-997867
-997445
-997452
-997349
-997164
-996941
-996593
-996578
-996408
-996165
-995973
-995782
-995876
-995887
-995835
-995787
-995635
-995673
-995886
-995926
-995860
-995891
-995956
-996155
-996146
-996084
-996163
-996516
-996788
-997113
-997390
-997423
-997760
-997939
-998103
-998407
-998491
-998700
-998987
-999104
-999045
-999140
-999532
-999696
-999848
-999927
-999974
-1000251
-1000343
-1000462
-1000623
-1000901
-1001098
-1001259
-1001500
-1001555
-1001868
-1001861
-1002060
-1001962
-1002138
-1002372
-1002447
-1002609
-1002475
-1002524
-1002730
-1002831
-1003022
-1003079
-1003012
-1003209
-1003392
-1003504
-1003314
-1003511
-1003794
-1003917
-1003979
-1003909
-1004160
-1004527
-1004666
-1004940
-1005094
-1005088
-1005907
-1005735
-1005791
-1005903
-1005886
-1006114
-1006279
-1006389
-1006435
-1006300
-1006590
-1006672
-1006575
-1006624
-1006769
-1006728
-1007008
-1006995
-1006799
-1006978
-1007001
-1007083
-1007212
-1007363
-1007290
-1007452
-1007499
-1007379
-1007007
-1006845
-1007002
-1007097
-1007337
-1007338
-1007080
-1007067
-1007091
-1007168
-1007092
-1007136
-1007331
-1007340
-1007260
-1006913
-1007200
-1008041
-1007575
-1007467
-1007389
-1007053
-1007259
-1007310
-1007275
-1007346
-1007352
-1007444
-1007407
-1007534
-1007469
-1007400
-1007506
-1007244
-1007578
-1007527
-1007413
-1007540
-1007691
-1007752
-1007777
-1007926
-1008064
-1008122
-1008312
-1008254
-1008227
-1008474
-1008584
-1008848
-1008978
-1009051
-1009232
-1009513
-1009510
-1009738
-1009929
-1009981
-1010109
-1010560
-1010329
-1010231
-1010451
-1010604
-1010700
-1010643
-1010779
-1010904
-1010994
-1011042
-1011219
-1011301
-1011381
-1011232
-1011100
-1011212
-1011062
-1011074
-1010941
-1010749
-1010766
-1010719
-1010682
-1010619
-1010447
-1010445
-1010460
-1010404
-1010323
-1010197
-1010247
-1010226
-1010488
-1010741
-1010896
-1011101
-1011353
-1011257
-1011307
-1011227
-1011434
-1011573
-1011641
-1011633
-1011834
-1011776
-1011899
-1011814
-1011815
-1012054
-1012188
-1012310
-1012405
-1012527
-1012717
-1012917
-1013135
-1013394
-1013434
-1013736
-1014143
-1014437
-1014640
-1014731
-1015231
-1015516
-1015602
-1015454
-1015173
-1015258
-1015344
-1015498
-1015773
-1015947
-1016747
-1016460
-1016587
-1016456
-1016586
-1016945
-1017159
-1017281
-1017498
-1017461
-1017622
-1017641
-1017983
-1018017
-1018110
-1018411
-1018771
-1018879
-1018795
-1018936
-1019206
-1019413
-1019508
-1019686
-1019661
-1019784
-1019240
-1019860
-1019964
-1020093
-1020116
-1020384
-1020447
-1020631
-1020789
-1020997
-1021148
-1021270
-1021491
-1021301
-1021447
-1021623
-1021709
-1021672
-1021612
-1021961
-1021975
-1021805
-1021702
-1021522
-1021469
-1021357
-1021060
-1020783
-1020242
-1019658
-1018880
-1018037
-1017156
-1016031
-1015008
-1014030
-1012868
-1011866
-1010422
-1009244
-1008014
-1006629
-1004002
-1002713
-1001651
-996565
-995314
-994067
-992715
-991372
-990232
-989226
-988205
-987080
-986021
-985157
-984187
-983306
-982412
-981474
-980805
-980134
-979553
-978843
-978133
-977667
-977156
-976858
-976515
-976062
-975758
-975521
-975327
-975233
-974961
-974903
-974859
-974878
-975031
-974873
-974883
-974915
-975110
-975045
-975096
-975333
-975584
-975818
-976834
-976441
-976712
-977056
-977365
-977470
-977703
-978045
-978244
-978450
-978720
-978713
-978786
-979022
-979080
-979142
-979004
-979036
-978900
-978760
-978626
-978343
-978136
-978046
-977973
-978018
-977997
-978214
-978087
-977992
-977981
-977644
-977515
-977549
-977530
-977265
-977166
-976936
-976777
-976851
-976739
-976424
-976358
-976388
-976313
-976312
-976140
-976097
-976106
-975907
-975998
-975865
-975728
-975626
-975574
-975522
-975182
-975043
-975080
-974886
-974862
-974545
-974409
-974337
-974331
-974249
-974057
-974022
-973958
-973849
-973797
-973514
-973300
-973407
-973194
-973127
-972752
-972340
-972486
-972393
-972207
-971957
-971752
-971699
-971584
-971468
-971034
-970925
-970836
-970803
-970619
-970270
-970128
-970884
-970167
-969914
-969631
-969311
-969296
-969185
-968948
-968753
-968499
-968510
-968569
-968478
-968269
-968263
-968155
-968208
-968331
-968243
-968162
-968267
-968318
-968309
-968238
-968408
-968609
-968845
-969098
-969215
-969214
-969363
-969569
-969804
-969974
-970061
-970368
-970499
-970789
-970691
-970768
-970935
-971130
-971331
-971339
-971681
-971888
-972007
-972189
-972179
-972280
-972600
-972705
-973010
-973047
-973301
-973644
-973839
-974163
-974366
-974526
-975100
-975349
-975629
-975957
-976138
-976216
-976115
-976331
-976346
-976597
-976968
-977355
-977605
-977744
-978085
-978281
-978573
-978739
-978834
-979101
-979368
-979620
-979850
-979984
-980052
-980335
-980497
-980801
-980897
-981196
-981390
-981535
-981822
-981855
-981926
-982323
-982446
-982740
-982774
-982868
-983169
-983410
-983523
-983593
-983711
-983961
-984099
-984306
-984338
-984516
-984821
-985040
-985169
-985311
-985454
-985618
-985645
-985650
-985759
-985861
-985926
-986067
-986128
-986066
-986121
-986288
-986334
-986531
-986625
-986805
-987111
-987299
-987410
-987448
-987376
-987502
-987459
-987579
-987534
-987560
-987879
-987978
-988213
-988082
-988126
-988345
-988417
-988695
-988694
-988845
-988989
-989080
-989232
-989200
-989280
-989545
-989520
-989603
-989632
-989809
-989972
-990202
-990271
-990322
-990551
-990822
-990981
-991314
-991491
-991387
-991849
-991969
-991906
-991757
-991749
-992093
-992121
-992263
-992225
-992267
-992341
-992503
-992674
-992833
-992920
-993199
-993201
-993314
-993265
-993282
-993613
-993897
-994047
-994022
-994210
-994345
-994444
-994587
-994632
-994729
-995143
-995381
-995557
-995688
-995734
-995997
-996119
-996313
-996485
-996370
-996526
-996677
-996684
-996695
-996806
-997103
-997226
-997514
-997553
-997528
-997804
-997964
-998232
-998332
-998541
-998776
-999067
-999453
-999683
-999847
-1000087
-1000946
-1001167
-1001527
-1001783
-1001928
-1001881
-1001872
-1002118
-1002313
-1002522
-1003101
-1003011
-1003250
-1003347
-1003622
-1003687
-1003921
-1004028
-1004230
-1004573
-1004669
-1004803
-1004942
-1005006
-1005282
-1005153
-1005157
-1005153
-1005088
-1005068
-1004953
-1004948
-1004965
-1005018
-1005058
-1005315
-1005447
-1005801
-1005971
-1006114
-1006066
-1006210
-1006500
-1006602
-1006731
-1006930
-1007040
-1007248
-1007240
-1007529
-1007574
-1007564
-1007961
-1008143
-1008316
-1008532
-1008608
-1008919
-1009304
-1009459
-1009458
-1009590
-1009856
-1010067
-1010202
-1010530
-1010536
-1010811
-1010911
-1011102
-1011097
-1011171
-1011550
-1011723
-1011893
-1012237
-1012310
-1012578
-1012912
-1013123
-1013251
-1013421
-1013701
-1013988
-1014167
-1014225
-1014097
-1014206
-1013930
-1013566
-1013109
-1012557
-1011925
-1011108
-1010271
-1009418
-1008206
-1007055
-1005555
-1004074
-1002445
-1000777
-999390
-998044
-996569
-994864
-993509
-991994
-990469
-988937
-981750
-980382
-978995
-977786
-976555
-975409
-974071
-972932
-972728
-967223
-966570
-965940
-965398
-965085
-964762
-964585
-964251
-963836
-963771
-963653
-963553
-963566
-963790
-963998
-964095
-964376
-964544
-964853
-964976
-965003
-965572
-966061
-966370
-966682
-967018
-967569
-967999
-968326
-968701
-969138
-969703
-970188
-970610
-971056
-971300
-971816
-972217
-972662
-972849
-973152
-973493
-973815
-974306
-974751
-974774
-974836
-975244
-975563
-975611
-975740
-976001
-976623
-976369
-976511
-976373
-976477
-976539
-976587
-976650
-976530
-976688
-976696
-976635
-976610
-976193
-976444
-976376
-976252
-976097
-975768
-975932
-975809
-975579
-975380
-975130
-974902
-974785
-974550
-974128
-974050
-974068
-973992
-973935
-973794
-973349
-973195
-972906
-972810
-972413
-972040
-971974
-971829
-971528
-971447
-971067
-970767
-970482
-970426
-970043
-969837
-969698
-969684
-969440
-969476
-969263
-968984
-969008
-968702
-968442
-968109
-968197
-968152
-968062
-967928
-967609
-967440
-967287
-967044
-966832
-966530
-966567
-966607
-966561
-966458
-966283
-966251
-966303
-966485
-966339
-966382
-966651
-966970
-967108
-967427
-967737
-967876
-968184
-968399
-968525
-968522
-968317
-968576
-968845
-969170
-969284
-969602
-969843
-969940
-969738
-970074
-970530
-970805
-971164
-971443
-971433
-971692
-971944
-972235
-972348
-972485
-972808
-973088
-973417
-973680
-973806
-974174
-974443
-974625
-974770
-974938
-975470
-975819
-976077
-976482
-976535
-976884
-977133
-977545
-977752
-977967
-978224
-978473
-978768
-978949
-979057
-979241
-979391
-979435
-979580
-979579
-979850
-979828
-980001
-980241
-980356
-980539
-980694
-981039
-980916
-981062
-981397
-981740
-981992
-982339
-982493
-982597
-982793
-982832
-982709
-982677
-982873
-982775
-982927
-983385
-983628
-983814
-984076
-984321
-984309
-984553
-984926
-985283
-985509
-985652
-986622
-986254
-986309
-986555
-986548
-986697
-986907
-987020
-987282
-987620
-987654
-987749
-987880
-988154
-988140
-988235
-988537
-988665
-988951
-989104
-989195
-989209
-989418
-989673
-989737
-989731
-989918
-990111
-990259
-990515
-990523
-990757
-990919
-990979
-990972
-991079
-991266
-991461
-991607
-991924
-991901
-992062
-992193
-992286
-992293
-992303
-992648
-992873
-992853
-993277
-993595
-993824
-994166
-994506
-994618
-994780
-995258
-995565
-995788
-996122
-996373
-996536
-996879
-997006
-996617
-996514
-996864
-997106
-997304
-997518
-997515
-997710
-997842
-998099
-998112
-998236
-998484
-998625
-998833
-998939
-998975
-999124
-999374
-999401
-999381
-999581
-999796
-999928
-1000122
-1000360
-1000439
-1000624
-1000785
-1001036
-1001206
-1001290
-1001645
-1001853
-1002063
-1002366
-1002371
-1002619
-1002843
-1003064
-1003056
-1003176
-1003305
-1003760
-1003798
-1003874
-1003968
-1004347
-1004481
-1004959
-1004786
-1004800
-1005152
-1005328
-1005517
-1005697
-1005869
-1005900
-1006130
-1006347
-1006404
-1006518
-1006957
-1007149
-1007184
-1007327
-1007547
-1007749
-1007917
-1008111
-1008135
-1008036
-1008594
-1008729
-1008929
-1009167
-1009255
-1009515
-1009725
-1009814
-1009963
-1010059
-1010301
-1010522
-1010624
-1010663
-1010712
-1010754
-1010800
-1010887
-1010703
-1010622
-1010689
-1010506
-1010477
-1010544
-1010604
-1010945
-1011563
-1011682
-1011875
-1012120
-1012288
-1012514
-1012802
-1012928
-1013092
-1013235
-1013402
-1013598
-1013829
-1014039
-1014393
-1014582
-1014745
-1014958
-1015117
-1015128
-1015502
-1015646
-1015798
-1015753
-1016079
-1016347
-1016589
-1016882
-1017376
-1017277
-1017420
-1017556
-1017643
-1017701
-1018239
-1018488
-1018604
-1018889
-1019115
-1019377
-1019575
-1019716
-1019703
-1019833
-1019958
-1020163
-1020176
-1020147
-1020096
-1020026
-1019660
-1020146
-1019002
-1018140
-1017764
-1016969
-1016101
-1015125
-1013930
-1012729
-1011447
-1010113
-1008622
-1006994
-1005588
-1004148
-1002638
-1001252
-999481
-998098
-996407
-994798
-993048
-991361
-990059
-988612
-987054
-985663
-984016
-982647
-981194
-979888
-978159
-977120
-976122
-975049
-973905
-973057
-971894
-971053
-970296
-969476
-968525
-967892
-967435
-966960
-966448
-965954
-965624
-965329
-965094
-964982
-964704
-964600
-964650
-964800
-965056
-965220
-965483
-965649
-965956
-966326
-966522
-966738
-967377
-967904
-968253
-968854
-969275
-969781
-970353
-970755
-971200
-971540
-972232
-972780
-973354
-973927
-974252
-974744
-975447
-975937
-976026
-976688
-977533
-978014
-978588
-979149
-979582
-979763
-979871
-980203
-980390
-980862
-981260
-981571
-981882
-982032
-982267
-982565
-982874
-983135
-982929
-982959
-983240
-983408
-983558
-983595
-983590
-983707
-983884
-983930
-983812
-983947
-984109
-984119
-984257
-984190
-984156
-984224
-984379
-984516
-984280
-984294
-984258
-984223
-984199
-984003
-983892
-983950
-983700
-984280
-983367
-982655
-982646
-982501
-982223
-981953
-981492
-981344
-981018
-980910
-980569
-980269
-980059
-979865
-979607
-979382
-979020
-978918
-978691
-978484
-978130
-977795
-977545
-977299
-976919
-976623
-976337
-975400
-975312
-975132
-975147
-975015
-974786
-974634
-974811
-974786
-974843
-974571
-974410
-974247
-974169
-974297
-974388
-974503
-974629
-974718
-974734
-974758
-975013
-974948
-975169
-975361
-975358
-975644
-975753
-975931
-976096
-976085
-976636
-976696
-976856
-977047
-977233
-977606
-977917
-978223
-978305
-978639
-978948
-979209
-979409
-979668
-980008
-980353
-980698
-981188
-981349
-981504
-981824
-982239
-982559
-982992
-983087
-983428
-983712
-983877
-984139
-984388
-984768
-985114
-985338
-985557
-985863
-986154
-986386
-986809
-987227
-987355
-987612
-987847
-987994
-988294
-988393
-988730
-989104
-989374
-989619
-989776
-990164
-990291
-990573
-990842
-991001
-991194
-991457
-991743
-991848
-992003
-992216
-992297
-992415
-992618
-992791
-992947
-993260
-993419
-993163
-993422
-993782
-993868
-994168
-994266
-994301
-994588
-994717
-994699
-995006
-994948
-995202
-995331
-995535
-995723
-995730
-995803
-996044
-996104
-996246
-996233
-996364
-996554
-996743
-996816
-996957
-997086
-997343
-997469
-997528
-997550
-997840
-997908
-998080
-998307
-998336
-998589
-998849
-998909
-998986
-999056
-999214
-999472
-999706
-999740
-999789
-1000026
-1000262
-1000474
-1000483
-1000496
-1000531
-1000873
-1000913
-1001085
-1001033
-1001142
-1001315
-1001464
-1001577
-1001568
-1001751
-1001975
-1002134
-1002313
-1002231
-1002400
-1002542
-1002792
-1002835
-1002865
-1002978
-1003272
-1003462
-1003556
-1003566
-1003804
-1003986
-1004302
-1004380
-1004385
-1004630
-1004847
-1004953
-1005180
-1005124
-1005203
-1005392
-1005659
-1005848
-1005803
-1005925
-1006111
-1006419
-1006555
-1006705
-1006869
-1007106
-1007175
-1007328
-1007434
-1007601
-1007852
-1008156
-1008291
-1008296
-1008317
-1008559
-1008849
-1009091
-1009017
-1009255
-1009605
-1009640
-1009947
-1009957
-1010113
-1010458
-1010695
-1010702
-1010783
-1010851
-1011022
-1011253
-1011385
-1011430
-1011638
-1011911
-1012026
-1012353
-1012303
-1012447
-1012745
-1012923
-1013143
-1013154
-1013281
-1013581
-1013825
-1014029
-1014225
-1014401
-1014577
-1014652
-1014935
-1014942
-1014993
-1015386
-1015440
-1015544
-1015540
-1015734
-1015952
-1016033
-1016154
-1016300
-1016544
-1016774
-1017085
-1017370
-1017464
-1017747
-1017882
-1017821
-1017881
-1017941
-1017838
-1018165
-1018537
-1018724
-1018744
-1018659
-1018910
-1018946
-1019204
-1019249
-1019269
-1019607
-1019834
-1020049
-1020163
-1020230
-1020668
-1020919
-1021101
-1021178
-1021226
-1021666
-1021868
-1022169
-1022288
-1022262
-1022565
-1022697
-1022919
-1023027
-1023047
-1023205
-1023337
-1023358
-1023310
-1023268
-1023264
-1023137
-1022596
-1021919
-1021022
-1020248
-1019232
-1018076
-1016777
-1015270
-1013954
-1012221
-1010477
-1008506
-1006615
-1004840
-1003012
-1001061
-999073
-996993
-994884
-992947
-990888
-988621
-986530
-984651
-982637
-980579
-978420
-976449
-974549
-972771
-970981
-969153
-967403
-965908
-964475
-962919
-961508
-960051
-959052
-958115
-956951
-955983
-954982
-954330
-953806
-953172
-952729
-952219
-951879
-951368
-951193
-950983
-950725
-950826
-950758
-950825
-950762
-950664
-950804
-951180
-951533
-951638
-951534
-952204
-953202
-953112
-953282
-953234
-953647
-954208
-954440
-954937
-955334
-955944
-956394
-956820
-957045
-957373
-957798
-958145
-958567
-959069
-959270
-959820
-960110
-960423
-960792
-960997
-961588
-961939
-962226
-962428
-962649
-963044
-963332
-963676
-963968
-964063
-964374
-964569
-964684
-964635
-964543
-964783
-964865
-964969
-964758
-964847
-964947
-964903
-964953
-964959
-964911
-965031
-964834
-964912
-965026
-964979
-965097
-965103
-965099
-965108
-964973
-964960
-965103
-965070
-965030
-964969
-964867
-965254
-964872
-964718
-964511
-964389
-964245
-964175
-964004
-963708
-963544
-963230
-963071
-962701
-962182
-962391
-962200
-961959
-961619
-961537
-961519
-961370
-961154
-960946
-960743
-960875
-960755
-960652
-960497
-960243
-960013
-960164
-960154
-959996
-959663
-959449
-959206
-959240
-959173
-958999
-959074
-959135
-959171
-959163
-958987
-959132
-959227
-959331
-959322
-959373
-959517
-959586
-959606
-959808
-960451
-960228
-960273
-960405
-960571
-960759
-961062
-961148
-961318
-961582
-961572
-962057
-962372
-962538
-962934
-963134
-963596
-963968
-964111
-964533
-964745
-965137
-965611
-965999
-966222
-966377
-966971
-967288
-967639
-967965
-968181
-968697
-969084
-969440
-969881
-970159
-970259
-970847
-971260
-971598
-971873
-972408
-972737
-973126
-973513
-973778
-974175
-974504
-974880
-975315
-975490
-975935
-976261
-976679
-977033
-977190
-977610
-977964
-978194
-978340
-978494
-978988
-979199
-979371
-979639
-979788
-980060
-980424
-980572
-980727
-980848
-981322
-981597
-981762
-981991
-982245
-982533
-982763
-982997
-983291
-983409
-983656
-983992
-984325
-984602
-984742
-985077
-985180
-985354
-985573
-985618
-985984
-986233
-986334
-986397
-986425
-986616
-986782
-986783
-986931
-986855
-987236
-987609
-988027
-988216
-988126
-988576
-988851
-989019
-989219
-989343
-989565
-989895
-989986
-990128
-990147
-990556
-990687
-991990
-992218
-992537
-992647
-992993
-993235
-993485
-993652
-993942
-994236
-994535
-994798
-994978
-995046
-995412
-995611
-995722
-995738
-995751
-996125
-996242
-996426
-996452
-996511
-996789
-996966
-997134
-997151
-997317
-997491
-997710
-997722
-998005
-997993
-998276
-998529
-998736
-998807
-998875
-999278
-999524
-999607
-999847
-999965
-1000184
-1000042
-1000450
-1000696
-1000723
-1001056
-1001280
-1001594
-1001781
-1001918
-1002171
-1002297
-1002614
-1002694
-1002741
-1002945
-1003166
-1003298
-1003469
-1003392
-1003448
-1003521
-1003696
-1003859
-1003873
-1004028
-1004091
-1004294
-1004450
-1004932
-1005356
-1005466
-1005690
-1005630
-1005790
-1006213
-1006285
-1006518
-1006530
-1006582
-1006885
-1007062
-1007167
-1007387
-1007557
-1007734
-1008091
-1008279
-1008308
-1008473
-1008660
-1009023
-1009095
-1009268
-1009446
-1009779
-1010086
-1010408
-1010556
-1010622
-1011031
-1011278
-1011459
-1011591
-1011724
-1012127
-1012291
-1012593
-1012847
-1012945
-1013254
-1013500
-1013717
-1013999
-1014130
-1014440
-1014763
-1014999
-1015117
-1015385
-1015754
-1015960
-1016231
-1016500
-1016583
-1017149
-1017494
-1017673
-1017900
-1018206
-1018595
-1018867
-1019203
-1019366
-1019570
-1019848
-1020194
-1020471
-1020617
-1020612
-1020956
-1021111
-1021164
-1021176
-1021033
-1021003
-1020747
-1020470
-1019731
-1018831
-1018022
-1017192
-1015952
-1014828
-1013418
-1012286
-1010999
-1009492
-1008048
-1006558
-1005238
-1003798
-1002239
-1000763
-999166
-997717
-996248
-994792
-993321
-991657
-990469
-989096
-987686
-986237
-984847
-983713
-982519
-981418
-980209
-978984
-978113
-977067
-976165
-975267
-974529
-973884
-973269
-972592
-972110
-971534
-971234
-970863
-970506
-970268
-970205
-970426
-970431
-970564
-970444
-970289
-970607
-970782
-971098
-971311
-971444
-971866
-972279
-972695
-972976
-973185
-973915
-974238
-974753
-975161
-975491
-976028
-976681
-977311
-977699
-978295
-978771
-979397
-979997
-980482
-980797
-981518
-981990
-982483
-983014
-983267
-983779
-984166
-984564
-985032
-985314
-985747
-986250
-986686
-987055
-987350
-987809
-988168
-988457
-988823
-989082
-989671
-990011
-990405
-990594
-990751
-990788
-990782
-990748
-990760
-990812
-990913
-991061
-991084
-991012
-990935
-991138
-991388
-991450
-991391
-991281
-991389
-991266
-991299
-991151
-991047
-991039
-990809
-990732
-990570
-990208
-990057
-990013
-989868
-989466
-989270
-989127
-988758
-988535
-988216
-987915
-987479
-987309
-986865
-986514
-986377
-986056
-985734
-985280
-984915
-984617
-984421
-983917
-983768
-983514
-983394
-983005
-982769
-982329
-982017
-981927
-981766
-981546
-981320
-981056
-981108
-981028
-980967
-980806
-980710
-980668
-980841
-980803
-980829
-980871
-981087
-981133
-981395
-981410
-981231
-981778
-982190
-982384
-982573
-982739
-983029
-983132
-983056
-982995
-983095
-983301
-983611
-983919
-984191
-984324
-984606
-984865
-985055
-985283
-985570
-985854
-986273
-986581
-986863
-987129
-987555
-987872
-988039
-988250
-988609
-988929
-989291
-989671
-989957
-990163
-990421
-990674
-991185
-991476
-991693
-992108
-992401
-992672
-992978
-993135
-993306
-993840
-993980
-994273
-994354
-994731
-995019
-995295
-995570
-995568
-995862
-996209
-996484
-996578
-996697
-997057
-997325
-997533
-997698
-997713
-998048
-998177
-998299
-998458
-999068
-998784
-998847
-998775
-998796
-998780
-998904
-999032
-999138
-999215
-999289
-999461
-999598
-999753
-999960
-1000095
-1000248
-1000414
-1000502
-1000703
-1000693
-1000876
-1001102
-1001284
-1001525
-1001643
-1001853
-1002026
-1002029
-1002170
-1002265
-1002333
-1002493
-1002795
-1002782
-1002794
-1002988
-1003092
-1003285
-1003211
-1003300
-1003443
-1003714
-1003783
-1003825
-1003957
-1004063
-1004169
-1004171
-1004245
-1004159
-1004329
-1004429
-1004653
-1004793
-1004801
-1005069
-1005382
-1005633
-1005785
-1005922
-1006139
-1006403
-1006544
-1006575
-1006684
-1006776
-1006965
-1007050
-1007067
-1007128
-1007374
-1007449
-1007576
-1007552
-1007769
-1008040
-1008101
-1008217
-1008248
-1008520
-1008646
-1008952
-1009088
-1009125
-1009375
-1009635
-1009756
-1009853
-1010014
-1010174
-1010435
-1011320
-1011170
-1011086
-1011200
-1011398
-1011535
-1011911
-1011932
-1011925
-1012339
-1012656
-1012898
-1012902
-1013091
-1013355
-1013628
-1013884
-1013973
-1014038
-1014264
-1014567
-1014880
-1014856
-1015041
-1015250
-1015620
-1015715
-1015838
-1016921
-1016622
-1016711
-1017960
-1017387
-1017480
-1017587
-1017726
-1017993
-1018170
-1018376
-1018785
-1018919
-1019270
-1019272
-1019530
-1019573
-1019510
-1019980
-1019890
-1019941
-1019947
-1019817
-1019623
-1019206
-1018599
-1018091
-1017242
-1016274
-1015245
-1014094
-1012935
-1011631
-1010302
-1009000
-1007878
-1006810
-1005500
-1004043
-1002485
-1000797
-999465
-998014
-996504
-994769
-993301
-991779
-990379
-988817
-987207
-985788
-984538
-983270
-982049
-980608
-979422
-978349
-976977
-976223
-975200
-974223
-973580
-972770
-972122
-971346
-970680
-970246
-969844
-969537
-969215
-968852
-968797
-968695
-968613
-968368
-968282
-968459
-968472
-968617
-968745
-968774
-969193
-969442
-969747
-970148
-970406
-972706
-973288
-973767
-974375
-974831
-975253
-975924
-976535
-977113
-977564
-978132
-978835
-979340
-979907
-980485
-980917
-981661
-982346
-983064
-983429
-983924
-984650
-985197
-985618
-985946
-986185
-986507
-986783
-986959
-986938
-987260
-987477
-987810
-988073
-988182
-988238
-988475
-988792
-989045
-989188
-989305
-989575
-989770
-989870
-989877
-989912
-990146
-990252
-990308
-990471
-990503
-990825
-990904
-991015
-990895
-990808
-990881
-990810
-990804
-990736
-990519
-990469
-990371
-990276
-989975
-989744
-989647
-989401
-989126
-988830
-988537
-988489
-988213
-987929
-987522
-987204
-987055
-986667
-986263
-985898
-985513
-985207
-984847
-984470
-984024
-983504
-983256
-982790
-982518
-982086
-981697
-981467
-981207
-980949
-980677
-980459
-980303
-980138
-980193
-980097
-980207
-980206
-980308
-980338
-980170
-980287
-980196
-980099
-980044
-979984
-980310
-980429
-980467
-980472
-980561
-980860
-980926
-981234
-981155
-981323
-981448
-981529
-981568
-981470
-981403
-981789
-982077
-982546
-982774
-983050
-983535
-983860
-984188
-984459
-984683
-984977
-985378
-985630
-985775
-986113
-986447
-986874
-987349
-987523
-987660
-988091
-988392
-988663
-988985
-989100
-989586
-989933
-990054
-990304
-991149
-990996
-990740
-991087
-991259
-991448
-991746
-992028
-992401
-992552
-992792
-993134
-993469
-993720
-993932
-994083
-994558
-994860
-995210
-995180
-995301
-995727
-995930
-996331
-996686
-996811
-997327
-997542
-998030
-998208
-998504
-998842
-999254
-999557
-999839
-999915
-1000325
-1000630
-1000982
-1001112
-1001228
-1001474
-1001744
-1002048
-1002108
-1002238
-1002534
-1002671
-1002764
-1002534
-1002709
-1002929
-1003119
-1003148
-1003301
-1003243
-1003513
-1003602
-1003696
-1003727
-1003604
-1003848
-1003985
-1004049
-1004143
-1004128
-1004373
-1004510
-1004681
-1004830
-1004875
-1005069
-1005224
-1005459
-1005494
-1005648
-1005948
-1006251
-1006366
-1006592
-1006706
-1006923
-1007035
-1007265
-1007465
-1007538
-1007781
-1008026
-1008176
-1008297
-1008218
-1008250
-1008219
-1008419
-1007990
-1008129
-1008526
-1009362
-1009037
-1008841
-1008755
-1008919
-1009055
-1009069
-1009239
-1009247
-1009539
-1009629
-1009619
-1009810
-1009793
-1010033
-1010152
-1010291
-1010315
-1010358
-1010509
-1010821
-1010919
-1010988
-1011082
-1011345
-1011386
-1011508
-1011760
-1011725
-1012106
-1012217
-1012483
-1012652
-1012891
-1013140
-1013273
-1013569
-1013838
-1013678
-1013845
-1013833
-1014018
-1014080
-1015170
-1014673
-1014715
-1014926
-1014845
-1014994
-1015154
-1015500
-1015651
-1015905
-1015889
-1016076
-1016287
-1016362
-1016373
-1016193
-1016339
-1016062
-1015773
-1015372
-1014699
-1014174
-1013472
-1012648
-1011593
-1010333
-1009210
-1008167
-1006817
-1005485
-1003844
-1002555
-1000921
-999416
-997906
-996209
-994670
-993179
-991701
-990207
-988615
-987219
-985715
-984284
-982674
-981225
-979993
-978760
-977498
-976318
-975075
-973964
-973020
-972104
-971188
-970253
-969653
-968941
-968299
-967631
-967177
-966669
-966408
-966037
-966020
-965391
-965211
-965099
-964920
-964896
-964956
-964965
-964927
-965223
-965374
-965478
-965683
-966071
-966471
-966724
-967073
-967507
-967976
-968306
-968740
-969256
-969771
-970388
-970945
-971423
-971709
-972446
-972904
-973535
-973924
-974434
-975003
-975602
-976070
-976619
-977063
-977718
-978191
-978606
-978989
-979415
-979870
-980442
-980800
-981083
-981374
-981909
-982197
-982550
-982669
-982937
-983291
-983574
-983755
-983803
-983978
-984339
-984518
-984726
-984766
-984763
-984991
-985079
-985311
-985116
-985337
-985627
-985751
-985857
-985928
-986044
-986234
-986320
-986264
-986106
-986098
-986133
-986012
-985988
-985871
-985737
-985958
-985604
-985456
-985126
-984777
-984708
-984408
-984140
-983807
-983369
-983045
-982929
-982724
-982421
-982062
-981913
-981636
-981227
-980878
-980613
-980271
-979990
-979692
-979351
-978923
-978702
-978553
-978274
-978025
-977803
-977820
-977532
-977443
-977231
-976989
-977103
-977053
-976945
-976891
-976949
-976951
-976813
-976517
-976287
-976122
-976095
-976244
-976288
-976259
-976559
-976592
-976837
-977007
-977017
-977201
-977379
-977562
-977641
-977825
-978146
-978403
-978632
-979481
-979334
-979548
-979794
-980548
-980466
-980712
-980997
-981328
-981450
-981431
-981607
-981722
-982291
-982877
-983180
-983350
-983767
-984001
-984388
-984640
-984844
-985263
-985664
-985898
-986100
-986345
-986629
-986901
-987117
-987155
-987725
-988047
-988391
-988635
-988880
-989210
-989579
-989847
-990093
-990319
-990537
-990853
-991255
-991553
-991630
-991757
-992129
-992492
-992806
-993215
-993346
-993606
-993816
-993990
-994025
-994117
-994308
-994655
-994823
-994983
-995103
-995302
-995576
-995856
-995912
-995928
-996269
-996572
-996868
-996970
-997167
-997251
-997351
-997581
-997678
-997767
-998153
-998314
-998402
-998518
-998601
-998872
-998910
-998959
-999046
-999099
-999375
-999491
-999614
-999627
-999667
-999826
-1000037
-1000123
-1000337
-1000348
-1000660
-1000738
-1000812
-1000904
-1001462
-1001613
-1001843
-1002078
-1002077
-1002192
-1002444
-1002564
-1002614
-1002521
-1002632
-1002788
-1002844
-1002976
-1003042
-1002899
-1003145
-1003356
-1003430
-1003582
-1003682
-1003912
-1004084
-1004305
-1004481
-1004590
-1004710
-1004926
-1005153
-1005300
-1005369
-1005631
-1005921
-1006177
-1006274
-1006524
-1006688
-1006799
-1006998
-1007167
-1007209
-1007631
-1007777
-1008027
-1008138
-1008154
-1008433
-1008468
-1008517
-1008559
-1009527
-1009200
-1009259
-1009375
-1009388
-1009633
-1009822
-1009984
-1010163
-1010393
-1010473
-1010629
-1010663
-1010646
-1010745
-1010922
-1011154
-1011363
-1011612
-1011598
-1011738
-1011952
-1012222
-1012464
-1012632
-1012568
-1012825
-1012944
-1012939
-1012866
-1012736
-1012737
-1012687
-1012465
-1012015
-1011510
-1010855
-1010176
-1009424
-1008379
-1007287
-1006212
-1005037
-1003782
-1002383
-1000898
-999677
-998283
-996698
-995212
-993581
-992175
-990606
-988777
-986972
-985251
-983714
-982238
-980653
-978964
-977350
-975857
-974558
-973257
-972028
-970642
-969548
-968546
-967362
-966230
-965345
-964561
-963958
-963295
-962568
-961823
-961390
-961033
-960669
-960384
-959921
-959827
-959718
-959675
-959632
-959615
-959602
-959682
-959898
-959895
-960039
-960497
-960849
-961149
-961473
-961817
-962262
-962797
-963295
-963759
-964170
-964692
-965270
-965876
-966390
-966916
-967683
-968188
-968763
-969325
-969857
-970494
-971273
-971936
-972462
-972993
-973676
-974227
-974806
-975486
-975873
-976531
-977028
-977562
-978016
-978265
-978560
-978922
-979299
-979628
-979814
-980147
-980361
-980516
-980705
-980806
-981084
-981256
-981473
-981694
-981755
-981896
-982178
-982391
-982478
-982537
-982775
-982924
-983043
-983270
-983324
-983372
-983518
-983695
-983671
-983794
-983842
-983777
-983742
-983568
-983519
-983441
-983262
-983096
-982669
-982129
-981953
-981912
-981779
-981631
-981257
-980920
-980869
-980663
-980395
-979940
-979585
-979325
-979020
-978844
-978336
-978102
-977803
-977525
-977105
-976675
-976499
-976218
-975895
-975738
-975407
-975157
-974962
-974784
-974757
-974520
-974315
-974357
-974135
-974115
-973978
-973907
-974056
-974005
-974066
-974023
-974110
-974291
-974240
-974445
-974482
-974721
-974969
-975114
-975484
-975493
-975731
-976015
-976113
-975717
-976012
-976225
-976529
-976722
-977152
-977359
-977641
-977878
-978235
-978437
-978595
-978912
-979465
-979865
-980102
-980885
-980820
-981057
-981509
-981850
-982067
-982371
-982788
-983284
-983526
-983774
-984169
-984574
-984849
-985408
-985722
-985982
-986500
-986861
-987278
-987571
-987790
-988038
-988161
-988333
-988535
-988893
-989212
-989699
-989964
-990064
-990337
-990679
-990904
-991215
-991470
-991643
-992090
-992363
-992690
-992830
-993120
-993442
-993746
-994046
-994070
-994324
-994781
-995064
-995416
-995463
-995636
-995931
-996054
-996369
-996504
-996741
-997274
-997511
-997737
-998000
-998170
-998335
-998777
-998972
-998994
-998922
-998985
-999185
-999285
-999389
-999524
-999983
-1000284
-1000495
-1000535
-1000792
-1001142
-1001441
-1001685
-1001762
-1001888
-1002219
-1002388
-1002515
-1002510
-1002562
-1002633
-1002765
-1002906
-1002964
-1003062
-1003237
-1003317
-1003501
-1003616
-1003795
-1004048
-1004291
-1004429
-1004533
-1004665
-1004813
-1004900
-1005067
-1005216
-1005232
-1005511
-1005750
-1005898
-1005972
-1006048
-1006261
-1006372
-1006404
-1006496
-1006461
-1006713
-1006837
-1006907
-1007002
-1006924
-1007210
-1007301
-1007227
-1007278
-1007214
-1007557
-1007576
-1007722
-1007731
-1007825
-1007923
-1008226
-1008274
-1008484
-1008534
-1008814
-1009057
-1009313
-1009420
-1009662
-1009975
-1010198
-1010302
-1010364
-1010689
-1011087
-1011244
-1011436
-1011716
-1011690
-1011936
-1012057
-1012308
-1012408
-1012505
-1012782
-1013103
-1013239
-1013279
-1013210
-1013348
-1013127
-1013233
-1013325
-1013342
-1013713
-1013864
-1014127
-1014248
-1014450
-1014751
-1014800
-1014594
-1014427
-1014397
-1014721
-1015207
-1015376
-1015625
-1015603
-1015725
-1015938
-1016231
-1016248
-1016527
-1016896
-1017038
-1017124
-1017202
-1017228
-1017242
-1017010
-1016612
-1016082
-1015818
-1015093
-1014468
-1013510
-1012325
-1011340
-1010109
-1008848
-1007544
-1005902
-1004551
-1003054
-1001540
-999989
-998402
-996803
-995218
-993646
-991957
-990265
-988838
-987193
-985647
-984120
-982414
-980972
-979355
-978110
-976643
-975168
-973988
-972887
-971768
-970647
-969374
-968420
-968263
-967018
-966088
-965077
-964564
-963914
-963081
-962768
-962400
-962216
-961906
-961616
-961451
-961241
-961393
-961380
-961621
-961673
-961747
-962134
-962493
-962720
-963019
-963430
-964032
-964467
-965043
-965469
-965952
-966542
-967000
-967650
-968048
-968635
-969283
-969995
-970560
-971182
-971445
-971909
-972597
-973273
-973764
-974188
-974964
-975539
-976145
-976536
-977007
-978149
-978270
-978513
-978913
-979317
-979757
-980274
-980823
-981256
-981492
-981960
-982260
-982497
-982665
-982763
-983193
-983405
-983761
-983848
-983995
-984349
-984550
-984821
-984930
-985002
-985367
-985666
-985903
-986015
-986062
-986237
-986339
-986542
-986397
-986367
-986525
-986487
-986415
-986210
-986009
-985959
-985786
-985573
-985386
-984966
-984801
-984377
-984193
-983812
-983381
-983187
-982846
-982556
-982035
-981659
-981423
-981147
-980794
-980421
-979843
-979607
-979197
-978887
-978445
-978015
-977853
-977653
-977230
-977056
-976633
-976581
-976143
-976068
-975989
-975790
-975838
-975830
-975672
-975664
-975482
-975579
-975559
-975528
-975584
-975988
-975890
-975874
-976116
-976270
-976339
-976526
-976568
-976815
-976663
-976943
-977302
-977544
-977779
-978077
-978156
-978523
-978812
-979040
-979235
-979421
-979894
-980979
-981620
-981899
-982193
-982439
-982847
-983223
-983631
-983932
-984008
-984486
-984765
-985072
-985383
-985499
-986062
-986266
-986602
-986812
-986807
-987243
-987423
-987560
-987847
-987971
-988301
-988539
-988818
-988988
-989149
-989581
-989674
-990104
-990471
-990651
-991141
-991463
-991818
-992171
-992332
-992607
-992973
-993214
-993587
-993692
-994099
-994330
-994653
-994816
-994905
-995120
-995318
-995574
-995656
-995648
-995895
-996104
-996246
-996203
-996194
-996327
-996388
-996527
-996528
-996516
-996748
-996822
-996911
-996923
-996743
-996857
-997099
-997107
-997173
-997040
-997226
-997296
-997227
-997457
-997434
-997606
-997733
-998191
-998778
-999162
-999364
-999552
-999676
-999665
-999677
-999914
-1000132
-1000231
-1000292
-1000243
-1000466
-1000738
-1000949
-1001008
-1001230
-1001430
-1001614
-1001616
-1001709
-1001883
-1002194
-1002397
-1002481
-1002435
-1002595
-1002907
-1002858
-1002903
-1002950
-1003228
-1003366
-1003540
-1003629
-1003624
-1003793
-1003875
-1004046
-1003832
-1003932
-1004259
-1004321
-1004528
-1004642
-1004635
-1004688
-1004965
-1005187
-1005295
-1005446
-1005752
-1005942
-1006139
-1006202
-1006250
-1006182
-1006523
-1006726
-1006863
-1006848
-1006988
-1007191
-1007288
-1007363
-1007566
-1007648
-1007730
-1007879
-1007988
-1008103
-1008296
-1009445
-1009088
-1008982
-1008926
-1009214
-1009392
-1009639
-1009691
-1009731
-1009959
-1010160
-1010543
-1010595
-1010746
-1011042
-1011216
-1011353
-1011488
-1011528
-1011872
-1012114
-1012267
-1012357
-1012339
-1012812
-1012861
-1012964
-1012984
-1012986
-1013304
-1013540
-1013717
-1013887
-1013861
-1014043
-1014399
-1014550
-1014547
-1014766
-1015011
-1015141
-1015573
-1015532
-1015762
-1015901
-1016145
-1016472
-1016452
-1016584
-1016993
-1017209
-1017542
-1017532
-1017787
-1017921
-1018102
-1018094
-1017922
-1017756
-1017704
-1017594
-1017463
-1017001
-1016320
-1015619
-1014779
-1013735
-1012583
-1011326
-1010006
-1008522
-1006989
-1005256
-1003477
-1002614
-1001150
-998351
-996283
-994118
-992272
-990367
-988047
-986377
-984341
-982481
-980488
-978809
-976872
-974860
-973404
-971761
-970150
-968666
-967234
-965828
-964743
-963574
-962304
-961233
-960422
-959734
-958918
-958299
-957594
-957217
-956947
-956492
-956228
-955861
-955765
-955716
-955627
-955651
-955691
-955742
-955731
-956025
-956054
-956186
-956578
-956904
-957245
-957664
-958071
-958559
-959077
-959697
-960069
-960619
-961255
-962029
-962578
-963333
-963884
-964740
-965376
-966057
-966713
-967317
-968066
-968783
-969448
-970188
-970663
-971440
-972078
-972600
-973106
-973638
-974211
-974968
-975411
-975894
-976152
-976621
-977018
-977367
-977762
-978006
-978304
-978627
-978924
-979089
-979343
-979647
-979854
-979919
-980066
-979924
-980179
-980344
-980423
-980382
-980475
-980504
-980574
-980669
-980526
-980459
-980651
-980503
-980389
-980141
-980052
-979914
-979770
-979448
-979151
-978722
-978613
-978312
-978065
-977606
-977247
-976913
-976578
-976243
-975823
-975501
-975205
-974586
-974637
-974296
-973940
-973748
-973357
-973065
-972739
-972447
-972051
-971893
-971658
-971770
-971157
-970995
-970690
-970504
-970114
-969862
-969901
-969743
-969667
-969491
-969339
-969282
-969349
-969104
-968905
-968811
-968958
-969055
-969194
-969083
-969011
-969187
-969044
-968991
-968754
-968738
-969011
-969241
-969308
-969377
-969598
-969846
-970056
-970256
-970507
-970645
-971058
-971360
-971678
-971969
-972210
-972632
-972931
-973205
-973519
-973811
-974078
-974486
-974869
-975144
-975439
-975835
-976227
-976526
-976920
-977237
-977693
-978017
-978505
-978785
-979058
-979511
-979665
-979937
-980085
-980208
-980629
-980988
-981270
-981647
-981899
-982317
-982460
-982809
-982906
-983171
-983573
-983796
-984187
-984487
-984752
-984950
-985222
-985459
-985493
-986368
-986965
-986594
-986578
-986720
-986787
-987066
-987198
-987302
-987392
-987411
-987654
-987935
-988073
-988158
-988296
-988351
-988665
-988871
-988790
-988906
-989332
-989565
-989746
-989800
-989980
-990216
-990400
-990506
-990593
-990718
-991036
-991253
-991366
-991442
-991571
-991814
-992057
-992214
-992330
-992347
-992674
-992820
-993030
-993162
-993248
-993433
-993613
-993731
-993910
-993952
-994275
-994595
-994786
-995008
-995092
-995235
-995440
-995564
-995536
-995716
-995914
-995951
-996128
-996217
-996092
-996241
-996405
-996390
-996531
-996579
-996820
-997058
-997298
-997407
-997464
-997680
-997800
-997918
-998096
-998263
-998461
-998860
-999070
-999236
-999130
-998965
-998843
-998928
-998986
-999048
-999241
-999405
-999545
-999630
-999653
-999825
-999868
-999945
-1000030
-1000941
-1000628
-1000535
-1000690
-1000823
-1000832
-1001095
-1001235
-1001325
-1001322
-1001267
-1001625
-1001684
-1001851
-1001801
-1001911
-1001948
-1002206
-1002223
-1002177
-1002316
-1002516
-1002734
-1002974
-1003114
-1003102
-1003315
-1003420
-1003503
-1003646
-1003524
-1003721
-1003848
-1003921
-1003971
-1004057
-1004301
-1004298
-1004452
-1004580
-1004644
-1004791
-1005052
-1005158
-1005409
-1005334
-1005314
-1005598
-1005751
-1005807
-1005784
-1006080
-1006125
-1006306
-1006484
-1006392
-1006708
-1006917
-1006963
-1007077
-1007082
-1007270
-1007538
-1007576
-1007782
-1007869
-1008620
-1008821
-1009061
-1009419
-1009683
-1009575
-1009776
-1009822
-1009985
-1010217
-1010215
-1010543
-1010754
-1010860
-1011087
-1011004
-1011204
-1011318
-1011537
-1011656
-1011631
-1011846
-1012171
-1012515
-1012882
-1013148
-1013389
-1013646
-1014008
-1014109
-1014093
-1014394
-1014850
-1015101
-1015586
-1015612
-1015887
-1016160
-1016202
-1016434
-1016538
-1016940
-1017256
-1017523
-1017680
-1017942
-1018233
-1018367
-1018524
-1018727
-1018669
-1018718
-1018791
-1018776
-1018551
-1018094
-1017644
-1016921
-1016081
-1014748
-1013673
-1012346
-1010977
-1009542
-1007957
-1006143
-1004372
-1002435
-1000609
-998593
-996526
-994584
-992672
-990604
-988672
-986543
-984468
-982533
-980673
-978681
-976862
-975094
-973395
-971821
-970200
-968473
-967022
-965706
-964438
-963220
-962075
-961141
-960308
-959405
-958636
-957777
-957150
-956571
-956043
-955368
-954454
-953960
-953706
-953471
-953309
-952984
-952944
-952993
-952924
-953053
-953077
-953351
-953726
-954121
-954530
-954904
-955298
-955964
-956516
-957014
-957393
-957953
-958735
-959335
-960111
-960618
-961252
-962020
-962654
-963373
-963883
-964560
-965364
-965896
-966619
-967317
-968094
-968791
-969361
-970062
-970545
-971211
-971564
-972086
-972584
-972974
-973589
-974196
-974656
-975066
-975339
-975745
-976260
-976578
-976972
-977120
-977405
-977759
-977973
-978176
-978280
-978316
-978588
-978810
-979070
-979075
-979134
-979273
-979461
-979581
-979426
-979500
-979592
-979605
-979708
-979494
-979342
-979185
-979027
-978906
-978508
-978250
-978076
-977677
-977513
-977039
-976516
-976094
-975750
-975176
-974583
-974218
-973827
-973304
-973000
-972329
-971888
-971804
-971075
-970731
-970143
-969596
-969466
-969138
-968669
-968296
-967943
-967702
-967411
-967188
-966860
-966499
-966332
-966295
-966139
-965759
-965535
-965296
-965025
-964945
-964669
-964474
-964394
-964244
-964302
-964145
-963943
-963964
-963960
-964164
-963933
-963940
-964192
-964308
-964412
-964505
-964564
-964831
-964981
-965206
-965278
-965452
-965903
-966156
-966458
-966571
-966787
-967212
-967628
-967952
-968228
-968399
-968923
-969405
-969700
-969905
-970436
-970803
-971200
-971555
-971868
-972150
-972684
-972987
-973406
-973648
-973921
-974270
-974706
-975044
-975229
-975488
-975877
-976123
-976422
-976679
-976920
-977147
-977440
-977639
-977741
-977955
-978314
-978621
-978952
-979372
-979686
-979959
-980114
-980383
-980321
-980624
-980917
-981199
-981579
-981739
-981798
-982035
-982301
-982585
-982672
-982768
-983124
-983328
-983581
-983631
-983735
-984101
-984190
-984286
-984479
-984563
-984886
-985121
-985165
-985206
-985378
-985685
-985797
-985923
-985992
-986139
-986471
-986624
-986822
-986921
-987114
-987140
-987277
-987274
-987383
-987637
-987910
-987999
-988115
-988289
-988494
-988543
-988507
-988541
-988870
-989107
-989377
-989398
-989591
-989745
-989934
-990141
-990130
-990197
-990479
-990602
-990722
-990727
-990888
-991072
-991251
-991372
-991505
-991555
-991824
-991450
-992161
-992250
-992318
-992532
-992772
-992826
-992993
-993262
-993376
-993532
-993492
-993593
-993762
-993818
-993902
-993883
-993904
-994096
-994199
-994281
-994212
-994116
-994355
-994324
-994339
-994399
-994328
-994532
-994553
-994678
-994613
-994497
-994579
-994652
-994823
-994989
-995174
-995507
-995650
-995790
-995913
-996077
-996225
-996321
-996468
-996547
-996656
-996802
-997116
-997210
-997251
-997356
-997505
-997574
-997442
-997743
-997729
-998164
-998304
-998520
-998420
-998515
-998700
-998819
-998962
-999199
-999154
-999528
-999680
-999841
-1000031
-1000111
-1000310
-1001181
-1000830
-1000846
-1000901
-1001159
-1001368
-1001539
-1001633
-1001679
-1001992
-1002205
-1002135
-1002885
-1002596
-1002920
-1003113
-1003225
-1003414
-1003385
-1003655
-1003801
-1004011
-1004231
-1004310
-1004723
-1004822
-1005034
-1005196
-1005282
-1005609
-1005936
-1006135
-1006288
-1006319
-1006628
-1006872
-1007081
-1007560
-1007453
-1007633
-1007785
-1008078
-1008274
-1008442
-1008815
-1008936
-1009097
-1009290
-1009417
-1009777
-1009960
-1010193
-1010290
-1010549
-1010789
-1011150
-1011292
-1011622
-1011599
-1011870
-1012082
-1012440
-1012531
-1012666
-1012990
-1013287
-1013503
-1013696
-1013756
-1014155
-1014369
-1014529
-1014579
-1014864
-1015223
-1015359
-1015430
-1015605
-1015587
-1015680
-1015733
-1015563
-1015440
-1015133
-1014829
-1014160
-1013184
-1012367
-1011148
-1010072
-1008725
-1007173
-1005398
-1003799
-1002037
-1000091
-998060
-997236
-994648
-992690
-990683
-988632
-986657
-984584
-982697
-980828
-978837
-976911
-975003
-973266
-971373
-969755
-968026
-966237
-964645
-963389
-962012
-960717
-959242
-953055
-952527
-951828
-951299
-950439
-950186
-949934
-949695
-949558
-949426
-949512
-949533
-949711
-949845
-949822
-950132
-950427
-950617
-950965
-951257
-951751
-952198
-952622
-953166
-953633
-954195
-954865
-955572
-956190
-956694
-957554
-958320
-959103
-960556
-960641
-961149
-961907
-962508
-963331
-963867
-964655
-965451
-966164
-966730
-967190
-967872
-968530
-969052
-969654
-970127
-970839
-971453
-972000
-972315
-972740
-973150
-973631
-974147
-974467
-973835
-974921
-975421
-975556
-975715
-975962
-976194
-976410
-976748
-976769
-976842
-977144
-977378
-977568
-977669
-977545
-977828
-977834
-977956
-977890
-977855
-977991
-977973
-977831
-977626
-977300
-977171
-976915
-976611
-976291
-975924
-975708
-975404
-975095
-974736
-974177
-973886
-973340
-972866
-972324
-971751
-971263
-970890
-970441
-970006
-969325
-968950
-968640
-968171
-967551
-967042
-966775
-966475
-966076
-965589
-964994
-964692
-964296
-963895
-963645
-963224
-962977
-962813
-962509
-962171
-961839
-961648
-961332
-961228
-961004
-960484
-960732
-960595
-960697
-960679
-960637
-960750
-960847
-960883
-961064
-960999
-961147
-961499
-961748
-962066
-962183
-962605
-962890
-963209
-963546
-963787
-964196
-964486
-964910
-965143
-965631
-966056
-966397
-966821
-967247
-967495
-967915
-968327
-968529
-968929
-969159
-969489
-969760
-970066
-970317
-970477
-970913
-971242
-971652
-972020
-972284
-972665
-973017
-973344
-973519
-973799
-974325
-974678
-974902
-975266
-975420
-975921
-976305
-976644
-976806
-977107
-977570
-977974
-978299
-978715
-978766
-979132
-979427
-979729
-979956
-979994
-980448
-980831
-980867
-981607
-981405
-981596
-981749
-981800
-982028
-982047
-982323
-982454
-982549
-982745
-982792
-982619
-983679
-983196
-983083
-983201
-983383
-983355
-983616
-983597
-983358
-983540
-983755
-983876
-984038
-984108
-984173
-984886
-985131
-985245
-985388
-985588
-985742
-985752
-985796
-985851
-986145
-986375
-986581
-986579
-986608
-986836
-986900
-986720
-987050
-987105
-987263
-987418
-987716
-987814
-987867
-988097
-988233
-988369
-988428
-988505
-988762
-988915
-989010
-989122
-989294
-989556
-989578
-989695
-989872
-989934
-990133
-990301
-990470
-990585
-990775
-990968
-991172
-991302
-991362
-991587
-991826
-992144
-992375
-992518
-992732
-992910
-993182
-993256
-993491
-993507
-993888
-994076
-994260
-994344
-994571
-994660
-994752
-994891
-994984
-995294
-995514
-995752
-995748
-995753
-995999
-996157
-996281
-996410
-996433
-996581
-996898
-997014
-997011
-997047
-997185
-997363
-997450
-997509
-997427
-997618
-997774
-997960
-997903
-997922
-997994
-998024
-998158
-998244
-998243
-998514
-998534
-998682
-998810
-998889
-999047
-999072
-999226
-999328
-999384
-999674
-999942
-1000105
-1000184
-1000312
-1000489
-1000568
-1000903
-1001008
-1001050
-1001282
-1001402
-1001559
-1001595
-1001551
-1001645
-1001577
-1001619
-1001798
-1001882
-1002013
-1002170
-1002254
-1002222
-1002469
-1002612
-1002705
-1002748
-1002669
-1002875
-1003025
-1003110
-1003338
-1003246
-1003375
-1003654
-1003745
-1003838
-1003998
-1004350
-1004586
-1004812
-1005008
-1004957
-1005213
-1005497
-1005740
-1005906
-1006044
-1006359
-1006765
-1007042
-1007211
-1007372
-1007460
-1007843
-1008108
-1008245
-1008490
-1008808
-1009031
-1009283
-1009444
-1009733
-1010655
-1010449
-1010489
-1010665
-1010818
-1011123
-1011502
-1011741
-1011976
-1012057
-1012250
-1012484
-1012789
-1013048
-1012704
-1013213
-1013575
-1013641
-1013778
-1013674
-1013914
-1013833
-1013809
-1013474
-1013026
-1012640
-1012070
-1011188
-1010312
-1009127
-1007815
-1006350
-1004944
-1003255
-1001046
-999476
-997753
-995824
-993852
-991844
-990097
-988041
-986101
-983900
-981798
-979873
-978105
-976207
-974069
-972064
-970143
-968099
-966435
-964692
-962814
-961488
-959835
-958231
-956824
-955262
-954145
-952929
-951798
-950679
-949761
-949098
-948474
-947867
-947252
-946742
-946420
-946206
-945970
-945674
-945592
-945540
-945677
-945734
-945787
-945896
-946252
-946514
-946686
-946730
-946845
-947097
-947552
-948013
-948652
-949253
-950425
-950561
-951141
-951463
-952061
-952737
-953484
-954233
-954927
-955579
-956370
-957201
-957855
-959197
-959476
-960149
-960801
-961547
-962139
-962712
-963430
-964151
-964760
-965356
-965900
-966512
-967173
-967718
-968253
-968593
-969118
-969692
-970191
-970528
-970761
-971302
-971655
-971887
-972216
-972417
-972722
-973029
-973213
-973331
-973476
-973538
-973818
-973849
-973984
-974039
-974245
-974288
-974196
-974210
-974206
-974134
-973945
-973845
-973654
-974175
-973284
-972759
-972308
-971831
-971656
-971228
-970744
-970337
-969753
-969345
-969642
-968670
-967896
-967389
-967022
-966526
-965989
-965371
-965592
-964570
-963903
-963342
-962959
-962291
-962060
-961549
-960911
-960595
-960034
-959816
-959445
-959076
-958680
-958300
-958185
-957989
-957762
-957429
-957243
-957090
-956913
-956848
-956689
-956516
-956553
-956606
-956633
-956448
-956346
-956552
-956546
-956416
-956593
-956692
-956899
-957106
-957416
-957542
-957686
-957967
-958287
-958542
-958773
-959091
-959499
-959908
-960115
-960405
-960695
-961114
-961463
-961899
-962232
-963326
-963215
-963482
-963777
-964162
-964379
-964882
-965319
-965654
-965906
-966228
-966622
-967117
-967567
-967725
-967730
-968404
-968789
-969156
-969501
-969743
-970259
-970634
-971017
-971794
-971602
-971832
-972227
-972402
-972785
-972975
-973347
-973650
-973862
-974057
-974187
-974494
-974611
-974671
-974689
-974780
-975140
-975579
-975895
-976095
-976142
-976436
-976577
-976774
-976744
-976935
-977073
-977330
-977398
-977416
-977565
-977643
-977824
-977874
-978081
-978165
-978495
-978613
-978839
-979617
-979367
-979401
-979614
-979911
-979996
-980169
-980361
-980702
-980879
-981088
-981186
-981339
-981514
-981544
-981726
-981642
-981830
-981886
-981898
-981956
-981983
-982278
-982412
-982549
-982538
-982609
-982820
-983064
-983220
-983326
-983405
-983491
-983647
-983807
-983774
-983792
-983939
-984136
-984393
-984361
-984356
-984403
-984575
-984580
-984685
-984899
-985045
-985079
-985210
-985292
-985472
-985638
-985723
-985757
-985851
-986100
-986310
-986539
-986762
-986799
-987009
-987061
-987462
-987905
-987956
-988114
-988175
-988267
-988278
-988422
-988414
-988741
-988778
-988862
-989049
-989127
-989148
-989268
-989444
-989360
-989423
-989534
-989669
-989714
-989710
-989732
-989881
-989956
-989907
-990001
-990025
-990077
-990322
-990463
-990548
-990572
-990743
-990871
-991012
-991105
-991188
-991541
-991699
-991757
-991871
-991851
-992174
-992281
-992322
-992484
-992639
-993709
-993348
-993316
-993491
-993521
-993731
-993850
-994197
-994204
-994266
-994634
-994883
-995189
-996132
-995637
-995720
-995892
-996046
-996276
-996228
-996493
-996793
-997086
-997193
-997238
-997510
-997886
-998156
-998245
-998441
-998717
-998939
-998937
-998795
-998787
-999061
-999320
-999582
-999807
-1000016
-1000235
-1000375
-1000610
-1000916
-1000933
-1001113
-1001353
-1001344
-1001438
-1001383
-1001377
-1001422
-1001067
-1000345
-999961
-999240
-998563
-997543
-996370
-994956
-993519
-992114
-990701
-988896
-987044
-985391
-983593
-981666
-979785
-977820
-976026
-974166
-972223
-970322
-968366
-966534
-964742
-962862
-961123
-959329
-957624
-956076
-954556
-953063
-951646
-950179
-948883
-947561
-946084
-945169
-944229
-943694
-942694
-941845
-941046
-940673
-940214
-940056
-939566
-939298
-939096
-939064
-938980
-938954
-938943
-939143
-939174
-939472
-939623
-939772
-940303
-940719
-941041
-941530
-941941
-942640
-943141
-943754
-944430
-945002
-945775
-946596
-947267
-947946
-948468
-949248
-949967
-950768
-951448
-952199
-952883
-953717
-954491
-955230
-955992
-956754
-957305
-958087
-958693
-959202
-959984
-960529
-961007
-961414
-962039
-962604
-963026
-963319
-963917
-964230
-964733
-965179
-965611
-965919
-966164
-966573
-966911
-967180
-967480
-967704
-967940
-968304
-968504
-968627
-968731
-968886
-969011
-969094
-969078
-969017
-969231
-969077
-969020
-968918
-968750
-968612
-968423
-968093
-967741
-967455
-967148
-966906
-966638
-966136
-965675
-965492
-965117
-964651
-964208
-963621
-963274
-963018
-962486
-961993
-961380
-961068
-960556
-960161
-959626
-959127
-958780
-958327
-957997
-957369
-956927
-956541
-956255
-955842
-955302
-954873
-954703
-954442
-954064
-953790
-953441
-953198
-953115
-952904
-952639
-952303
-952266
-952298
-952287
-952208
-951997
-952081
-952248
-952313
-952275
-952381
-952624
-952841
-952920
-952918
-953218
-953532
-953753
-953951
-954141
-954305
-954758
-955050
-955565
-955819
-955949
-956355
-956788
-957128
-957437
-957799
-958212
-958729
-959122
-959490
-959800
-960212
-960536
-961039
-961303
-961618
-962183
-962651
-963123
-963438
-963713
-964230
-964537
-964758
-965131
-965189
-965490
-965699
-966035
-966256
-966466
-966925
-967262
-967616
-967864
-968086
-968477
-968699
-968974
-969206
-969489
-969693
-970109
-970324
-970307
-970653
-970961
-971296
-971471
-971683
-971787
-972130
-972368
-972538
-972683
-972786
-973010
-973301
-973392
-973530
-973811
-973861
-974122
-974201
-974383
-974536
-974741
-974872
-975006
-975000
-975161
-975459
-975471
-975558
-975659
-975818
-976082
-976174
-976361
-976493
-976658
-976840
-977004
-977127
-977157
-977576
-977690
-977533
-977488
-977461
-977598
-977736
-977942
-978014
-978096
-978206
-978358
-978441
-978715
-978698
-978958
-979017
-979183
-979106
-979255
-979560
-979713
-979880
-980048
-980098
-980269
-980340
-980484
-980534
-980440
-980832
-980919
-981035
-981228
-981239
-981355
-982039
-981702
-981608
-981778
-982013
-982026
-982193
-982331
-982320
-982501
-982738
-982809
-982857
-982838
-982916
-982991
-983148
-983143
-983145
-983287
-983369
-983491
-983691
-983496
-983691
-983889
-983917
-984003
-983915
-984026
-984038
-984175
-984086
-984148
-984367
-984563
-984572
-984603
-984717
-984864
-984902
-985058
-985070
-985242
-985453
-985562
-985578
-985714
-985786
-985936
-986105
-986124
-986225
-986369
-986536
-986739
-986954
-987060
-987124
-987291
-987363
-987469
-987570
-987724
-988017
-988152
-988268
-988445
-988536
-988680
-988914
-989130
-989296
-989272
-989551
-989807
-989901
-989990
-990036
-990290
-990394
-990601
-990677
-990714
-990930
-991170
-991309
-991484
-991543
-991716
-991838
-992021
-992227
-992197
-992358
-992533
-992546
-992475
-992253
-992141
-991706
-991272
-990656
-989766
-988870
-987598
-986519
-985105
-983678
-982265
-980740
-979092
-977563
-975984
-974384
-972712
-971027
-969173
-967298
-965564
-963913
-962175
-960237
-958456
-956920
-955256
-953277
-951875
-950295
-948923
-947456
-946235
-944837
-943545
-942510
-941509
-940459
-939516
-938599
-938020
-937363
-936680
-936192
-935528
-935222
-934987
-934755
-934586
-934408
-934300
-934353
-934305
-934514
-934557
-934777
-935134
-936253
-936140
-936152
-936687
-937227
-937625
-938010
-938615
-939252
-939814
-940522
-941264
-941717
-942549
-943247
-943966
-944506
-945134
-945894
-946798
-947545
-948235
-948945
-949674
-950449
-951143
-951793
-952312
-953069
-953881
-954539
-955155
-955644
-956273
-956896
-957560
-958040
-958381
-959070
-959712
-960187
-960485
-960882
-961464
-961867
-962117
-962333
-962585
-963008
-963422
-963712
-963856
-964076
-964270
-964566
-964714
-964796
-964806
-965297
-965126
-965150
-965101
-964932
-964913
-964838
-964595
-964349
-964090
-963722
-963474
-963166
-962521
-962237
-961887
-961521
-960886
-960418
-959861
-959381
-958967
-958462
-957873
-957330
-957047
-956665
-956121
-955602
-955002
-954637
-954340
-953902
-953459
-953070
-953401
-952509
-952067
-951610
-951107
-950800
-950464
-950161
-949379
-949471
-949387
-949242
-948747
-948528
-948168
-948049
-947847
-947765
-947690
-947506
-947507
-947422
-947515
-947520
-947352
-947556
-947737
-947924
-947987
-948087
-948259
-948536
-948915
-948995
-949301
-949640
-949956
-950275
-950583
-950782
-951146
-951637
-952676
-952546
-952658
-953094
-953455
-953952
-954235
-954551
-955001
-955334
-955716
-955992
-956238
-956651
-956935
-957310
-957624
-957827
-958245
-958548
-958933
-959141
-959288
-959837
-960237
-960585
-960831
-961167
-961595
-961742
-962055
-962362
-962621
-962966
-963195
-963534
-963850
-964036
-964484
-964766
-964959
-965040
-965222
-965624
-965930
-966041
-966290
-966403
-966576
-966911
-967066
-967149
-967286
-967599
-967884
-968070
-968141
-968319
-968503
-968771
-968828
-968904
-968998
-969237
-969532
-969615
-969688
-969782
-969873
-969986
-970038
-970148
-970055
-970260
-970503
-970658
-970739
-970715
-970825
-971005
-971110
-971146
-971028
-971260
-971479
-971653
-971655
-971726
-971909
-972012
-972198
-972230
-972674
-972723
-972844
-972973
-972915
-972984
-973242
-973405
-973401
-973462
-973584
-973570
-973647
-973823
-973844
-973739
-973867
-974002
-974050
-974145
-974293
-974330
-974403
-974434
-974639
-974703
-974859
-974996
-975131
-975076
-975114
-975235
-975294
-975420
-975313
-975346
-975505
-975677
-976022
-976187
-976267
-976584
-976837
-976787
-976877
-976943
-977160
-977369
-977462
-977456
-977542
-977739
-977805
-977886
-977997
-978091
-978224
-978408
-978507
-978623
-978701
-978814
-978979
-979124
-979178
-979297
-979404
-979644
-979794
-979916
-979968
-980144
-980156
-980354
-980568
-980457
-980620
-980877
-981166
-981302
-981304
-981477
-981524
-981641
-981744
-981893
-982123
-982356
-982630
-982898
-983049
-983364
-983594
-983786
-983961
-984032
-984352
-984723
-985026
-985205
-985405
-985683
-985999
-986249
-986343
-986640
-986869
-987125
-987403
-987396
-987517
-987637
-987697
-987814
-987930
-987908
-987953
-987949
-987667
-987462
-986986
-986434
-985732
-984857
-983811
-982681
-981499
-980352
-979070
-977602
-975959
-974544
-972940
-971160
-969398
-967796
-966200
-964484
-962850
-960989
-959159
-957590
-955894
-954279
-952408
-950709
-949276
-947749
-946337
-944873
-943370
-941840
-940659
-939544
-938412
-937307
-936450
-935521
-934752
-933990
-933299
-932671
-932212
-931708
-931327
-930885
-930603
-930362
-930289
-930248
-930025
-930070
-930249
-930014
-930407
-930524
-930940
-931240
-931586
-931984
-932269
-932859
-933253
-933741
-934393
-934719
-935335
-936119
-936724
-937339
-938014
-938608
-939285
-939964
-940623
-941201
-941952
-942665
-943501
-944131
-944701
-945314
-945980
-946480
-947230
-947666
-948334
-948943
-949329
-949941
-950352
-950911
-951367
-951725
-952099
-952439
-952833
-953139
-953516
-953838
-954064
-954293
-954767
-954981
-955118
-955303
-955523
-955732
-956055
-956253
-956219
-956439
-956504
-956563
-956623
-956703
-956841
-956747
-956767
-956692
-956504
-956518
-956401
-956206
-956006
-955817
-955574
-955335
-955017
-954581
-954113
-953896
-953575
-953128
-952699
-952204
-951926
-951417
-951081
-950693
-950133
-949669
-949283
-948812
-948336
-947960
-947640
-947245
-946829
-946458
-946108
-945843
-945604
-945293
-944956
-944703
-944326
-944362
-944252
-944249
-943950
-943737
-943525
-943114
-942778
-942554
-942521
-942533
-942452
-942407
-942261
-942323
-942347
-942469
-942552
-942638
-942764
-942848
-943010
-943279
-943280
-943545
-943839
-944119
-944376
-944284
-944907
-945281
-945507
-945804
-946085
-946475
-946739
-947024
-947414
-947781
-948161
-948644
-949085
-949435
-949704
-950054
-950434
-950798
-951099
-951515
-951908
-952288
-952722
-953048
-953063
-953606
-954015
-954460
-954712
-955003
-955465
-955781
-956216
-956601
-956800
-957015
-957333
-957611
-957976
-958182
-958396
-958714
-958997
-959330
-959479
-959733
-960049
-960353
-960468
-960526
-960927
-961035
-961450
-961727
-961856
-961994
-962279
-962437
-962696
-962701
-962807
-963106
-963247
-963277
-963267
-963470
-963694
-963648
-963712
-963807
-963925
-964218
-964307
-964556
-964492
-964724
-964802
-965005
-965081
-965183
-965342
-965648
-965841
-966033
-966063
-966093
-966321
-966485
-966460
-966609
-966799
-966863
-966969
-967166
-967174
-967332
-967429
-967590
-967623
-967560
-967895
-968041
-968246
-968370
-968304
-968413
-968588
-968697
-968820
-968902
-968931
-969180
-969357
-969374
-969326
-969443
-969767
-969836
-969818
-969860
-970144
-970317
-970378
-970541
-970585
-970653
-970941
-970815
-971003
-971002
-971212
-971438
-971595
-971598
-971556
-971735
-971866
-971901
-971960
-972154
-972324
-972540
-972617
-972710
-972811
-972825
-973037
-973091
-973130
-973139
-973285
-973539
-973563
-973644
-973667
-973851
-973956
-974040
-973904
-973776
-973980
-974055
-974151
-974406
-974417
-974511
-974561
-974826
-974783
-974792
-975084
-975275
-975899
-975538
-975541
-975705
-975866
-975970
-976016
-976092
-976217
-976504
-976641
-976840
-977017
-977294
-977478
-977579
-977900
-977834
-978118
-978160
-978193
-978323
-978429
-978651
-978862
-979158
-979167
-979261
-979545
-979833
-980073
-980347
-980509
-980801
-980965
-981192
-981381
-981489
-981633
-981869
-982009
-982258
-982337
-982327
-982273
-982337
-982022
-981781
-981298
-981017
-980286
-979606
-978583
-977643
-976478
-975165
-973947
-972304
-970929
-969501
-968066
-966595
-964877
-963079
-961430
-959714
-957761
-955843
-953808
-952260
-950659
-949027
-947232
-945703
-944057
-942583
-941123
-939451
-938191
-936905
-935782
-934574
-933320
-932317
-931359
-930509
-929670
-928769
-928249
-927732
-927236
-926828
-926341
-926234
-925972
-925863
-925750
-925609
-925856
-926110
-926317
-926531
-926774
-927210
-927615
-927950
-928439
-928774
-929311
-930113
-930703
-931220
-931820
-932397
-933009
-933597
-934269
-934876
-935528
-936322
-937077
-937677
-938403
-939258
-939994
-940775
-941436
-942004
-942695
-943421
-944076
-944839
-945337
-945933
-946531
-947079
-947677
-948183
-948738
-949363
-949843
-950307
-950523
-950835
-951317
-951590
-951849
-951989
-952263
-952546
-952721
-952944
-953019
-953171
-953325
-953457
-953619
-953642
-953887
-953880
-954058
-954110
-954028
-954142
-954058
-953886
-953790
-953614
-953495
-953307
-953117
-952771
-952483
-952360
-952181
-951844
-951524
-951083
-950671
-950349
-949901
-949498
-948978
-948640
-948278
-947791
-947278
-946748
-946401
-946110
-945691
-945324
-944835
-944539
-944086
-943703
-943566
-943080
-942734
-942568
-942231
-942003
-941771
-941505
-941436
-941229
-941316
-941051
-941128
-941055
-940930
-940806
-940669
-940561
-940448
-940491
-940480
-940376
-940460
-940550
-940777
-940847
-940879
-941003
-941318
-941479
-941595
-941680
-941991
-942316
-942589
-942789
-942854
-943171
-943581
-945225
-945617
-945921
-946137
-946663
-946976
-947335
-947437
-947678
-948176
-948572
-948883
-949283
-949657
-949948
-950371
-950661
-950983
-951144
-951361
-951880
-952194
-952602
-952826
-953190
-953564
-953778
-953994
-954199
-954555
-954883
-954949
-955393
-955628
-955911
-956220
-956521
-956631
-956722
-957125
-957349
-957548
-957892
-957918
-958206
-958343
-958592
-958735
-958685
-958943
-959139
-959176
-959379
-959351
-959435
-959468
-959589
-959553
-959648
-959650
-959934
-960050
-960075
-960064
-960136
-960249
-960340
-960502
-960648
-960944
-961198
-961369
-961538
-961566
-961852
-961998
-962181
-962234
-962232
-962505
-962793
-963030
-962998
-963047
-963346
-963368
-963644
-963701
-963674
-963908
-964055
-964063
-964304
-964233
-964573
-964688
-964736
-964989
-964919
-965080
-965314
-965536
-965585
-965584
-965733
-965980
-966088
-966172
-966153
-966304
-966468
-966631
-966800
-966897
-967141
-967281
-967223
-967487
-967501
-967569
-967782
-967848
-968139
-968118
-968197
-968324
-968540
-968553
-968531
-968736
-969023
-969164
-969304
-969299
-969600
-969790
-969998
-970267
-970269
-970492
-970613
-970814
-971066
-970963
-971131
-971217
-971374
-971470
-971409
-971558
-971544
-971703
-971655
-971653
-971770
-971802
-971833
-971931
-971940
-972177
-972268
-972416
-972506
-972513
-972678
-972850
-972997
-972838
-972941
-973234
-973511
-973630
-973750
-973770
-974008
-974075
-974265
-974338
-974380
-974442
-974721
-974905
-975008
-975065
-975305
-975544
-975664
-975823
-975866
-976205
-976440
-976736
-976911
-977023
-977442
-977595
-977869
-978109
-978361
-978649
-978888
-979245
-979399
-979566
-979854
-979673
-979993
-980150
-980110
-980308
-980491
-980372
-980244
-979826
-979682
-979115
-978643
-978085
-977087
-976118
-975084
-974060
-972841
-971215
-969861
-968310
-966688
-965080
-963380
-961699
-960009
-958202
-956359
-954605
-952860
-950942
-949162
-947397
-945307
-943744
-942233
-940530
-938944
-937289
-935817
-934534
-933480
-932438
-931198
-930138
-929299
-928448
-927665
-926730
-926038
-925465
-924949
-924633
-924213
-924000
-923925
-923808
-923669
-923631
-923717
-923875
-924114
-924273
-924457
-924704
-925296
-925738
-926210
-926502
-927077
-927617
-928160
-928770
-929232
-929974
-930739
-931281
-932071
-932700
-933445
-934151
-934638
-935396
-936007
-936760
-937470
-938181
-938780
-939241
-939556
-940358
-941011
-941716
-942195
-942742
-943392
-943863
-944597
-944858
-945383
-945840
-946277
-946654
-946929
-947449
-947861
-948069
-948515
-948677
-949084
-949316
-949404
-949465
-949469
-949565
-949821
-949893
-950028
-950165
-950022
-950218
-950262
-950193
-950139
-950009
-950036
-950111
-949982
-949685
-949594
-949444
-949128
-948898
-948440
-948237
-947993
-947662
-947425
-946990
-946585
-946287
-945945
-945537
-945131
-944666
-944419
-944007
-943540
-943084
-942716
-942245
-941899
-941455
-940884
-940674
-940378
-939973
-939594
-939104
-938819
-938587
-938314
-937746
-937633
-937408
-937253
-936817
-936891
-936660
-936535
-936486
-936387
-936228
-936114
-936027
-936178
-936172
-936266
-936086
-936137
-936253
-936368
-936573
-936532
-936818
-937101
-937324
-937474
-937528
-937913
-938083
-938323
-938599
-938765
-939100
-939458
-939786
-940149
-940386
-940677
-941000
-941374
-941827
-941996
-942405
-942759
-943092
-943467
-943743
-944197
-944491
-944853
-945226
-945477
-945827
-946373
-946654
-946861
-947080
-947475
-947835
-948303
-948526
-948600
-949014
-949394
-949704
-949976
-950171
-950487
-950776
-950927
-951257
-951364
-951619
-951841
-952031
-952225
-952287
-952606
-952811
-952981
-953240
-953164
-953382
-953626
-953795
-953909
-953709
-954080
-954324
-954514
-954747
-954701
-954922
-955083
-955268
-955403
-955418
-955582
-955650
-955758
-955832
-955861
-955975
-956257
-956371
-956397
-956440
-956562
-956718
-956815
-956900
-956788
-956976
-957202
-957244
-957369
-957572
-957771
-958054
-957912
-958306
-958386
-958444
-958620
-958772
-958974
-959041
-959283
-959363
-959550
-959786
-959741
-959877
-960266
-960425
-960726
-960718
-960961
-961137
-961301
-961349
-961301
-961580
-961729
-961817
-961940
-961850
-961983
-962074
-962203
-962314
-962296
-962359
-962379
-962497
-962688
-962611
-962669
-962963
-962944
-963056
-963033
-963230
-963370
-963548
-963629
-963615
-963784
-963912
-963922
-963984
-963967
-964123
-964351
-964572
-964696
-964717
-965025
-965040
-965270
-965477
-965598
-965711
-965993
-966165
-966274
-966324
-966514
-966755
-966852
-967085
-967068
-967210
-967471
-967582
-967682
-967580
-967747
-967963
-967957
-968010
-968156
-968158
-968448
-968486
-968582
-968633
-968721
-968788
-968887
-968915
-969002
-969191
-969310
-969437
-969505
-969576
-969775
-969941
-970054
-970203
-970384
-970587
-970751
-971006
-971193
-971108
-971378
-971530
-971710
-971887
-972001
-972200
-972658
-972734
-972951
-973191
-973425
-973560
-973663
-973576
-973710
-973866
-974175
-974293
-974162
-974459
-974718
-974917
-975176
-975313
-975252
-975477
-975641
-975961
-976119
-976105
-976338
-976611
-976860
-977119
-977206
-977377
-977754
-978061
-978290
-978349
-978565
-978720
-978883
-979013
-979025
-979135
-979405
-979333
-979447
-979167
-979016
-978754
-978341
-977579
-976755
-975858
-974942
-973809
-972586
-970943
-969539
-968027
-966270
-964491
-962683
-960960
-959141
-957283
-955365
-953384
-951651
-949901
-947971
-946014
-944192
-942494
-940878
-939231
-937627
-935874
-934390
-933040
-931709
-930373
-928971
-927836
-926586
-925765
-925014
-923926
-923201
-922648
-922062
-921462
-921102
-920804
-920559
-920379
-920202
-920031
-919973
-920130
-920329
-920392
-920513
-920854
-921449
-921883
-922394
-922809
-923360
-923972
-924638
-925074
-925658
-926415
-927084
-927878
-928356
-929087
-929769
-930658
-931263
-932099
-932411
-933186
-934055
-934905
-935493
-936033
-936668
-937281
-937926
-938492
-938944
-939640
-940256
-940675
-941146
-941616
-942056
-942167
-942670
-942936
-943102
-943404
-943761
-943738
-944107
-944151
-944531
-944651
-944482
-944779
-944789
-945583
-945370
-945639
-945669
-945732
-945692
-945677
-945767
-945748
-945784
-945640
-945544
-945371
-945235
-944925
-944728
-944612
-944452
-944184
-944028
-943663
-943411
-943137
-942876
-942642
-942212
-941871
-941711
-941367
-940953
-940568
-940322
-940149
-939792
-939444
-939213
-938674
-938655
-938417
-938192
-937848
-937641
-937411
-937351
-937191
-936788
-936654
-936652
-936536
-936319
-936100
-936088
-936015
-935982
-936042
-935989
-936170
-936311
-936504
-936632
-936717
-936915
-937275
-937413
-937775
-937728
-937772
-937934
-938035
-938250
-938289
-939329
-939003
-939020
-939114
-939293
-939633
-939980
-940308
-940748
-940912
-941238
-941600
-941820
-942020
-942345
-942768
-943047
-943393
-943806
-944037
-944529
-944872
-944841
-945444
-945724
-946163
-946456
-946888
-947243
-947322
-947767
-948051
-948376
-948647
-948802
-949045
-949482
-949713
-949994
-950132
-950342
-950618
-950939
-951109
-951270
-952183
-952015
-952082
-952334
-952369
-952721
-952920
-953182
-953329
-953154
-953565
-953924
-954300
-954704
-954818
-955233
-955436
-955661
-955875
-955939
-956207
-956499
-956734
-956953
-956997
-957259
-957464
-957386
-957695
-957851
-958123
-958296
-958532
-958669
-958691
-958910
-959063
-959251
-959486
-959432
-960339
-959972
-960162
-960155
-960075
-960386
-960409
-960605
-960622
-960691
-960826
-961003
-961073
-961212
-961367
-961578
-961656
-961807
-961886
-962122
-962332
-963195
-962775
-962745
-962843
-963088
-962829
-963270
-963481
-963267
-963658
-963954
-964214
-964346
-964036
-964344
-964469
-964735
-964734
-964784
-964919
-965086
-965166
-965282
-965296
-965576
-965554
-965773
-965910
-965898
-966011
-966289
-966374
-966603
-966739
-967022
-967392
-967559
-967597
-967733
-968008
-968021
-968294
-968446
-968489
-968718
-969828
-969372
-969310
-969428
-969623
-969757
-970005
-970141
-970132
-970345
-970459
-970611
-970928
-970858
-970965
-971227
-971417
-971678
-971616
-971854
-972050
-972221
-972498
-972467
-972668
-972992
-973148
-973421
-973365
-973609
-973727
-973923
-974089
-974095
-974200
-974492
-974695
-974890
-974844
-974996
-975264
-975302
-975346
-975426
-975624
-975836
-975998
-976242
-976155
-976407
-976725
-976848
-976985
-977128
-977482
-977763
-978024
-978185
-978341
-978667
-978858
-979142
-979328
-979190
-979703
-980131
-980331
-980523
-980692
-981012
-981230
-981455
-981607
-981812
-982040
-982330
-982553
-982758
-982821
-983039
-983237
-983415
-983693
-983857
-984013
-984268
-984409
-984667
-984688
-984926
-985281
-985414
-985440
-985503
-985755
-985975
-986261
-986465
-986508
-986844
-987032
-987212
-987358
-987305
-987452
-987745
-987860
-988134
-988225
-988415
-988527
-988696
-988824
-988994
-989224
-989362
-989694
-989728
-989769
-990043
-990344
-990491
-990732
-990800
-991128
-991472
-991655
-991954
-991989
-992246
-992633
-992847
-993020
-993024
-993296
-993475
-993533
-993621
-993672
-993443
-994322
-994013
-994002
-993840
-993765
-993529
-993197
-992658
-992101
-991476
-990435
-989546
-988380
-987024
-985697
-984336
-982818
-981270
-979506
-977856
-976139
-974367
-972634
-970697
-968972
-967217
-965490
-963642
-961632
-959801
-958179
-956446
-954681
-953068
-951573
-950070
-948658
-947281
-945804
-944551
-943500
-942411
-941396
-940184
-939422
-938718
-937990
-937386
-936675
-936103
-935829
-935563
-935192
-934973
-934833
-934965
-935082
-935159
-935114
-935383
-935694
-936048
-936144
-936512
-937060
-937649
-938048
-938596
-939054
-939778
-940402
-941086
-941658
-942150
-943095
-943744
-944452
-945132
-945788
-946456
-947118
-947780
-948285
-948804
-949452
-950201
-950731
-951327
-951822
-952536
-953019
-953589
-954241
-954685
-955236
-955682
-956002
-956367
-956606
-957067
-957365
-957745
-958061
-958223
-958413
-958664
-958960
-958985
-959236
-959300
-959534
-959408
-959345
-959472
-959538
-959733
-959625
-959570
-959665
-959759
-959908
-960131
-960055
-959975
-960007
-959946
-959728
-959505
-959480
-959336
-959186
-958781
-958460
-958215
-958099
-957750
-957470
-957035
-956837
-956445
-956101
-955885
-955432
-955024
-954783
-954553
-954306
-953930
-953689
-953408
-953185
-952811
-952367
-952179
-952019
-951816
-951507
-951163
-950984
-950709
-950572
-950152
-950025
-949799
-949592
-949586
-949448
-949286
-949179
-949182
-949442
-949585
-949338
-949389
-949429
-949511
-949417
-949589
-949845
-950531
-950296
-950460
-950446
-950588
-950979
-951226
-951483
-951588
-951841
-952048
-952369
-952549
-952780
-953197
-953455
-953827
-954092
-954366
-954657
-955022
-955471
-955747
-956058
-956487
-956865
-957225
-957506
-957852
-958244
-958694
-958937
-959292
-959603
-959975
-960459
-960784
-961239
-961326
-961685
-962039
-962366
-962692
-962854
-963192
-963571
-963866
-964335
-965025
-965017
-964789
-965213
-965515
-965631
-965965
-966253
-966561
-966786
-966977
-967242
-967412
-967691
-967723
-967686
-967935
-968372
-968711
-968919
-969179
-969407
-969505
-969655
-969840
-969954
-970203
-970472
-970537
-970875
-970841
-971119
-971189
-971330
-971586
-971343
-971626
-971892
-972022
-971918
-972267
-972470
-972640
-972754
-972827
-973034
-973367
-973586
-973890
-974130
-974058
-974381
-974397
-974550
-974716
-974848
-975009
-975263
-975416
-975674
-975714
-975936
-976048
-976155
-976435
-976476
-976701
-977095
-977290
-977488
-977544
-977802
-977871
-977938
-978115
-978127
-978275
-978419
-978574
-978723
-978662
-978752
-978955
-979503
-979050
-978918
-978990
-979063
-979229
-979389
-979228
-979450
-979610
-979717
-979809
-979798
-979875
-980071
-980210
-980501
-980434
-980660
-981352
-981054
-981066
-981026
-981198
-981412
-981470
-981619
-981549
-981674
-981753
-981989
-982161
-981993
-982267
-982306
-982382
-982633
-982626
-982784
-982862
-982970
-983083
-983059
-983294
-983533
-983676
-983849
-983924
-984120
-984309
-984370
-984667
-984680
-984849
-985195
-985339
-985510
-985538
-985787
-985970
-986043
-986208
-986260
-986401
-986564
-986773
-986811
-986881
-987058
-987123
-987248
-988004
-987933
-988328
-988424
-988684
-988672
-988767
-989055
-989269
-989429
-989578
-989680
-989877
-990199
-990364
-990537
-990705
-991014
-991168
-991434
-991592
-991474
-991821
-992009
-992334
-992613
-992619
-992887
-992996
-993280
-993342
-993451
-993893
-994036
-994217
-994442
-994636
-994731
-995080
-995253
-995464
-995646
-995906
-996766
-996611
-996796
-996766
-997031
-997252
-997623
-997895
-997869
-998147
-998413
-998740
-999061
-999229
-999401
-999586
-999528
-999938
-999996
-1000295
-1000423
-1000691
-1000743
-1000562
-1000707
-1000497
-1000159
-999790
-999218
-998610
-998011
-997081
-996136
-995065
-993775
-992617
-991266
-989849
-988381
-986909
-985493
-984040
-982586
-980890
-979304
-977831
-976309
-974528
-973130
-971618
-970212
-968834
-967331
-965813
-964282
-963015
-962517
-961017
-960263
-958816
-957796
-956989
-956122
-955242
-954631
-954008
-953503
-952874
-952309
-952021
-951732
-951497
-951239
-950953
-950978
-950954
-950916
-950833
-950759
-950894
-951134
-951411
-951750
-951817
-952166
-952525
-952897
-953273
-953615
-954170
-954606
-955255
-955750
-956200
-956830
-957211
-957782
-958435
-958934
-959571
-960175
-960783
-961310
-961913
-962463
-963176
-963985
-964539
-965151
-965815
-966424
-966894
-967369
-967793
-968337
-968680
-969185
-969457
-969726
-970105
-970527
-970836
-971293
-971381
-971697
-971902
-972059
-972196
-972303
-972566
-972848
-973065
-973310
-973294
-973584
-973657
-973821
-973919
-973930
-974090
-974280
-974310
-974265
-974046
-974113
-973817
-973876
-973767
-973561
-973524
-973275
-973203
-972985
-972458
-972268
-972052
-971788
-971393
-970961
-970853
-970540
-970239
-969917
-969482
-969227
-968879
-968651
-968396
-968058
-967830
-967512
-967313
-966959
-966559
-966357
-965985
-965637
-965254
-964946
-964754
-964457
-964313
-964143
-963879
-963728
-963699
-963502
-963284
-963138
-963172
-963372
-963448
-963274
-963305
-963345
-963353
-963382
-963439
-964321
-964706
-964942
-965066
-965400
-965490
-965783
-966143
-966302
-966671
-966719
-967090
-967329
-967591
-967981
-968099
-968542
-968872
-969091
-969397
-969725
-970056
-970388
-970587
-970724
-971016
-971494
-971877
-972289
-972660
-972828
-973351
-973584
-973896
-974137
-974432
-974980
-975324
-975660
-975957
-976079
-976279
-976652
-976952
-977180
-977257
-977625
-977927
-978075
-978388
-978418
-978756
-978945
-979005
-979095
-979236
-979533
-979905
-980121
-980349
-980326
-980759
-980987
-981062
-981241
-981592
-981691
-982010
-982144
-982198
-982547
-982676
-982819
-982865
-983105
-983411
-983528
-983722
-983859
-983886
-984158
-984290
-984429
-984546
-984647
-984800
-985023
-985178
-985461
-985588
-985674
-985835
-986005
-986078
-986230
-986325
-986544
-986671
-986630
-986910
-987139
-987224
-987377
-987289
-987250
-987537
-987655
-987541
-987671
-987600
-987842
-987944
-988062
-988047
-988134
-988365
-988477
-988661
-988848
-988726
-988928
-989183
-989262
-989338
-989489
-989733
-989933
-990145
-990260
-990292
-990504
-990761
-990704
-990807
-990791
-991071
-991180
-991253
-991291
-991485
-991691
-991727
-991775
-991895
-991971
-992126
-992214
-992463
-992586
-992656
-992750
-992873
-993014
-993072
-993096
-993439
-993625
-993710
-993933
-993968
-994229
-994419
-994614
-994676
-994827
-994861
-995119
-996168
-995886
-995719
-995883
-995945
-996136
-996308
-996331
-996504
-996661
-996746
-996769
-996861
-997047
-997227
-997293
-997317
-997210
-997509
-997497
-997667
-997729
-997647
-997855
-997860
-998110
-998094
-998173
-998404
-998437
-998540
-998659
-998578
-998713
-998879
-999029
-999532
-999186
-999336
-999507
-999601
-999798
-999805
-999964
-1000228
-1000306
-1000440
-1000653
-1000933
-1001171
-1001099
-1001412
-1001539
-1001969
-1002083
-1002274
-1002613
-1002652
-1002992
-1003330
-1003408
-1003656
-1003740
-1003994
-1004171
-1004471
-1004547
-1004631
-1004888
-1005151
-1005290
-1005356
-1005314
-1005319
-1005322
-1005055
-1004827
-1004404
-1003896
-1003328
-1002653
-1001807
-1000772
-999664
-998700
-997423
-996121
-994720
-993460
-992119
-990740
-989308
-987723
-986442
-984933
-983536
-982114
-980568
-979266
-978078
-976753
-975446
-973712
-972692
-971466
-970354
-969142
-968073
-967081
-966177
-965375
-964458
-963634
-962954
-962376
-961576
-960898
-960116
-959583
-959332
-959132
-958712
-958520
-958574
-958444
-958452
-958316
-958671
-958596
-958747
-958938
-959169
-959329
-959765
-960041
-960363
-960422
-960855
-961396
-961728
-962366
-962825
-963233
-963949
-964446
-964954
-965455
-966034
-966690
-967379
-968054
-968549
-968949
-969445
-970073
-970668
-970986
-971391
-971941
-972547
-972967
-973327
-973563
-974120
-974515
-974901
-975273
-975518
-975809
-976206
-976455
-976884
-976877
-977222
-977591
-977771
-977830
-978040
-978299
-978617
-978765
-979009
-979065
-979353
-979423
-979551
-979631
-979682
-979871
-980038
-980152
-980252
-980118
-980294
-980340
-980244
-980170
-979895
-979751
-979722
-979498
-979333
-978962
-978802
-978608
-978310
-977999
-977528
-977367
-977021
-976675
-976300
-975906
-975730
-975402
-975033
-974573
-974188
-973846
-973460
-973276
-972925
-972533
-972347
-972030
-971646
-971366
-970899
-970679
-970398
-969948
-969631
-969308
-969117
-968879
-968851
-968682
-968396
-968322
-968299
-968213
-968052
-968008
-968116
-968045
-968101
-968069
-968094
-968222
-968426
-968510
-968595
-968726
-968936
-969070
-969296
-969355
-969597
-969867
-970140
-970379
-970617
-970768
-971251
-971504
-971762
-972123
-972285
-972547
-973013
-973242
-973535
-973846
-974223
-974539
-974805
-975099
-975379
-975828
-976043
-976490
-976762
-976959
-977404
-977618
-977972
-978162
-978468
-978923
-979193
-979578
-979788
-980042
-980521
-980781
-981189
-981445
-981619
-982855
-982570
-982600
-982766
-982659
-982814
-982983
-983154
-983434
-983665
-984014
-984130
-984405
-984592
-984752
-984898
-985048
-985185
-985422
-985394
-985761
-985959
-986138
-986376
-986470
-986613
-986818
-987062
-987164
-987085
-987447
-987701
-987824
-987862
-987840
-987994
-988106
-988211
-988403
-988277
-988424
-988735
-988802
-988967
-988988
-989018
-989133
-989198
-989327
-989429
-989574
-989732
-989769
-989850
-990007
-990233
-990370
-990451
-990558
-990452
-990654
-990878
-990991
-991000
-991013
-991106
-991268
-991434
-991491
-991726
-991906
-991992
-992235
-992207
-992349
-992475
-992543
-992687
-992730
-992890
-993162
-993221
-993379
-993761
-993501
-993598
-993807
-993812
-993859
-994036
-994303
-994450
-994570
-994590
-994857
-994905
-995058
-995098
-995067
-995227
-995456
-995656
-995726
-995878
-996025
-996134
-996125
-996342
-996412
-996581
-996707
-996874
-996951
-996996
-997128
-997203
-997382
-997364
-997383
-997716
-997903
-997968
-997977
-997926
-998163
-998275
-998305
-998484
-998567
-998569
-998790
-998951
-999096
-999237
-999389
-999577
-999834
-999957
-1000011
-1000301
-1000405
-1000639
-1000590
-1000668
-1000860
-1000947
-1000870
-1000937
-1000869
-1001009
-1001204
-1001217
-1001323
-1001336
-1001589
-1001872
-1001954
-1001856
-1001827
-1001951
-1001849
-1001611
-1001315
-1000727
-1000398
-999748
-999055
-998092
-997130
-996297
-995264
-994056
-992978
-991529
-990406
-989036
-987830
-986410
-985075
-983792
-982680
-981374
-979923
-978673
-977455
-976201
-974871
-973651
-972195
-971118
-970020
-969050
-967940
-966441
-965680
-964785
-964008
-963201
-962457
-961902
-961236
-960755
-960315
-959833
-959446
-959249
-958905
-958669
-958506
-958434
-958532
-958618
-958751
-958649
-958959
-959234
-959316
-959581
-959882
-960345
-960806
-961168
-961606
-962105
-962603
-963161
-963661
-964317
-964676
-965296
-965896
-966629
-967239
-967622
-968135
-968662
-969276
-969684
-970129
-970682
-971104
-971523
-971962
-972372
-972708
-973198
-973578
-973826
-974074
-974562
-975178
-975761
-976130
-976536
-976841
-977105
-977412
-977676
-977679
-978031
-978865
-978796
-978836
-978870
-979098
-979402
-979477
-979687
-979674
-979911
-980206
-980210
-980322
-980223
-980310
-980367
-980255
-980201
-980056
-979994
-979829
-979790
-979745
-979613
-979603
-979387
-979012
-978745
-978406
-978132
-978018
-977805
-977395
-977022
-976711
-976475
-976109
-975843
-975391
-975125
-974927
-974658
-974327
-973832
-973685
-973345
-973048
-972603
-972189
-972125
-971950
-971564
-971308
-970638
-970645
-970592
-970387
-970072
-969783
-969759
-969556
-969368
-969117
-969068
-968921
-968949
-968889
-968832
-968727
-968736
-968764
-968939
-968934
-969157
-969265
-969586
-969674
-969901
-970074
-970073
-970370
-970696
-970913
-971032
-971261
-971699
-972098
-972428
-972713
-973030
-973336
-973720
-974053
-974363
-974725
-975133
-975648
-975950
-976167
-976453
-976723
-976840
-977085
-977552
-977648
-977879
-978315
-978555
-978824
-978920
-979316
-979605
-979768
-979982
-980266
-980587
-980979
-981151
-981386
-981643
-981885
-982117
-982279
-982572
-982735
-983079
-983408
-983655
-983682
-983756
-984235
-984204
-984509
-984647
-984805
-985092
-985472
-985587
-985812
-985824
-985776
-986200
-986385
-986481
-986674
-986887
-987168
-987266
-987434
-987447
-987748
-987812
-988009
-988116
-988123
-988251
-988437
-988644
-988670
-988648
-989429
-989099
-989088
-989144
-989151
-989263
-989489
-989665
-989768
-989735
-989804
-989802
-989882
-989971
-989986
-990102
-990174
-990382
-991044
-990618
-990672
-990774
-990931
-990770
-990894
-991150
-991285
-991300
-991384
-991323
-991392
-991499
-991561
-991669
-991800
-992039
-992136
-992190
-992281
-992249
-992474
-992633
-992753
-992719
-992815
-992909
-993169
-993252
-993383
-993336
-993595
-993706
-993835
-993954
-994450
-994344
-994335
-994402
-994528
-994512
-994726
-994850
-994935
-995013
-995017
-995043
-995200
-995454
-995662
-995604
-995857
-995980
-996138
-996238
-996264
-996465
-996778
-996923
-996991
-997192
-997450
-997602
-998163
-997929
-997852
-998162
-998277
-998392
-998432
-998387
-998679
-999271
-999068
-998894
-998828
-998846
-998914
-998723
-998524
-998150
-997989
-997695
-997175
-996620
-995796
-995038
-994146
-993274
-992257
-991051
-990117
-988978
-987630
-986337
-984956
-983691
-982463
-981141
-979667
-978120
-976894
-975490
-974126
-972662
-971274
-969843
-968622
-967465
-966210
-964797
-963734
-962739
-961630
-960390
-959664
-958974
-958434
-957736
-957134
-956446
-955982
-955357
-955075
-954629
-954233
-953998
-953989
-953823
-953856
-953644
-953863
-953979
-953956
-954138
-954269
-954467
-954743
-955094
-955526
-955708
-956320
-956797
-957112
-957522
-957929
-958498
-959239
-959897
-960400
-960808
-961562
-962030
-962678
-963225
-963709
-964245
-964835
-965496
-965926
-966285
-967030
-967519
-967989
-968440
-969023
-969672
-970316
-970668
-971051
-971476
-971829
-972315
-972693
-972913
-973204
-973112
-973722
-973965
-974112
-974212
-974644
-974744
-974898
-975003
-975776
-975450
-975592
-975762
-975914
-975772
-975899
-975989
-976114
-976044
-976155
-976322
-976401
-976406
-976388
-976177
-976122
-975989
-975890
-975611
-975363
-975100
-974963
-974842
-974560
-974050
-973937
-973677
-973227
-972886
-972499
-972223
-971758
-971620
-971180
-970734
-970541
-970296
-969639
-969495
-969106
-968753
-968462
-968275
-968690
-967817
-967543
-967034
-966958
-966677
-966564
-966343
-966394
-966158
-966076
-965973
-965936
-965832
-965842
-965625
-965528
-965628
-965658
-965588
-965735
-965658
-965709
-965496
-965577
-965585
-965682
-965743
-965940
-966121
-966178
-966223
-966394
-966634
-966795
-966875
-967145
-967376
-967657
-967919
-968253
-968296
-968666
-968938
-969139
-969577
-969572
-969912
-970197
-970600
-970962
-971041
-971473
-971709
-972098
-972363
-972620
-972950
-973248
-973576
-974013
-974100
-974588
-974876
-975323
-975580
-975770
-976096
-976449
-976710
-977097
-977149
-977541
-977819
-978051
-978326
-978417
-978551
-978799
-979117
-979273
-979297
-979612
-979790
-979885
-980071
-980146
-980451
-980604
-980797
-980814
-981018
-981182
-981292
-981395
-981510
-981637
-981918
-982003
-982152
-982138
-982350
-982442
-982588
-982641
-982772
-982760
-982946
-983111
-983209
-983252
-983306
-983468
-983666
-983739
-983633
-983551
-983900
-984046
-984158
-984153
-984114
-984337
-984586
-984634
-984678
-984854
-985008
-985166
-985295
-985543
-985637
-986546
-986082
-986106
-986096
-986156
-986300
-986473
-986483
-986567
-985815
-986463
-986640
-986759
-986618
-986459
-986728
-986867
-987128
-987372
-987275
-987380
-987547
-987552
-987626
-987670
-987817
-987928
-988925
-988552
-988237
-988527
-988610
-988652
-988738
-988816
-988953
-989122
-989324
-990046
-989683
-989932
-989990
-990139
-990367
-990230
-990532
-990479
-990690
-990798
-990924
-991092
-991114
-991206
-991361
-991446
-991520
-991718
-991875
-991971
-991972
-992102
-992337
-992350
-992324
-992535
-992660
-992845
-992860
-993148
-993058
-993215
-994053
-993754
-993801
-993702
-993841
-994085
-994205
-994374
-994341
-994366
-994641
-994735
-994772
-994871
-995008
-995240
-995470
-995870
-995892
-996131
-996299
-996458
-996608
-996635
-996856
-997069
-997273
-997594
-997679
-997900
-998911
-998867
-998967
-999134
-999394
-999744
-1000193
-1000467
-1000583
-1000914
-1001212
-1001554
-1001868
-1001785
-1001942
-1002035
-1002133
-1002221
-1002120
-1001992
-1001751
-1001551
-1000890
-1000573
-999924
-999235
-998406
-997384
-996134
-995085
-993679
-992325
-990879
-989259
-987970
-986372
-984811
-983361
-981542
-979889
-978229
-976586
-975003
-973164
-971650
-970081
-968547
-966854
-965196
-963862
-962428
-960960
-959323
-958186
-957029
-956041
-954937
-953856
-952840
-952080
-951383
-950792
-950037
-949449
-948890
-948720
-948380
-948071
-947863
-947859
-947632
-947687
-947717
-947617
-947909
-948101
-948336
-948514
-948675
-949069
-949479
-949860
-950047
-950371
-950832
-951299
-951818
-952174
-952576
-953070
-953643
-954154
-954826
-955242
-955795
-956406
-957075
-957691
-958249
-958765
-959431
-959852
-960495
-960985
-961478
-961980
-962641
-962999
-963430
-963805
-964392
-964799
-965098
-965397
-965743
-966057
-966297
-966558
-966698
-966836
-967120
-967196
-967310
-967342
-967496
-967640
-967829
-967952
-967894
-968096
-968257
-968324
-968247
-968245
-968297
-968250
-968253
-968220
-968191
-968067
-967931
-967817
-967608
-967177
-967018
-966768
-966574
-966219
-965672
-965445
-965003
-964638
-964186
-963499
-963356
-963180
-962911
-962558
-962065
-961643
-961493
-961062
-960868
-960588
-960335
-960093
-959755
-959453
-959051
-958849
-958552
-958317
-957910
-957674
-957500
-957232
-957067
-957016
-956674
-956641
-956268
-956342
-956140
-955950
-955865
-955954
-955970
-955936
-955723
-955846
-955970
-955866
-955846
-955804
-955905
-956171
-956304
-956385
-956574
-956650
-956872
-956955
-957099
-957280
-958897
-959182
-959506
-959667
-959978
-960286
-960656
-961036
-961431
-961635
-962166
-962501
-962825
-963280
-963437
-963880
-964378
-964699
-965078
-965376
-965750
-965987
-966288
-966601
-966738
-967139
-967481
-967718
-967894
-968120
-968491
-968716
-968953
-969230
-969547
-969805
-969983
-970215
-970316
-970498
-970751
-971133
-971419
-971558
-971693
-971932
-972272
-972565
-972769
-972928
-973160
-973222
-973408
-973622
-973384
-973788
-974014
-974090
-974397
-974446
-974619
-974896
-974930
-975005
-975085
-975360
-975539
-975917
-976202
-976375
-976529
-976813
-976922
-976960
-976984
-977250
-977472
-977696
-977923
-977831
-977692
-978024
-978082
-978293
-978303
-978539
-978666
-978783
-978881
-978963
-979055
-979191
-979333
-979558
-979502
-979696
-979982
-980070
-980200
-980196
-980297
-980395
-980513
-980687
-980629
-980752
-980862
-981070
-981079
-981021
-981048
-981152
-981249
-981520
-981489
-981733
-982019
-982207
-982396
-982236
-982399
-982588
-982715
-982717
-982793
-982835
-983029
-983196
-983364
-983301
-983424
-983607
-983710
-983746
-983711
-983701
-983902
-984217
-984458
-984401
-984550
-984547
-984643
-984688
-984785
-985036
-985208
-985304
-985484
-985539
-985762
-985849
-985953
-986180
-986124
-986471
-986675
-986890
-987112
-987108
-987161
-987384
-987530
-987715
-987875
-988095
-988242
-988432
-988657
-988788
-988819
-989045
-989086
-989311
-989275
-989357
-989593
-989684
-989798
-989773
-989883
-990027
-989956
-990153
-989986
-990053
-990179
-990285
-990376
-990496
-990587
-990702
-990885
-991084
-991059
-991247
-991596
-991806
-992059
-992191
-992470
-992612
-992809
-993092
-993256
-993345
-993537
-993930
-994123
-994239
-994422
-994628
-994797
-995102
-995041
-995204
-995505
-995752
-995965
-995879
-996062
-996344
-996537
-996588
-996723
-997009
-997224
-997513
-997855
-997959
-998258
-998576
-998922
-998995
-999149
-999420
-999849
-1000078
-1000382
-1000523
-1000704
-1000981
-1001344
-1001512
-1001694
-1002043
-1002232
-1002447
-1002770
-1002741
-1002923
-1003037
-1003082
-1002903
-1002718
-1002558
-1002295
-1002027
-1001375
-1000579
-999714
-998748
-997616
-996597
-995158
-993897
-992455
-990874
-989396
-987425
-985570
-983848
-981916
-980240
-978172
-976338
-974664
-972750
-970899
-968989
-967275
-965632
-964056
-962466
-960798
-959227
-957928
-956402
-955128
-953720
-952476
-951473
-950336
-949300
-948216
-947390
-946691
-945903
-945226
-944427
-943951
-943515
-943312
-942892
-942577
-942432
-942542
-942422
-942550
-942566
-942615
-943053
-943364
-943645
-943976
-944489
-945053
-945651
-946185
-946710
-947192
-947785
-948382
-949008
-949537
-950121
-950731
-951426
-952042
-952560
-953061
-953611
-954180
-954699
-955111
-955783
-956563
-957221
-957965
-958402
-959067
-959516
-960079
-960595
-960942
-961426
-961919
-962522
-962928
-963275
-963544
-963938
-964274
-964532
-964621
-964630
-964872
-965028
-965169
-965106
-965293
-965345
-965459
-965407
-965365
-965436
-965605
-965714
-965669
-965519
-965590
-965663
-965667
-965482
-965297
-965232
-965063
-965042
-964932
-964658
-964458
-964204
-963922
-963810
-963439
-963164
-962858
-962468
-962199
-961855
-961388
-961060
-960715
-960324
-959861
-959417
-959054
-958699
-958319
-957783
-957419
-956971
-956607
-956284
-955774
-955638
-955497
-955353
-955200
-954934
-954745
-954638
-954478
-954178
-953810
-953737
-953699
-953595
-953652
-953392
-953450
-953496
-953355
-953415
-953449
-953414
-953566
-953679
-953955
-954069
-954124
-954421
-954631
-954739
-954745
-954963
-955212
-955595
-955782
-955867
-956135
-956457
-956694
-957122
-957306
-957531
-957896
-958282
-958617
-958942
-959257
-959560
-959826
-960258
-960474
-960852
-961273
-961654
-962024
-962303
-962640
-963083
-963343
-963703
-963898
-964341
-964654
-964997
-965337
-965453
-965750
-966106
-966412
-966751
-966954
-967231
-967699
-967943
-968335
-968382
-968732
-968988
-969229
-969471
-969658
-969914
-970341
-970521
-970607
-970720
-970827
-971080
-971239
-971568
-971653
-971848
-972052
-972377
-972525
-972633
-972807
-972895
-973125
-973382
-973504
-973644
-973775
-973998
-974144
-974342
-974502
-974572
-974709
-974913
-975057
-975026
-975207
-975388
-975569
-975570
-975763
-975838
-975931
-976077
-976163
-976179
-976382
-976617
-976860
-976842
-977024
-977140
-977241
-977389
-977461
-977588
-977934
-978039
-978229
-978303
-978541
-978656
-978871
-979009
-979126
-979177
-979530
-979615
-979922
-980010
-980043
-980254
-980375
-980638
-980618
-980764
-980843
-981028
-981176
-981150
-981183
-981402
-981537
-981652
-981547
-981353
-981789
-981999
-982282
-982326
-982447
-982448
-982555
-982668
-982812
-982838
-983061
-983116
-983380
-983415
-983402
-983650
-983971
-984109
-984068
-983956
-984165
-984485
-984533
-984546
-984662
-984822
-984896
-985126
-985058
-985283
-985452
-985694
-985847
-985860
-985864
-986102
-986181
-986311
-986198
-986221
-986486
-986755
-986932
-986948
-987054
-987189
-987438
-987630
-987704
-987806
-987981
-988285
-988379
-988413
-988543
-988760
-988767
-989131
-989155
-989241
-989448
-989499
-989722
-989776
-989942
-990045
-990222
-990476
-990493
-990688
-990959
-991154
-991293
-991307
-991412
-991624
-991828
-991925
-992014
-992027
-992278
-992446
-992776
-992758
-992950
-993090
-993388
-993488
-993627
-993826
-994191
-994346
-994586
-994733
-994950
-995246
-995388
-995748
-995827
-995962
-996285
-996638
-996785
-997104
-997100
-997453
-997594
-997861
-997956
-998255
-998470
-998876
-999084
-999218
-999320
-999445
-999339
-999446
-999558
-999819
-1000072
-1000365
-1000576
-1000694
-1000909
-1001164
-1001517
-1001705
-1001744
-1002031
-1002236
-1002623
-1002832
-1002884
-1003078
-1003432
-1003502
-1003692
-1003651
-1003689
-1004122
-1004338
-1004409
-1004334
-1004181
-1004012
-1003758
-1003261
-1002643
-1001872
-1001182
-1000273
-999258
-997937
-996729
-995355
-994030
-992483
-990766
-989215
-987731
-985966
-984178
-982436
-980503
-978790
-977152
-975331
-973207
-972059
-970128
-968390
-966737
-965076
-963426
-962029
-960480
-959058
-957658
-956240
-955267
-954003
-952953
-951891
-950837
-950012
-949330
-948457
-947694
-947100
-946722
-946374
-946024
-945629
-945281
-945242
-945173
-945208
-945196
-945149
-945334
-945598
-945812
-946086
-946271
-946852
-947258
-947648
-948035
-948555
-949147
-949654
-950227
-950872
-951440
-952233
-952781
-953440
-953990
-954556
-955380
-956114
-956848
-957535
-957993
-958716
-959354
-960067
-960635
-961251
-961789
-962413
-962956
-963451
-963901
-964552
-965089
-965494
-965726
-966035
-966553
-966948
-967130
-967258
-967502
-967697
-967894
-967973
-968016
-968011
-968279
-968359
-968406
-968310
-968002
