PPG
-574302
-574219
-574310
-574461
-574518
-574381
-574437
-574650
-574757
-574948
-574888
-574901
-575026
-575031
-575059
-575017
-575186
-575311
-575409
-575592
-575383
-575310
-575492
-575540
-575584
-575506
-575535
-575805
-575838
-575916
-575751
-575733
-575810
-575874
-575900
-575842
-575945
-576087
-576074
-576200
-576146
-576042
-576101
-576210
-576257
-576184
-576210
-576427
-576547
-576943
-576465
-576414
-576462
-576547
-576482
-576470
-576516
-576678
-576827
-576946
-576765
-576781
-576818
-576846
-576929
-576820
-576920
-577106
-577230
-577318
-577041
-577102
-577293
-577349
-577357
-577262
-577380
-577550
-577663
-577736
-577657
-577572
-577605
-577681
-577696
-577567
-577747
-577943
-578003
-578057
-577988
-577967
-578116
-578131
-578113
-578036
-578122
-578679
-578533
-578498
-578419
-578338
-578393
-578458
-578557
-578292
-578463
-578645
-578782
-578873
-578711
-578782
-578917
-578928
-578887
-578768
-578941
-579108
-579288
-579301
-579244
-579306
-579364
-579416
-579376
-579371
-579569
-579751
-579871
-579933
-579860
-579908
-579979
-580075
-579996
-579986
-580135
-580354
-580367
-580520
-580385
-580411
-580487
-580271
-580268
-580335
-580306
-580318
-580037
-579820
-579677
-579598
-579303
-578921
-578784
-578625
-578323
-578039
-577608
-577222
-576875
-576435
-575996
-575578
-575396
-575043
-574649
-574286
-573702
-573198
-572954
-572404
-572033
-571570
-571599
-571157
-570726
-570375
-569947
-569643
-569400
-569123
-568880
-568418
-568368
-568244
-568048
-567865
-567535
-567322
-567270
-567187
-567101
-566723
-566702
-566756
-566765
-566727
-566455
-566438
-566497
-566472
-566407
-566278
-566459
-566512
-566516
-566561
-566400
-566482
-566543
-566591
-566545
-566499
-566771
-566892
-566932
-567015
-566897
-566978
-567040
-567074
-567145
-567138
-567314
-567513
-567684
-567843
-567647
-567757
-567794
-567818
-567894
-567718
-567931
-568152
-568188
-568374
-568306
-568395
-568420
-568561
-568506
-568815
-568929
-569049
-569252
-569452
-569386
-569404
-569437
-569508
-569524
-569787
-569729
-570031
-570112
-570049
-570190
-570319
-570324
-570388
-570350
-570499
-570789
-570831
-570941
-570771
-570939
-570954
-571041
-571047
-570971
-571116
-571252
-571266
-571374
-571196
-571275
-571279
-571305
-571076
-571049
-571229
-571289
-571290
-571173
-571051
-570973
-570996
-570960
-570744
-570683
-570800
-570758
-570725
-570625
-570440
-570374
-570366
-570231
-570045
-569855
-569906
-570008
-569907
-569883
-569598
-569525
-569502
-569327
-569300
-569112
-569280
-569376
-569257
-569228
-569032
-569047
-569023
-569009
-568960
-568824
-569023
-569070
-569148
-569003
-568950
-568975
-569077
-569009
-568942
-568975
-568897
-569032
-569096
-569206
-569048
-569097
-569205
-569226
-569062
-569143
-569305
-569456
-569516
-569489
-569335
-569446
-569554
-569557
-569402
-569414
-569602
-569792
-569841
-570101
-569827
-569748
-570018
-570067
-570037
-570048
-570058
-570263
-570397
-570477
-570441
-570621
-570600
-570560
-570605
-570624
-570892
-571041
-571098
-571148
-570998
-571201
-571228
-571273
-571308
-571259
-571446
-571627
-571677
-571685
-571606
-571759
-571810
-571606
-571655
-571664
-571960
-572088
-572082
-572079
-572056
-572134
-572150
-572168
-572071
-572065
-572361
-572433
-572500
-573009
-572537
-572509
-572563
-572646
-572530
-572566
-572620
-572713
-572869
-572967
-572768
-572837
-572953
-572909
-572900
-572866
-572987
-573125
-573151
-573296
-573138
-573249
-573233
-573303
-573283
-573265
-573443
-573578
-573632
-573523
-573490
-573619
-573644
-573748
-573597
-573615
-573814
-573885
-574056
-573966
-573970
-574053
-574107
-574208
-574568
-574326
-574372
-574525
-574647
-574625
-574483
-574522
-574603
-574654
-574609
-574725
-574927
-574976
-575010
-575079
-574792
-575010
-575118
-575242
-575126
-575076
-575389
-575416
-575399
-575370
-575368
-575394
-575487
-575547
-575325
-575416
-575658
-575800
-575757
-575780
-575610
-575730
-575859
-575880
-575805
-575817
-575923
-576044
-576123
-575886
-575795
-575923
-575862
-575707
-575531
-575428
-575502
-575415
-575129
-574761
-574497
-574289
-574019
-573635
-573232
-572877
-572584
-572329
-572010
-571530
-570883
-570584
-570131
-569627
-569057
-568579
-568289
-567835
-567479
-567051
-566495
-566077
-565682
-565349
-564899
-564536
-564335
-564194
-563869
-563480
-563075
-562801
-562619
-562468
-562096
-561895
-561800
-561683
-561533
-561348
-560879
-560983
-560913
-560804
-561037
-560617
-560652
-560679
-560673
-560576
-560495
-560389
-560494
-560478
-560389
-560315
-560528
-560993
-560752
-560649
-560593
-560601
-560701
-560783
-560678
-560565
-560830
-560930
-560998
-560893
-560812
-560992
-561002
-561121
-561035
-561040
-561208
-561356
-561420
-561378
-561247
-561524
-561572
-561526
-561502
-561516
-561768
-561928
-561945
-561929
-561903
-562005
-562070
-562116
-562066
-562043
-562386
-562444
-562639
-562631
-562534
-562749
-562901
-562935
-563003
-563029
-563257
-563909
-563634
-563554
-563435
-563519
-563592
-563809
-563782
-563690
-564006
-564030
-563912
-564087
-563950
-564065
-564066
-564098
-563889
-563945
-564149
-564278
-564212
-564175
-563992
-564142
-564188
-564039
-563890
-563833
-563974
-563962
-563853
-563768
-563542
-563487
-563483
-563427
-563171
-563032
-563125
-563170
-563048
-562915
-562733
-562698
-562631
-562848
-562367
-562296
-562304
-562369
-562302
-562127
-561947
-561941
-561971
-561868
-561780
-561619
-561647
-561821
-562224
-561796
-561561
-561620
-561599
-561550
-561393
-561346
-561565
-561598
-561632
-561607
-561484
-561605
-561637
-561670
-561496
-561484
-561610
-561777
-561774
-561789
-561805
-561756
-561835
-561917
-561767
-561784
-561979
-562182
-562291
-562243
-562052
-562207
-562268
-562409
-562233
-562247
-562427
-562654
-562733
-562700
-562545
-562602
-562733
-562877
-562772
-562783
-563006
-563104
-563222
-563224
-563099
-563239
-563255
-563362
-563191
-563225
-563841
-563666
-563626
-563638
-563627
-563753
-563821
-563873
-563775
-563703
-563983
-564066
-564116
-564069
-564080
-564166
-564175
-564178
-564194
-564186
-564414
-564428
-564500
-564613
-564472
-564372
-564536
-564586
-564541
-564474
-564675
-564791
-564825
-564905
-564786
-564845
-564958
-564948
-564642
-564795
-565047
-565033
-565047
-565083
-564969
-565073
-565156
-565231
-564925
-565054
-565258
-565286
-565396
-565359
-565317
-565329
-565436
-565363
-565321
-565284
-565554
-565568
-565622
-565695
-565514
-565548
-565722
-565802
-565720
-565661
-565865
-565974
-566033
-566023
-566001
-566096
-566185
-566250
-566205
-566142
-566358
-566494
-566690
-566539
-566462
-566568
-566594
-566552
-566564
-566541
-566721
-566829
-566989
-566929
-566920
-566976
-567035
-567104
-567050
-566975
-567191
-567261
-567383
-567413
-567278
-567418
-567458
-567384
-567254
-567256
-567465
-567472
-567585
-567573
-567730
-567350
-567112
-567047
-566796
-566570
-566483
-566314
-566059
-565773
-565355
-565084
-564808
-564402
-563777
-563364
-563188
-562882
-562455
-561827
-561400
-561039
-560617
-560193
-559531
-559117
-558798
-558531
-558055
-557660
-557158
-556948
-556563
-556160
-555774
-555377
-555240
-555018
-554768
-554416
-554065
-553787
-553726
-553458
-553102
-552791
-552887
-552880
-552669
-552481
-552279
-552257
-552089
-552016
-551828
-551723
-551825
-551884
-551926
-551905
-551692
-551736
-551636
-551841
-551706
-551705
-551933
-552063
-551872
-551963
-551867
-551973
-552146
-552089
-552025
-551981
-552052
-552204
-552324
-552411
-552258
-552340
-552484
-552410
-552368
-552464
-552632
-552737
-552715
-552734
-552686
-552768
-552826
-552908
-552867
-552674
-552992
-553205
-553241
-553349
-553292
-553373
-553420
-553584
-553436
-553474
-553753
-553921
-553945
-554036
-553939
-554043
-554213
-554354
-554174
-554238
-554466
-554708
-554792
-554793
-554831
-554904
-554999
-555002
-554929
-555026
-555241
-555363
-555392
-555316
-555217
-555283
-555387
-555474
-555319
-555278
-555351
-555397
-555424
-555396
-555236
-555205
-555240
-555102
-554958
-554851
-554985
-555038
-554995
-554869
-554616
-554647
-554663
-554542
-554362
-554157
-554315
-553879
-554105
-554148
-553891
-553957
-553876
-553832
-553578
-553532
-553554
-553666
-553612
-553580
-553409
-553327
-553355
-553391
-553310
-553124
-553189
-553156
-553236
-553198
-553067
-553047
-553140
-553037
-552954
-552885
-553071
-553121
-553197
-553132
-553033
-553112
-553176
-553201
-553110
-553068
-553287
-553398
-553433
-553417
-553365
-553536
-553548
-553674
-553661
-553522
-553731
-553729
-553946
-553998
-553896
-553937
-553995
-554098
-554054
-553917
-554166
-554258
-554141
-554381
-554360
-554505
-554470
-554405
-554365
-554637
-554801
-554866
-554865
-554804
-554798
-554992
-555003
-554994
-554964
-555182
-555932
-555561
-555529
-555355
-555423
-555515
-555524
-555480
-555472
-555743
-555899
-555889
-556004
-555842
-555845
-555935
-556086
-555940
-556035
-556227
-556326
-556447
-556495
-556409
-556473
-556578
-556654
-556613
-556595
-556860
-556964
-557005
-557053
-556913
-557032
-557062
-556968
-556999
-557025
-557245
-557291
-557452
-557364
-557301
-557302
-557429
-557510
-557439
-557365
-557598
-557694
-557779
-557856
-557639
-557718
-557777
-557859
-557832
-557747
-557954
-558041
-558057
-558110
-558005
-558044
-558070
-558064
-558090
-558076
-558254
-558366
-558400
-558410
-558228
-558414
-558486
-558427
-558463
-558510
-558803
-558890
-558985
-558981
-558836
-558926
-559006
-559007
-558972
-559004
-559208
-559323
-559413
-559411
-559260
-559421
-559510
-559624
-559416
-559432
-559738
-559896
-559949
-559931
-559805
-559945
-560002
-559966
-560026
-559907
-560068
-560213
-560193
-560095
-559883
-560038
-560032
-560018
-559835
-559458
-559548
-559501
-559246
-559047
-558662
-558524
-558201
-558037
-557486
-557066
-556967
-556722
-556309
-555947
-555279
-555017
-554701
-554319
-553719
-553219
-553003
-552786
-552236
-551958
-551381
-551093
-550734
-550439
-550470
-550113
-549612
-549367
-549219
-548852
-548480
-548375
-548263
-548094
-547882
-547674
-547678
-547676
-547632
-547526
-547383
-547333
-547280
-547349
-547200
-547168
-547221
-547480
-547535
-547591
-547463
-547499
-547703
-547643
-547576
-547583
-547803
-547992
-547991
-548049
-548040
-548118
-548180
-548333
-548164
-548223
-548454
-548619
-548691
-548701
-548637
-548747
-548811
-548795
-548810
-548670
-548988
-549077
-549043
-549085
-549040
-549064
-549258
-549345
-549286
-549322
-549679
-549682
-549715
-549743
-549731
-549864
-550032
-550322
-550184
-550307
-550562
-550731
-550932
-551042
-550975
-551247
-551467
-551551
-551633
-551704
-551982
-552217
-552281
-552409
-552347
-552595
-552751
-552814
-552859
-552868
-553103
-553356
-553456
-553363
-553343
-553441
-553613
-553634
-553622
-553569
-553776
-553778
-553716
-553802
-553669
-553596
-553638
-553636
-553503
-553332
-553419
-553514
-553432
-553314
-553111
-553193
-553052
-553074
-552885
-552770
-552878
-552887
-552842
-552781
-552474
-552509
-552498
-552351
-552320
-552006
-552319
-552401
-552344
-552281
-552030
-552161
-552214
-552170
-552100
-552057
-552271
-552331
-552291
-552339
-552173
-552409
-552324
-552507
-552288
-552285
-552497
-552666
-552726
-552762
-552645
-552787
-552805
-552850
-552948
-552955
-553154
-553211
-553391
-553223
-553285
-553486
-553514
-553604
-553693
-553634
-553780
-554023
-554111
-554077
-554070
-554191
-554372
-554491
-554379
-554435
-554693
-554834
-554998
-554962
-554938
-555079
-555171
-555213
-555261
-555255
-555558
-555661
-555684
-555780
-555717
-555952
-555988
-556040
-556045
-556060
-556317
-556421
-556515
-556552
-556385
-556534
-556643
-556713
-556736
-556754
-556988
-557145
-557176
-557165
-557125
-557150
-557283
-557327
-557318
-557263
-557491
-557561
-557625
-557679
-557625
-557722
-557832
-557885
-557839
-557814
-557940
-558167
-558213
-558178
-558071
-558250
-558274
-558423
-558393
-558293
-558568
-558654
-558740
-558772
-558672
-558865
-558913
-558936
-558815
-558833
-559067
-559255
-559388
-559331
-559257
-559357
-559424
-559504
-559570
-559491
-559656
-559793
-559837
-559820
-559739
-559931
-559989
-560055
-560116
-560038
-560266
-560361
-560479
-560602
-560392
-560470
-560677
-560670
-560705
-560703
-560956
-561109
-561164
-561186
-561078
-561213
-561290
-561417
-561364
-561350
-561585
-561687
-561787
-561888
-561771
-561853
-561906
-562044
-562112
-562039
-562275
-562384
-562455
-562466
-562349
-562505
-562675
-562766
-562744
-562694
-562935
-563072
-563077
-563194
-563083
-563114
-563116
-563079
-563037
-562896
-563015
-562986
-562968
-562847
-562489
-562460
-562153
-561981
-561631
-561299
-561268
-561015
-561080
-560461
-559885
-559604
-559302
-558896
-558695
-558087
-557794
-557402
-556908
-556530
-556007
-555760
-555431
-555043
-554642
-554043
-554109
-553865
-553565
-553283
-552818
-552604
-552451
-552283
-552017
-551774
-551746
-551625
-551571
-551396
-551144
-551050
-550991
-550826
-550795
-550646
-550850
-550840
-550838
-550805
-550654
-550717
-550733
-550799
-550778
-550704
-550918
-551060
-551088
-551062
-550990
-551171
-551256
-551328
-551260
-551187
-551569
-551673
-551795
-551874
-551813
-552026
-552016
-552196
-552184
-552134
-552406
-552523
-552660
-552752
-552674
-552860
-552922
-553128
-553177
-553174
-553355
-553536
-553533
-553806
-553637
-553840
-553946
-554089
-554074
-554104
-554367
-554536
-554663
-554707
-554782
-554987
-555057
-555247
-555254
-555293
-555646
-555712
-556223
-556140
-556007
-556130
-556255
-556259
-556317
-556350
-556573
-556667
-556879
-556865
-556817
-556973
-557012
-556969
-556973
-556990
-557143
-557278
-557258
-557343
-557232
-557163
-557194
-557309
-557335
-557197
-557295
-557425
-557326
-557259
-557020
-557130
-557085
-557066
-556877
-556802
-557016
-557064
-557022
-556951
-556701
-556817
-556762
-556787
-556657
-556511
-556695
-556665
-556603
-556542
-556478
-556493
-556476
-556404
-556409
-556279
-556414
-556490
-556562
-556586
-556432
-556446
-556498
-556598
-556541
-556494
-556618
-556642
-556722
-556802
-556563
-556778
-556886
-556931
-556873
-556857
-557131
-557269
-557331
-557426
-557247
-557376
-557526
-557496
-557451
-557524
-557710
-557690
-557890
-557957
-557846
-558069
-558138
-558173
-558166
-558152
-558338
-558444
-558536
-558631
-558525
-558711
-558799
-558852
-558834
-558826
-559061
-559234
-559355
-559412
-559266
-559485
-559620
-559703
-559743
-559797
-560033
-560171
-560181
-560292
-560306
-560432
-560575
-560867
-560693
-560622
-560859
-561032
-561135
-561302
-561173
-561223
-561233
-561169
-561260
-561369
-561629
-561831
-561959
-561936
-561914
-562005
-562090
-562150
-562254
-562240
-562471
-562509
-562592
-562692
-562628
-562717
-562789
-562927
-562970
-563065
-563077
-563145
-563234
-563339
-563196
-563297
-563387
-563416
-563434
-563423
-563572
-563528
-563769
-563772
-563691
-563823
-563876
-563936
-563895
-563866
-564146
-564280
-564330
-564374
-564287
-564351
-564482
-564471
-564478
-564474
-564756
-564926
-564943
-565014
-564875
-564973
-565039
-565165
-565137
-564950
-565291
-565429
-565454
-565466
-565386
-565508
-565619
-565623
-565570
-565632
-565875
-565915
-565872
-566043
-565957
-566082
-566136
-566160
-566217
-566231
-566345
-566379
-566516
-566621
-566574
-566659
-566719
-566789
-566828
-566719
-566933
-567110
-567121
-567273
-567160
-567265
-567294
-567409
-567417
-567338
-567588
-567665
-567732
-567840
-567747
-567868
-567893
-567962
-567961
-567927
-568065
-568181
-568263
-568209
-568142
-568224
-568179
-568121
-568019
-567835
-567869
-567732
-567596
-567517
-567065
-566882
-566602
-566313
-565957
-565522
-565266
-564991
-564475
-564141
-563589
-563158
-562751
-562362
-561875
-561296
-561005
-560600
-560242
-559773
-559180
-558879
-558494
-558050
-557593
-557119
-556967
-556741
-556400
-556044
-555573
-555320
-555101
-554957
-554715
-554406
-554471
-554424
-554256
-554280
-554025
-553978
-553981
-553895
-553748
-553581
-553622
-553628
-553501
-553632
-553650
-553882
-554074
-554100
-554040
-553973
-554205
-554370
-554865
-554662
-554546
-554635
-554778
-554899
-554961
-554940
-555216
-555432
-555570
-555761
-555664
-555871
-556126
-556190
-556398
-556495
-556826
-557087
-557305
-557575
-557556
-557819
-557843
-557878
-557900
-557939
-558180
-558302
-558367
-558465
-558349
-558530
-558737
-558840
-558796
-558825
-558969
-559135
-559228
-559356
-559312
-559511
-559592
-559794
-559797
-559726
-559991
-560130
-560272
-560387
-560262
-560430
-560577
-560673
-560669
-560632
-560820
-560948
-561139
-561185
-561069
-561271
-561257
-561227
-561295
-561257
-561497
-561466
-561584
-561564
-561364
-561295
-561300
-561303
-561115
-561034
-561084
-561145
-561126
-561092
-560861
-560883
-560869
-560728
-560641
-560409
-560472
-560516
-560413
-560306
-560129
-560090
-559946
-559889
-559786
-559554
-559645
-559605
-559594
-559429
-559217
-559211
-559231
-559145
-558919
-558902
-559111
-559236
-559207
-559224
-558992
-559108
-559199
-559106
-559513
-559180
-559042
-559157
-559252
-559321
-559249
-559310
-559287
-559451
-559345
-559353
-559541
-559611
-559634
-559682
-559566
-559709
-559928
-559981
-559902
-559865
-560062
-560277
-560362
-560404
-560206
-560380
-560396
-560530
-560563
-560492
-560696
-560813
-560851
-560905
-560778
-560872
-561023
-561108
-561060
-561063
-561229
-561412
-561416
-561409
-561309
-561494
-561584
-561618
-561553
-561776
-561843
-561821
-562043
-561880
-561988
-562040
-562163
-562110
-562063
-562435
-562577
-562708
-562772
-562721
-562845
-563013
-563177
-563287
-563227
-563473
-563800
-564025
-564147
-564048
-564278
-564505
-564594
-564695
-564793
-565157
-565300
-565488
-565572
-565388
-565515
-565663
-565732
-565720
-565702
-565871
-565961
-566041
-566116
-566069
-566139
-566213
-566309
-566351
-566221
-566562
-566625
-566668
-566745
-566541
-566682
-566663
-566727
-566621
-566612
-566850
-566851
-566840
-566908
-566711
-566831
-566794
-566867
-566780
-566643
-566808
-566816
-566839
-566942
-566758
-566825
-566845
-566838
-566717
-566645
-566855
-566879
-566997
-566961
-566717
-566897
-566977
-567067
-567113
-567081
-567255
-567320
-567426
-567522
-567301
-567333
-567478
-567628
-567554
-567517
-567654
-567828
-567947
-568001
-567948
-567996
-568035
-568084
-568045
-568090
-568373
-568415
-568570
-568585
-568523
-568643
-568686
-568697
-568663
-568722
-568909
-569011
-569060
-569104
-569017
-569220
-569299
-569327
-569359
-569346
-569502
-569554
-569678
-569742
-569638
-569851
-569845
-569947
-570014
-569929
-570291
-570469
-570531
-570548
-570404
-570570
-570606
-570653
-570560
-570618
-570868
-570834
-570752
-570618
-570423
-570294
-570229
-570069
-569804
-569525
-569465
-569171
-568996
-568736
-568325
-568118
-567679
-567398
-566906
-566416
-566275
-565976
-565715
-565409
-564866
-564652
-564327
-563958
-563652
-563353
-563218
-562921
-562655
-562437
-562148
-561994
-561700
-561562
-561308
-561098
-561141
-561510
-561115
-560960
-560686
-560762
-560709
-560684
-560611
-560544
-560643
-560797
-560806
-560816
-560737
-560848
-560895
-560995
-561002
-560955
-561155
-561250
-561343
-561349
-561274
-561358
-561429
-561494
-561515
-561485
-561501
-561707
-561837
-561794
-561677
-561782
-561837
-561729
-561723
-561618
-561750
-561817
-561767
-561790
-561684
-561766
-561774
-561761
-561739
-561644
-561882
-562084
-562047
-562114
-561984
-562136
-562269
-562390
-562272
-562256
-562533
-562632
-562644
-562738
-562685
-562811
-562948
-562953
-562898
-562923
-563124
-563279
-563349
-563480
-563363
-563444
-563603
-563617
-563656
-563576
-563783
-563902
-563986
-563876
-564023
-564036
-563989
-563928
-563956
-564098
-564205
-564222
-564149
-563976
-564121
-564079
-564162
-564003
-563810
-564539
-564112
-564067
-563960
-563776
-563823
-563794
-563782
-563600
-563520
-563628
-563705
-563651
-563544
-563451
-563503
-563477
-563422
-563359
-563252
-563332
-563396
-563446
-563412
-563264
-563394
-563403
-563359
-563341
-563219
-563408
-563612
-563671
-563723
-563550
-563648
-563811
-563925
-563827
-563903
-564176
-564362
-564482
-564615
-564505
-564726
-564798
-564910
-564907
-564970
-565249
-565418
-565519
-565651
-565648
-565769
-565901
-565948
-565921
-566040
-566223
-566440
-566523
-566558
-566494
-566597
-566725
-566844
-566872
-566897
-567131
-567296
-567349
-567390
-567316
-567453
-567492
-567533
-567466
-567535
-567742
-567836
-567967
-568074
-567940
-568021
-568103
-568148
-568089
-568162
-568288
-568465
-568468
-568524
-568421
-568493
-568591
-569007
-568837
-568704
-569005
-569013
-569045
-569218
-569080
-569276
-569330
-569427
-569472
-569517
-569757
-569839
-569984
-570083
-570044
-570236
-570304
-570473
-570424
-570453
-570690
-570934
-571069
-571154
-571044
-571254
-571364
-571508
-571379
-571542
-571834
-571996
-572051
-572196
-572161
-572271
-572454
-572561
-572630
-572585
-572760
-572925
-572968
-573042
-572978
-573136
-573187
-573244
-573238
-573218
-573386
-573472
-573578
-573614
-573507
-573614
-573664
-573626
-573637
-573583
-573836
-573892
-573890
-573917
-573861
-573944
-573934
-573816
-573830
-574147
-574353
-574358
-574449
-574359
-574519
-574522
-574628
-574709
-574686
-574986
-575239
-575369
-575545
-575510
-575709
-575759
-575904
-575764
-575699
-575816
-575968
-576159
-576145
-576049
-576196
-576287
-576430
-576347
-576313
-576533
-576654
-576793
-576903
-576692
-576917
-577027
-577055
-577074
-577067
-577254
-577333
-577389
-577471
-577409
-577574
-577654
-577762
-577700
-577418
-578133
-577918
-577829
-577767
-577508
-577461
-577349
-577225
-577036
-576671
-576550
-576494
-576187
-575927
-575484
-575193
-574867
-574539
-574033
-573574
-573323
-573019
-572570
-572273
-571728
-571352
-571024
-570652
-570205
-569795
-569697
-569387
-569031
-568694
-568399
-568149
-567945
-567811
-567416
-567099
-567142
-567121
-566937
-566884
-566681
-566577
-566552
-566490
-566333
-566239
-566403
-566366
-566748
-566512
-566324
-566377
-566338
-566441
-566530
-566520
-566699
-566759
-566810
-566879
-566835
-566992
-567158
-567191
-567239
-567250
-567560
-567687
-567752
-567899
-567817
-567880
-568130
-568159
-568158
-568257
-568456
-568634
-568708
-568975
-568810
-569106
-569198
-569243
-569304
-569316
-569480
-569654
-569830
-570018
-569805
-569871
-569967
-570055
-570084
-570020
-570276
-570557
-570655
-570677
-570589
-570712
-570766
-570972
-570916
-570925
-571195
-571421
-571476
-571565
-571550
-571605
-571707
-571752
-571718
-571739
-571980
-572141
-572289
-572337
-572332
-572406
-572486
-572509
-572368
-572455
-572559
-572781
-572799
-572759
-572644
-572694
-572707
-572763
-572686
-572597
-572707
-572777
-572676
-572607
-572315
-572484
-572378
-572337
-572126
-572062
-572150
-572120
-572119
-572016
-571902
-571910
-571904
-571777
-571648
-571533
-571728
-571836
-571835
-571788
-571619
-571759
-571713
-571733
-571606
-571440
-571779
-571970
-571911
-572060
-571777
-571769
-571776
-571750
-571789
-571641
-571895
-571965
-572007
-571919
-571982
-572030
-572081
-571939
-572003
-572281
-572345
-572395
-572460
-572399
-572528
-572537
-572655
-572517
-572606
-572879
-573065
-573067
-573091
-573114
-573193
-573327
-573477
-573432
-573400
-573664
-573789
-573899
-573960
-573904
-574054
-574258
-574375
-574368
-574361
-574570
-574680
-574798
-574848
-574694
-574972
-575059
-575143
-575100
-575142
-575306
-575508
-575528
-575613
-575581
-575661
-575804
-575888
-575846
-575819
-575983
-576212
-576279
-576330
-576298
-576344
-576477
-576463
-576641
-576517
-576854
-576943
-577029
-577023
-576940
-577076
-577179
-577293
-577248
-577205
-577510
-577642
-577796
-577880
-577761
-577885
-577990
-578105
-578121
-578051
-578250
-578233
-578246
-578244
-578157
-578323
-578329
-578432
-578379
-578229
-578407
-578523
-578530
-578596
-578538
-578557
-578693
-578761
-578726
-578641
-578937
-579000
-579034
-579056
-578960
-579195
-579227
-579286
-579250
-579224
-579410
-579591
-579616
-579643
-579636
-579867
-579842
-579945
-579941
-579786
-580012
-580155
-580212
-580347
-580173
-580382
-580486
-580476
-580430
-580458
-580719
-580855
-580885
-580910
-580838
-580868
-580896
-580898
-580860
-580904
-581053
-581100
-581140
-581191
-581203
-581484
-581603
-581571
-581593
-581573
-581833
-581989
-582064
-582129
-582088
-582277
-582468
-582442
-582513
-582362
-582539
-582701
-582783
-582852
-582744
-582935
-582976
-582935
-582913
-582936
-583139
-583332
-583244
-583216
-583157
-583222
-583268
-583364
-583146
-583008
-583160
-583177
-582994
-582783
-582559
-582339
-582236
-582005
-581648
-581342
-581132
-580878
-580650
-580237
-579642
-579279
-579035
-578717
-578208
-577737
-577463
-577221
-576854
-576412
-575931
-575645
-575355
-575012
-574666
-574366
-574264
-574082
-573755
-573485
-573147
-572993
-572897
-572662
-572396
-572168
-572186
-572202
-571967
-571987
-571744
-571742
-571790
-571738
-571600
-571526
-571662
-571668
-571694
-571731
-571589
-571674
-571767
-571702
-571790
-571719
-571909
-572026
-571973
-571953
-571942
-572014
-572142
-572249
-572135
-572154
-572372
-572557
-572530
-572586
-572556
-572631
-572831
-572893
-572853
-572905
-573065
-573156
-573290
-573339
-573276
-573221
-573346
-573502
-573406
-573364
-573567
-573730
-573723
-573769
-573693
-573703
-573897
-574021
-573872
-573934
-573962
-574182
-574247
-574402
-574227
-574400
-574543
-574639
-574525
-574539
-574804
-575048
-575140
-575250
-575168
-575288
-575457
-575566
-575491
-575569
-575768
-575898
-575903
-575891
-575916
-576010
-576155
-576230
-576153
-576109
-576333
-576568
-576683
-576706
-576577
-576696
-576821
-576876
-576936
-576878
-577117
-577205
-577215
-577307
-577179
-577301
-577410
-577488
-577397
-577304
-577524
-577620
-577628
-577606
-577431
-577491
-577587
-577646
-577579
-577517
-577712
-577691
-577566
-577497
-577269
-577437
-577539
-577557
-577504
-577377
-577531
-577634
-577578
-577639
-577452
-577599
-577640
-577708
-577623
-577638
-577779
-577965
-578026
-577931
-577928
-578128
-578254
-578338
-578272
-578233
-578548
-578711
-578820
-578873
-578890
-578999
-579161
-579328
-579285
-579374
-579683
-579867
-579800
-579693
-579564
-579718
-579828
-579950
-579899
-579863
-580177
-580298
-580405
-580402
-580258
-580560
-580675
-580647
-580666
-580624
-580826
-581001
-580988
-581030
-581026
-581165
-581370
-581385
-581329
-581359
-581470
-581635
-581767
-581792
-581620
-581882
-581967
-582003
-582005
-581968
-582160
-582285
-582320
-582401
-582348
-582404
-582441
-582614
-582531
-582475
-582714
-582868
-582932
-582944
-582856
-582984
-583190
-583187
-583256
-583222
-583503
-583611
-583629
-583749
-583719
-583763
-583835
-584158
-583857
-583829
-584027
-584244
-584198
-584113
-584118
-584242
-584317
-584357
-584245
-584172
-584400
-584531
-584514
-584482
-584354
-584466
-584495
-584515
-584483
-584312
-584322
-584403
-584349
-584284
-584234
-584293
-584313
-584245
-584200
-584074
-584178
-584212
-584255
-584293
-584123
-584101
-584121
-584213
-584104
-583977
-584061
-584169
-584229
-584093
-583989
-584098
-584087
-584166
-584319
-584259
-584455
-584485
-584508
-584548
-584507
-584652
-584735
-584791
-584759
-584724
-585024
-585103
-585199
-585150
-585046
-585171
-585284
-585354
-585287
-585335
-585442
-585563
-585556
-585504
-585380
-585299
-585364
-585412
-585151
-584992
-584879
-584798
-584612
-584283
-584012
-583788
-583498
-583156
-582688
-582352
-582063
-581799
-581510
-581031
-580535
-580229
-579899
-579490
-578947
-578484
-578358
-578077
-577704
-577366
-576880
-576623
-576417
-576186
-575813
-575477
-575402
-575262
-575173
-574827
-574477
-574435
-574324
-574078
-573958
-573805
-573884
-573805
-573693
-573616
-573494
-573585
-573462
-573489
-573427
-573150
-573443
-573505
-573538
-573526
-573411
-573472
-573521
-573703
-573635
-573601
-573807
-574014
-574168
-574192
-574098
-574281
-574398
-574621
-574637
-574636
-574977
-575183
-575285
-575366
-575349
-575610
-575680
-575811
-575884
-575837
-576087
-576198
-576223
-576392
-576566
-576374
-576535
-576639
-576610
-576614
-576735
-576874
-577007
-577068
-577072
-577168
-577319
-577438
-577421
-577502
-577694
-577930
-578020
-578115
-577954
-578184
-578269
-578436
-578457
-578514
-578699
-578871
-578935
-578966
-578892
-579121
-579341
-579231
-579239
-579217
-579551
-579623
-579741
-579600
-579539
-579660
-579822
-579808
-579761
-579715
-579819
-579898
-579964
-579978
-579873
-580006
-579990
-580029
-579946
-579693
-579927
-580044
-580048
-580093
-579865
-579888
-579756
-579817
-579783
-579643
-579801
-579875
-579767
-579584
-579360
-579468
-579628
-579528
-579398
-579337
-579408
-579443
-579385
-579517
-579307
-579300
-579349
-579279
-579191
-579123
-579291
-579330
-579459
-579359
-579283
-579374
-579394
-579446
-579346
-579254
-579436
-579609
-579695
-579667
-579587
-579624
-579728
-579858
-579838
-579831
-579937
-580162
-580229
-580189
-580205
-580222
-580372
-580425
-580385
-580375
-580609
-580636
-580842
-580930
-580807
-580873
-581007
-581085
-581117
-581005
-581290
-581482
-581511
-581611
-581626
-581699
-581760
-581919
-581950
-581873
-582087
-582197
-582251
-582300
-582192
-582402
-582496
-582551
-582455
-582506
-582659
-582914
-583020
-583054
-582961
-583025
-583163
-583217
-583198
-583274
-583289
-583520
-583671
-583631
-583607
-583765
-583735
-583829
-583846
-583830
-584032
-584212
-584044
-584175
-584206
-584427
-584416
-584595
-584489
-584479
-584674
-584776
-584921
-584846
-584825
-584975
-584940
-585153
-584985
-585067
-585258
-585376
-585383
-585354
-585359
-585540
-585492
-585663
-585610
-586124
-586016
-585958
-586054
-586141
-586051
-586189
-586258
-586311
-586312
-586210
-586433
-586516
-586629
-586583
-586435
-586504
-586650
-586720
-586572
-586571
-586803
-586850
-586836
-586805
-586704
-586792
-586621
-586512
-586374
-586126
-586155
-585954
-585849
-585641
-585292
-585088
-584786
-584337
-584000
-583583
-583256
-582955
-582732
-582268
-581895
-581572
-581208
-580916
-580298
-579798
-579586
-579254
-578948
-578736
-578539
-578326
-578011
-577775
-577599
-577385
-577365
-577129
-576917
-576797
-576897
-576436
-576260
-576116
-575883
-575832
-575996
-576015
-576091
-576066
-576062
-576298
-576342
-576524
-576490
-576444
-576751
-577037
-577168
-577575
-577366
-577388
-577441
-577498
-577521
-577561
-577766
-577981
-578185
-578227
-578228
-578359
-578255
-578233
-578319
-578399
-578638
-578838
-578995
-578966
-578910
-579045
-579020
-579298
-579147
-579255
-579488
-579733
-579840
-579912
-579827
-579914
-580060
-580133
-580094
-580112
-580280
-580884
-580661
-580583
-580408
-580592
-580709
-580803
-580734
-580893
-581157
-581525
-581563
-581594
-581774
-581998
-582198
-582403
-582344
-582336
-582548
-582698
-582937
-582911
-582783
-583111
-583189
-583256
-583169
-583215
-583493
-583597
-583704
-583543
-583471
-583653
-583805
-583944
-583970
-584447
-584252
-584121
-584188
-584587
-584163
-584155
-584241
-584141
-584049
-583916
-584180
-584148
-584195
-584078
-583999
-584045
-583938
-583935
-583796
-583703
-583757
-583745
-583811
-583483
-583492
-583398
-583431
-583454
-583285
-583440
-583283
-583243
-583182
-583101
-582906
-582942
-582993
-583074
-582913
-582835
-583039
-582915
-583008
-582919
-582898
-582991
-583043
-583027
-583047
-582965
-583220
-583249
-583363
-583171
-583270
-583361
-583482
-583295
-583275
-583373
-583504
-583575
-583780
-583751
-583671
-583801
-583687
-583890
-583881
-583797
-583993
-584130
-584159
-584124
-584018
-584135
-584223
-584290
-584300
-584229
-584320
-584367
-584344
-584290
-584131
-584251
-584605
-584266
-584127
-583868
-584018
-584103
-584091
-584005
-583823
-583919
-584348
-584076
-583915
-583769
-584024
-584121
-584255
-584231
-584317
-584634
-584596
-584711
-584717
-584814
-585124
-585341
-585499
-585611
-585654
-585889
-585895
-585850
-585977
-586296
-586243
-586762
-586531
-586534
-586421
-586485
-586606
-587134
-586788
-586694
-586834
-587075
-587037
-587067
-587089
-587220
-587325
-587251
-587336
-587192
-587520
-587962
-587841
-587741
-587883
-588032
-587871
-587866
-587815
-588014
-588121
-588166
-588132
-588117
-588310
-588387
-588405
-588376
-588343
-588423
-588583
-588417
-588781
-588301
-588189
-588002
-587818
-587658
-587238
-587103
-586959
-586685
-586355
-586021
-585744
-585427
-585098
-584648
-584226
-584032
-583749
-583457
-583057
-582686
-582328
-582024
-581677
-581303
-580932
-580708
-580506
-580273
-579975
-579619
-579423
-579263
-578938
-578781
-578453
-578369
-578344
-578241
-578130
-577819
-577706
-577599
-577539
-577406
-577181
-577316
-577345
-577379
-577296
-577124
-577198
-577254
-577320
-577270
-577185
-577269
-577424
-577400
-577294
-577142
-577210
-577193
-577204
-577205
-577045
-577185
-577300
-577298
-577264
-577232
-577377
-577504
-577584
-577635
-577706
-577937
-578172
-578271
-578390
-578534
-578772
-578973
-579125
-579167
-579205
-579317
-579448
-579602
-579647
-579584
-579829
-579903
-580040
-580083
-580023
-580214
-580407
-580525
-580614
-580444
-580583
-580753
-580802
-580923
-580922
-581056
-581183
-581336
-581402
-581359
-581545
-581610
-581712
-581815
-581795
-581963
-582054
-582221
-582365
-582291
-582482
-582576
-582639
-582652
-582596
-582779
-582921
-583115
-583253
-583132
-583259
-583398
-583444
-583515
-583456
-583661
-583804
-583966
-584089
-583926
-583923
-584005
-584128
-584113
-584069
-584280
-584314
-584320
-584458
-584193
-584272
-584370
-584411
-584397
-584229
-584319
-584507
-584569
-584416
-584228
-584303
-584438
-584499
-584483
-584281
-584397
-584464
-584615
-584612
-584503
-584516
-584573
-584621
-584623
-584538
-584721
-584803
-584847
-584819
-584699
-584773
-584857
-584808
-584903
-584688
-584729
-584779
-584738
-584701
-584512
-584481
-584471
-584458
-584503
-584284
-584369
-584380
-584365
-584409
-584237
-584261
-584323
-584435
-584352
-584299
-584418
-584539
-584663
-584617
-584575
-584619
-584775
-584822
-585000
-584996
-585163
-585488
-585773
-586075
-586059
-586358
-586601
-586583
-586536
-586597
-586862
-587046
-587235
-587194
-587128
-587279
-587382
-587474
-587555
-587458
-587673
-587840
-587981
-588043
-587993
-588033
-588270
-588417
-588411
-588369
-588582
-588725
-588879
-588884
-588851
-588916
-589092
-589181
-589300
-589213
-589353
-589575
-589709
-589805
-589809
-589903
-590032
-590043
-590177
-590059
-590064
-590101
-590188
-590069
-589891
-589795
-589800
-589727
-589550
-589367
-589348
-589435
-589430
-589459
-589234
-589352
-589382
-589473
-589404
-589331
-589332
-589407
-589478
-589492
-589361
-589316
-589364
-589234
-589183
-588925
-588837
-588914
-588804
-588561
-588259
-587969
-587752
-587496
-587162
-586664
-586431
-586229
-585825
-585427
-584945
-584500
-584231
-583879
-583501
-583006
-582631
-582454
-582142
-581863
-581411
-581133
-580923
-580642
-580423
-579997
-579813
-579749
-579605
-579405
-579044
-578774
-578674
-578513
-578279
-578118
-578055
-578201
-578172
-578157
-578039
-577980
-578067
-578007
-577959
-577817
-577982
-578121
-578273
-578319
-578249
-578324
-578397
-578446
-578620
-578481
-578540
-578666
-578847
-578850
-578798
-578921
-579118
-579225
-579336
-579216
-579323
-579561
-579645
-579815
-579720
-579826
-579999
-580040
-580136
-580065
-580200
-580455
-580707
-580758
-580773
-580904
-580980
-581061
-581128
-581097
-581159
-581409
-581553
-581735
-581701
-581664
-581876
-582025
-582124
-582028
-582145
-582464
-582545
-582672
-582698
-582824
-583083
-583095
-583288
-583336
-583418
-583676
-584001
-584142
-584083
-584261
-584587
-584716
-584957
-585041
-585154
-585445
-585687
-585795
-585681
-585646
-585781
-585881
-586013
-585889
-585987
-586191
-586343
-586399
-586382
-586440
-586485
-586511
-586603
-586374
-586372
-586650
-586694
-586765
-586575
-586532
-586622
-586686
-586673
-586572
-586699
-586811
-586861
-586871
-586687
-586614
-586776
-586844
-586805
-586694
-586702
-586786
-586809
-586889
-586836
-586759
-586901
-586984
-586950
-586835
-586921
-587163
-587197
-587134
-587086
-587199
-587299
-587296
-587212
-587289
-587463
-587500
-587666
-587559
-587517
-587624
-587760
-587886
-587830
-587866
-587958
-588115
-588164
-588120
-588123
-588157
-588229
-588337
-588320
-588333
-588514
-588578
-588623
-588539
-588578
-588585
-588663
-588754
-588512
-588488
-588744
-588747
-588787
-588703
-588534
-588649
-588643
-588670
-588480
-588426
-588697
-588707
-588784
-588781
-588649
-588725
-588755
-588816
-588769
-588819
-589074
-589117
-589229
-589202
-589177
-589445
-589518
-589731
-589708
-589899
-590157
-590393
-590552
-590626
-590785
-591037
-591275
-591560
-591591
-591775
-592141
-592166
-592124
-592036
-592132
-592386
-592446
-592497
-592347
-592439
-592761
-592913
-593079
-592969
-592935
-593146
-593211
-593372
-593329
-593474
-593580
-593685
-593809
-593749
-593703
-593846
-593958
-593981
-593802
-593804
-593968
-593916
-593896
-593687
-593367
-593305
-593239
-593044
-592609
-592273
-592106
-591814
-591486
-590966
-590416
-590075
-589709
-589282
-588629
-588163
-587896
-587486
-587083
-586506
-586063
-585849
-585516
-585144
-584699
-584385
-584278
-584090
-583899
-583577
-583188
-583102
-582954
-582690
-582399
-582199
-582303
-582176
-582174
-582039
-581807
-581841
-581774
-581670
-581610
-581809
-581977
-582038
-582071
-581978
-582175
-582276
-582440
-582482
-582419
-582719
-582947
-583045
-583120
-583149
-583428
-583653
-583820
-583889
-583939
-584326
-584634
-584746
-584897
-585104
-585391
-585717
-585985
-585999
-585973
-586236
-586480
-586660
-586729
-586739
-587004
-587186
-587343
-587347
-587387
-587680
-587838
-588033
-588083
-588085
-588352
-588567
-588641
-588636
-588737
-588989
-589202
-589290
-589383
-589420
-589631
-589733
-589931
-589982
-590102
-590371
-590458
-590648
-590709
-590703
-590980
-591101
-591229
-591148
-591119
-591259
-591289
-591285
-591207
-591084
-591020
-590930
-590843
-590565
-590424
-590436
-590282
-590278
-590172
-590134
-590254
-590213
-590176
-589963
-589877
-590013
-590148
-590064
-590001
-589793
-589824
-589784
-589789
-589653
-589498
-589609
-589633
-589519
-589451
-589204
-589326
-589249
-589200
-588960
-588946
-589078
-589063
-589096
-588905
-588771
-588899
-588841
-588947
-588730
-588652
-588818
-588895
-588852
-588794
-588697
-588746
-588744
-588807
-588714
-588722
-588862
-589006
-589067
-589104
-588998
-589137
-589101
-589259
-589249
-589208
-589435
-589510
-589639
-589649
-589615
-589871
-590083
-590134
-590051
-590106
-590313
-590524
-590630
-590602
-590494
-590581
-590570
-590701
-590577
-590444
-590653
-590739
-590782
-590780
-590776
-590881
-591020
-591267
-591213
-591229
-591533
-591750
-591901
-591900
-591832
-592043
-592180
-592253
-592285
-592276
-592576
-592657
-592758
-592823
-592834
-592990
-593066
-593216
-593079
-593121
-593329
-593482
-593475
-593514
-593508
-593623
-593820
-593896
-593713
-593747
-593906
-594000
-594055
-594044
-594014
-593962
-593971
-594022
-593935
-593903
-594203
-594359
-594364
-594271
-594148
-594275
-594329
-594296
-594197
-594209
-594412
-594547
-594598
-594567
-594446
-594554
-594442
-594336
-594164
-593960
-594085
-593981
-593745
-593516
-593081
-592781
-592506
-592189
-591818
-591398
-591194
-590854
-590538
-590075
-589631
-589293
-588900
-588588
-588122
-587602
-587457
-587243
-586783
-586492
-585886
-585702
-585501
-585240
-584910
-584487
-584505
-584276
-584103
-583917
-583650
-583576
-583564
-583433
-583262
-583186
-583309
-583274
-583357
-583325
-583238
-583361
-583533
-583530
-583411
-583398
-583569
-583596
-583717
-583740
-583629
-583733
-583817
-583947
-583964
-583965
-584121
-584340
-584397
-584576
-584449
-584586
-584705
-584758
-584822
-584798
-585030
-585192
-585217
-585289
-585215
-585428
-585452
-585559
-585536
-585593
-585867
-586000
-586150
-586133
-586053
-586273
-586432
-586431
-586491
-586416
-586753
-586884
-586939
-586918
-586764
-586918
-586878
-586902
-586946
-586900
-587326
-587610
-587553
-587620
-587619
-587929
-588138
-588242
-588203
-588309
-588591
-588683
-588763
-588890
-588879
-589040
-589223
-589297
-589277
-589260
-589591
-589831
-589923
-590052
-590140
-590292
-590299
-590552
-590603
-590630
-590948
-591150
-591287
-591583
-591653
-591934
-592195
-592267
-592296
-592179
-592415
-592512
-592669
-592695
-592584
-592627
-592641
-592790
-592673
-592570
-592711
-592747
-592748
-592714
-592550
-592599
-592554
-592549
-592586
-592445
-592585
-592680
-592768
-592715
-592620
-592719
-592808
-592757
-592729
-592628
-592810
-592819
-593004
-593100
-592975
-593197
-593246
-593278
-593268
-593079
-593366
-593547
-593711
-593872
-593844
-594072
-594142
-594074
-594037
-594116
-594432
-594548
-594720
-594754
-594531
-594771
-594978
-595130
-595113
-595137
-595334
-595581
-595748
-595852
-595666
-595880
-596034
-596152
-596113
-596044
-596330
-596562
-596698
-596741
-596669
-596938
-597010
-597112
-597156
-597153
-597382
-597507
-597761
-597986
-597801
-598130
-598219
-598333
-598310
-598382
-598683
-598850
-598999
-599138
-599011
-599187
-599408
-599337
-599459
-599481
-599854
-599963
-600108
-600173
-599960
-600301
-600502
-600515
-600578
-600612
-600982
-601164
-601344
-601509
-601408
-601663
-601775
-601868
-601854
-601905
-602187
-602360
-602541
-602519
-602514
-602679
-602797
-602876
-602864
-602682
-603024
-603057
-603130
-603082
-602949
-602854
-602721
-602601
-602327
-601952
-601910
-601685
-601420
-601123
-600720
-600470
-600174
-599813
-599365
-598848
-598663
-598444
-598153
-597727
-597356
-597123
-596779
-596565
-596018
-595700
-595617
-595474
-595185
-594876
-594441
-594188
-593754
-593400
-593031
-592612
-592457
-592403
-592268
-592188
-591916
-591953
-591823
-591872
-591738
-591592
-591792
-591841
-591838
-591849
-591838
-591868
-591923
-592023
-592087
-592038
-592329
-592398
-592600
-592618
-592597
-592812
-592957
-593067
-593020
-593184
-593370
-593558
-593647
-593802
-593851
-593994
-594045
-594298
-594369
-594406
-594782
-595062
-595164
-595375
-595460
-595706
-595833
-595989
-596089
-596129
-596474
-596799
-596948
-597085
-597088
-597164
-597316
-597529
-597460
-597481
-597684
-597942
-598147
-598138
-598067
-598352
-598241
-598583
-598618
-598641
-598968
-599128
-599289
-599372
-599290
-599457
-599456
-599498
-599603
-599726
-600232
-600322
-600464
-600561
-600485
-600758
-600722
-600816
-600807
-600772
-600978
-601174
-601258
-601419
-601199
-601369
-601372
-601406
-601273
-601124
-601335
-601428
-601427
-601414
-601291
-601361
-601451
-601734
-601495
-601340
-601491
-601576
-601569
-601565
-601334
-601442
-601391
-601434
-601275
-601194
-601380
-601367
-601391
-601380
-601214
-601229
-601299
-601277
-601177
-601045
-601174
-601303
-601354
-601347
-601286
-601325
-601355
-601414
-601411
-601328
-601498
-601637
-601553
-601569
-601595
-601697
-601857
-601883
-601760
-601771
-601932
-602196
-602262
-602466
-602491
-602574
-602727
-602988
-603048
-603206
-603557
-603830
-603998
-604256
-604184
-604456
-604544
-604597
-604722
-604669
-604927
-605062
-605124
-605161
-605130
-605396
-605508
-605438
-605604
-605602
-605791
-606002
-606099
-606239
-606175
-606347
-606469
-606548
-606531
-606542
-606928
-607066
-607197
-607404
-607369
-607595
-607683
-607811
-607789
-607788
-608036
-608213
-608267
-608356
-608505
-608575
-608668
-609146
-608982
-608922
-609084
-609282
-609364
-609654
-609523
-609733
-609806
-609955
-609977
-610042
-610305
-610471
-610564
-610583
-610620
-610822
-611042
-611171
-611120
-611151
-611349
-611520
-611573
-611572
-611496
-611535
-611575
-611566
-611386
-611232
-611284
-611105
-610994
-610773
-610414
-610150
-610001
-609677
-609191
-608877
-608745
-608490
-608148
-607812
-607440
-607106
-606935
-606620
-606209
-605886
-605740
-605524
-605388
-605044
-604760
-604688
-604414
-604201
-603885
-603720
-603742
-603720
-603546
-603440
-603189
-603169
-603117
-603035
-602849
-602525
-602654
-602752
-602568
-602448
-602375
-602369
-602303
-602276
-602144
-602035
-602215
-602330
-602319
-602293
-602276
-602434
-602445
-602501
-602533
-602518
-602747
-602788
-602812
-602941
-602986
-603274
-603437
-603523
-603578
-603606
-603797
-604060
-604238
-604293
-604266
-604429
-604511
-604543
-604532
-604594
-604843
-605110
-605184
-605219
-605199
-605439
-605611
-605703
-605771
-605737
-605955
-606068
-606252
-606264
-606333
-606496
-606623
-606723
-606747
-606791
-607044
-607263
-607331
-607357
-607336
-607644
-607769
-607860
-607992
-607873
-608126
-608320
-608449
-608493
-608461
-608597
-608718
-608839
-608813
-608846
-609036
-609298
-609353
-609478
-609426
-609486
-609534
-609574
-609564
-609487
-609583
-609826
-609852
-609858
-609771
-609832
-609841
-609942
-609796
-609775
-610046
-610123
-610071
-610012
-609877
-609996
-609990
-609919
-609895
-609854
-609939
-610003
-609961
-610038
-609945
-609982
-610076
-609996
-609811
-609734
-609976
-610162
-610216
-610247
-610044
-610127
-610212
-610208
-610130
-610113
-610309
-610423
-610482
-610402
-610479
-610509
-610511
-610625
-610598
-610503
-610759
-610895
-610927
-610913
-610906
-611032
-611062
-611173
-611028
-611069
-611254
-611458
-611470
-611547
-611462
-611427
-611712
-611745
-611617
-611778
-612036
-612213
-612220
-612362
-612302
-612429
-612513
-612619
-612539
-612600
-612817
-612928
-612920
-613034
-613022
-613197
-613342
-613450
-613359
-613304
-613510
-613786
-613855
-613901
-613838
-613986
-614097
-614213
-614234
-614205
-614357
-614533
-614644
-614747
-614619
-614719
-614933
-614953
-614927
-614917
-615252
-615388
-615589
-615557
-615548
-615628
-615769
-616261
-615863
-615871
-616152
-616307
-616335
-616360
-616451
-616633
-616795
-616845
-616863
-616854
-616744
-617044
-617281
-617243
-617192
-617312
-617409
-617397
-617262
-617053
-617228
-617123
-617469
-616841
-616606
-616315
-616054
-615875
-615522
-615060
-614901
-614579
-614292
-613968
-613607
-613168
-612837
-612475
-612061
-611656
-611216
-611147
-610891
-610607
-610317
-610094
-609981
-609678
-609237
-608982
-608910
-608770
-608592
-608453
-608149
-608087
-608108
-608100
-607949
-607724
-607856
-607903
-607813
-607825
-607757
-607809
-607842
-607872
-607722
-607728
-607911
-608063
-608185
-608339
-608313
-608539
-608648
-608677
-608731
-608793
-609097
-609318
-609240
-609433
-609632
-609789
-609991
-610213
-610347
-610433
-610724
-611009
-611264
-611392
-611439
-611651
-611859
-612000
-612083
-612160
-612393
-612672
-612742
-612943
-612945
-613152
-613328
-613488
-613572
-613655
-613864
-614057
-614352
-614490
-614431
-614614
-614775
-614953
-614944
-615027
-615262
-615484
-615609
-615651
-615643
-615788
-616052
-616143
-616107
-616130
-616357
-616494
-616577
-616877
-616863
-617027
-617177
-617258
-617331
-617347
-617545
-617827
-618001
-617947
-618052
-618147
-618263
-618366
-618385
-618289
-618492
-618636
-618803
-618711
-618545
-618816
-618852
-618934
-618885
-618705
-619007
-619154
-619177
-619125
-619147
-618999
-619195
-619202
-618933
-618868
-618908
-618864
-618920
-618895
-618688
-618723
-618640
-618636
-618458
-618267
-618347
-618435
-618386
-618262
-618137
-618135
-618219
-618151
-618007
-618112
-618409
-618486
-618938
-618602
-618413
-618485
-618630
-618684
-618644
-618593
-618726
-618970
-618991
-619047
-618997
-619113
-619211
-619151
-619127
-619134
-619422
-619506
-619559
-619628
-619616
-619753
-619948
-619915
-619855
-619869
-620181
-620285
-620443
-620457
-620483
-620651
-620737
-620816
-620853
-620900
-621127
-621400
-621599
-621696
-621614
-621934
-622039
-622265
-622326
-622385
-622542
-622786
-622972
-623127
-623174
-623448
-623691
-623860
-623970
-624019
-624368
-624683
-624906
-625292
-625068
-625064
-625175
-625382
-625340
-625375
-625761
-625985
-626156
-626214
-626265
-626320
-626489
-626514
-626569
-626416
-626679
-626751
-626781
-626640
-626549
-626625
-626647
-626574
-626511
-626327
-626381
-626457
-626310
-626181
-626082
-625967
-626041
-625979
-625681
-625450
-625065
-624965
-624738
-624356
-623967
-623731
-623433
-623075
-622727
-622296
-622145
-621812
-621410
-621012
-620655
-620402
-620099
-619710
-619391
-619067
-618884
-618704
-619045
-618337
-617940
-617757
-617443
-617366
-617243
-616989
-616991
-617083
-616948
-616882
-616773
-616783
-616810
-616873
-616716
-616737
-617073
-617231
-617268
-617352
-617349
-617631
-617843
-617969
-618137
-618171
-618529
-618880
-619109
-619209
-619327
-619605
-619921
-620079
-620171
-620348
-620804
-621107
-621369
-621510
-621615
-621996
-622151
-622390
-622448
-622475
-622726
-622923
-623064
-623220
-623288
-623379
-623579
-623763
-623813
-623947
-624302
-624408
-624618
-624675
-624505
-624831
-625060
-625241
-625225
-625297
-625562
-625845
-625975
-626003
-626058
-626442
-626566
-626682
-626667
-626717
-627006
-627312
-627565
-627733
-627682
-627948
-628055
-628242
-628303
-628864
-628870
-628855
-628987
-629084
-629141
-629339
-629478
-629638
-629607
-629722
-630056
-630228
-630297
-630301
-630288
-630429
-630467
-630641
-630610
-630559
-630868
-630915
-631061
-631001
-630984
-631282
-631388
-631420
-631389
-631237
-631522
-631668
-631768
-631802
-631668
-631804
-631929
-631904
-631845
-631811
-632014
-632166
-632323
-632258
-632283
-632319
-632452
-632422
-632441
-632436
-632669
-632912
-632902
-632992
-632919
-633083
-633177
-633271
-633221
-633236
-633487
-633624
-633654
-633630
-633637
-633826
-633855
-634010
-634029
-634049
-634315
-634343
-634397
-634255
-634317
-634609
-634805
-634846
-634829
-634874
-635076
-635228
-635384
-635339
-635259
-635538
-635685
-635736
-635757
-635768
-636101
-636202
-636311
-636346
-636334
-636560
-636661
-636834
-636798
-636752
-637039
-637216
-637352
-637134
-637340
-637541
-637613
-637796
-637780
-637843
-638134
-638333
-638441
-638499
-638427
-638653
-638971
-639041
-639118
-639144
-639388
-639532
-639665
-639591
-639654
-639953
-640035
-640173
-640168
-640135
-640401
-640623
-640656
-640774
-640690
-640904
-640962
-640996
-641055
-641113
-641320
-641415
-641493
-641507
-641495
-641628
-641593
-641630
-641493
-641815
-641621
-641590
-641453
-641268
-640946
-640663
-640122
-639982
-639582
-639231
-639004
-638622
-638214
-637760
-637091
-636825
-636360
-635864
-635223
-634748
-634394
-634085
-633624
-633141
-632395
-632085
-631795
-631462
-631217
-630978
-630859
-630679
-630487
-630135
-629886
-629925
-630188
-629829
-629614
-629425
-629455
-629578
-629599
-629425
-629209
-629330
-629448
-629472
-629534
-629470
-629613
-629743
-629957
-629892
-629868
-630096
-630189
-630317
-630337
-630384
-630540
-630721
-630895
-630892
-630887
-631098
-631282
-631412
-631464
-631432
-631754
-631935
-632058
-632135
-632159
-632374
-632524
-632587
-632702
-632742
-633072
-633267
-633416
-633508
-633514
-633756
-633864
-633968
-633995
-634099
-634448
-634748
-634923
-635125
-635253
-635585
-635795
-636103
-636175
-636428
-636852
-637178
-637538
-637748
-637915
-638283
-638607
-638799
-639018
-639212
-639546
-639698
-639882
-640055
-640031
-640301
-640574
-640728
-640863
-640888
-641222
-641483
-641619
-641737
-641604
-641904
-642069
-642233
-642192
-642230
-642532
-642703
-642820
-642766
-642781
-643020
-643073
-643243
-643130
-643156
-643336
-643462
-643492
-643584
-643514
-643565
-643669
-643638
-643561
-643513
-643699
-643727
-643819
-643716
-643702
-643773
-643794
-643909
-643783
-643641
-643814
-643915
-643909
-643876
-643961
-643889
-643924
-643870
-643673
-643769
-643831
-643728
-643840
-643746
-643847
-643851
-643902
-643992
-643859
-643985
-644144
-644200
-644144
-644121
-644303
-644297
-644421
-644479
-644297
-644549
-644759
-644897
-644873
-644914
-644962
-645109
-645241
-645127
-645022
-645095
-645202
-645131
-644968
-644765
-644680
-644692
-644528
-644325
-644175
-644447
-644720
-644692
-644655
-644588
-644747
-644864
-644901
-644823
-644976
-645059
-645145
-645213
-645180
-645224
-645299
-645423
-645409
-645300
-645478
-645600
-645745
-645663
-645399
-645696
-645679
-645808
-645817
-645722
-645890
-645989
-646073
-646216
-646142
-646364
-646425
-646429
-646444
-646405
-646579
-646726
-646794
-647295
-646964
-646930
-647131
-647137
-647171
-647122
-647412
-647468
-647563
-647681
-647726
-647779
-647908
-647906
-647796
-647818
-647778
-647850
-647711
-647501
-647228
-647078
-646830
-646590
-646223
-645808
-645539
-645240
-644869
-644476
-643945
-643618
-643201
-642877
-642459
-641946
-641663
-641295
-640975
-640579
-640112
-639794
-639665
-639272
-638883
-638669
-638703
-638657
-638650
-638575
-638279
-638115
-637960
-637927
-637903
-637649
-637710
-637800
-637838
-637866
-637793
-637797
-637878
-637955
-637971
-637910
-637977
-638253
-638345
-638405
-638311
-638534
-638690
-638953
-638931
-638966
-639155
-639352
-639654
-639631
-639718
-639844
-640060
-640340
-640410
-640418
-640633
-640932
-641109
-641211
-641226
-641533
-641627
-641801
-641814
-641781
-642030
-642264
-642548
-642596
-642736
-643350
-643180
-643193
-643303
-643244
-643529
-643700
-643853
-644133
-644058
-644144
-644306
-644545
-644560
-644543
-645140
-645178
-645391
-645504
-645562
-645702
-645817
-645981
-646055
-646069
-646329
-646549
-646657
-646849
-646766
-646963
-647057
-647215
-647255
-647277
-647504
-647676
-647771
-647857
-647806
-647906
-648095
-648198
-648145
-648085
-648296
-648511
-648569
-648559
-648607
-648656
-648804
-648928
-648963
-648929
-649099
-649322
-649436
-649632
-649577
-649552
-649801
-649980
-650088
-649990
-650163
-650427
-650526
-650612
-650454
-650599
-650765
-650806
-650836
-650752
-650952
-651080
-651149
-651334
-651269
-651326
-651504
-651569
-651532
-651406
-651663
-651831
-651875
-651983
-651893
-652014
-652015
-652107
-652209
-652074
-652302
-652444
-652559
-652670
-652626
-652665
-652686
-652852
-652921
-652891
-653546
-653447
-653457
-653510
-653391
-653668
-653766
-654022
-654129
-654071
-654187
-654369
-654436
-654460
-654354
-654474
-654616
-654761
-654774
-654702
-654870
-655171
-655270
-655414
-655351
-655427
-655496
-655581
-655585
-655538
-655648
-655826
-655854
-655911
-655815
-655819
-655906
-655894
-655963
-656106
-655975
-656013
-655973
-656070
-655856
-655970
-656244
-656157
-656448
-656436
-656527
-656660
-656816
-656914
-656736
-656911
-657106
-657197
-657396
-657272
-657391
-657564
-657727
-657938
-657779
-657912
-658038
-658020
-658139
-658050
-658139
-658342
-658409
-658616
-658449
-658518
-658601
-658715
-658785
-658701
-658755
-658903
-658962
-658712
-658602
-658546
-658430
-658204
-658132
-657750
-657529
-657450
-657068
-656736
-656209
-655849
-655600
-655185
-654756
-654293
-653950
-653643
-653332
-652899
-652310
-652088
-651797
-651510
-651230
-650708
-650530
-650403
-650205
-650000
-649695
-649564
-649344
-649260
-649243
-648870
-648946
-649049
-649082
-649024
-648784
-648805
-648939
-649084
-649091
-648907
-649084
-649287
-649330
-649606
-649450
-649617
-650025
-649944
-649988
-649903
-650300
-650328
-650391
-650505
-650543
-650616
-650746
-650918
-651074
-650960
-651152
-651351
-651519
-651710
-651618
-651772
-651848
-651998
-652363
-652444
-652692
-653188
-653423
-653729
-653463
-653708
-653872
-654058
-654186
-654309
-654502
-654740
-655304
-655271
-655105
-655041
-655400
-655560
-655618
-655652
-655894
-656176
-656067
-656219
-656301
-656464
-656599
-656778
-656931
-656866
-657095
-657292
-657335
-657421
-657481
-657498
-657806
-658028
-658221
-658151
-658286
-658539
-658588
-658716
-658688
-658874
-658947
-659117
-659241
-659138
-659203
-659359
-659368
-659522
-659404
-659377
-659483
-659610
-659989
-659654
-659631
-659808
-659848
-659833
-659668
-659575
-659692
-659725
-659844
-659648
-659627
-659809
-659783
-659743
-659586
-659552
-659623
-659743
-659815
-659658
-659705
-659836
-659875
-659813
-659687
-659656
-659778
-659767
-659765
-659668
-659685
-659835
-659896
-659853
-659742
-659807
-659901
-660005
-659996
-659844
-659937
-660224
-660229
-660275
-660124
-660226
-660349
-660379
-660501
-660288
-660455
-660616
-660661
-660766
-660672
-660719
-660776
-660818
-660916
-660833
-661071
-661195
-661277
-661416
-661261
-661331
-661450
-661564
-661705
-661623
-661766
-661908
-662036
-662070
-662011
-661924
-662142
-662355
-662457
-662350
-662527
-662751
-662784
-662951
-662811
-662854
-662972
-663142
-663348
-663180
-663256
-663468
-663622
-663752
-663689
-663803
-663940
-664050
-664202
-664197
-664307
-664475
-664624
-664699
-664660
-664639
-664861
-665034
-665151
-665062
-665075
-665347
-665463
-665466
-665361
-665441
-665655
-665662
-665690
-665586
-665807
-665947
-666091
-666183
-666053
-666149
-666353
-666423
-666785
-667121
-666836
-666914
-666992
-667147
-667103
-667172
-667354
-667383
-667316
-667455
-667588
-667751
-668385
-668099
-668005
-667979
-668019
-668043
-667998
-667731
-667612
-667469
-667391
-667133
-666734
-666462
-666198
-665924
-665598
-665084
-664740
-664594
-664194
-663805
-663198
-662767
-662533
-662089
-661809
-661227
-660882
-660726
-660415
-660067
-659632
-659246
-659183
-658897
-658674
-658318
-658101
-658112
-657897
-657936
-657558
-657340
-657472
-657437
-657404
-657139
-657106
-657243
-657252
-657217
-657116
-657045
-657215
-657288
-657395
-657425
-657496
-657811
-657871
-657975
-657967
-658102
-658351
-658531
-658615
-658638
-658824
-659125
-659409
-659497
-659602
-659630
-659820
-659865
-660127
-660196
-660348
-660645
-660711
-660965
-660851
-660901
-661304
-661574
-661892
-661942
-662083
-662359
-662523
-662688
-662818
-662905
-663233
-663387
-663604
-663560
-663665
-663974
-664151
-664288
-664216
-664385
-664620
-664812
-665048
-664950
-665131
-665467
-665645
-665840
-665835
-665878
-666080
-666264
-666440
-666343
-666506
-666717
-666793
-666900
-666924
-666963
-667058
-667276
-667384
-667326
-667379
-667704
-667778
-667796
-667700
-667659
-667851
-667968
-667999
-667736
-668286
-668184
-668256
-668294
-668184
-668121
-668275
-668242
-668403
-668265
-668215
-668406
-668479
-668449
-668325
-668398
-668386
-668417
-668045
-668272
-668498
-668532
-668556
-668430
-668258
-668366
-668397
-668485
-668322
-668308
-668500
-668559
-668607
-668436
-668424
-668547
-668520
-668612
-668501
-668489
-668606
-668740
-668805
-668702
-668570
-668704
-668744
-668843
-668764
-668711
-668988
-669090
-669105
-669062
-669009
-668973
-669158
-669870
-669361
-669316
-669590
-669715
-669761
-669748
-669677
-669867
-669956
-670007
-669991
-670013
-670326
-670442
-670519
-670545
-670525
-670678
-670825
-670944
-670868
-670950
-671199
-671343
-671516
-671397
-671387
-671590
-671777
-671929
-671786
-671918
-672117
-672289
-672340
-672335
-672129
-672518
-672710
-672838
-672774
-672897
-673060
-673139
-673332
-673294
-673239
-673462
-673463
-673659
-673604
-673625
-673895
-674014
-674159
-674085
-674115
-674299
-674400
-674386
-674430
-674531
-674739
-674965
-674995
-674941
-674882
-675039
-675150
-675194
-675069
-675121
-675398
-675517
-675550
-675572
-675665
-675986
-676089
-676111
-676076
-676106
-676382
-676384
-676540
-676343
-676251
-676334
-676262
-676263
-675971
-675820
-675833
-675768
-675491
-675021
-675160
-674539
-674145
-673870
-673331
-672908
-672649
-672273
-671986
-671453
-671132
-670820
-670471
-670226
-669763
-669323
-669216
-668955
-668618
-668305
-667753
-668245
-667696
-667374
-667047
-666683
-666846
-666688
-666709
-666510
-666404
-666436
-666487
-666517
-666448
-665858
-666533
-666654
-666829
-666738
-666700
-666949
-667167
-667281
-667278
-667351
-667702
-667915
-668095
-668091
-668128
-668335
-668539
-668730
-668844
-668929
-669294
-669410
-669574
-669700
-669696
-669989
-670178
-670366
-670394
-670500
-670823
-671048
-671236
-671267
-671250
-671424
-671601
-671871
-671801
-671957
-672209
-672418
-672618
-672504
-672631
-672806
-672998
-673144
-673178
-673240
-673597
-673602
-673786
-673802
-673866
-674074
-674272
-674356
-674452
-674470
-674819
-674928
-675147
-675069
-675116
-675305
-675505
-675664
-675589
-675745
-675971
-676208
-676309
-676304
-676176
-676296
-676468
-676590
-676476
-676457
-676682
-676739
-676811
-676787
-676767
-676974
-676982
-677070
-676941
-676836
-677029
-677152
-677235
-677587
-677153
-677129
-677264
-677229
-677178
-677159
-677173
-677406
-677369
-677268
-677120
-677220
-677249
-677315
-677098
-677115
-677200
-677317
-677378
-677278
-677077
-677230
-677223
-677264
-677066
-676992
-677174
-677266
-677301
-677129
-676966
-677157
-677228
-677177
-677053
-677068
-677350
-677430
-677320
-677231
-677125
-677274
-677316
-677474
-677424
-677378
-677610
-677635
-677719
-677639
-677645
-677889
-677979
-678021
-677998
-678140
-678275
-678525
-678586
-678572
-678824
-678970
-679098
-678956
-679012
-679320
-679397
-679626
-679590
-679446
-679705
-679713
-679901
-679890
-679856
-680131
-680253
-680342
-680231
-680204
-680471
-680617
-680649
-680608
-680672
-680848
-680945
-681103
-680975
-680940
-681159
-681303
-681498
-681432
-681364
-681727
-681909
-682050
-681921
-681920
-682078
-682163
-682310
-682323
-682426
-682661
-682448
-682948
-682966
-682999
-683214
-683436
-683511
-683526
-683654
-683927
-684098
-684211
-684213
-684327
-684477
-684646
-684574
-684736
-684817
-685008
-685209
-685201
-685219
-685262
-685497
-685565
-685707
-685574
-685447
-685776
-685943
-686086
-686087
-685952
-686149
-686256
-686191
-686258
-686137
-686335
-686444
-686399
-686304
-686117
-686219
-686155
-686122
-685924
-685565
-685549
-685409
-685071
-684616
-684106
-683907
-683549
-683067
-682594
-682078
-681865
-681315
-680910
-680416
-679762
-679477
-679082
-678770
-678282
-677834
-677610
-677249
-677026
-676599
-676147
-676027
-675693
-675456
-675148
-674925
-674912
-674794
-674624
-674416
-674143
-674137
-674110
-674111
-673929
-673804
-674384
-674237
-674176
-674007
-673892
-674125
-674203
-674339
-674375
-674322
-674571
-674731
-674805
-674845
-674843
-675014
-675228
-675258
-675287
-675417
-675699
-675843
-675931
-675905
-675938
-676232
-676605
-676841
-677054
-677286
-678210
-677805
-678019
-678054
-678107
-678520
-678764
-678895
-678958
-679107
-679471
-679641
-679862
-679919
-679893
-680309
-680445
-680665
-680687
-680746
-681091
-681341
-681427
-681463
-681471
-681778
-682018
-682185
-682265
-682850
-682743
-682864
-682995
-683094
-683038
-683945
-683740
-683758
-683779
-683793
-684129
-684359
-684350
-684463
-684397
-684750
-684920
-685065
-685087
-685135
-685423
-685529
-685687
-685812
-685846
-685917
-686204
-686233
-686360
-686384
-686629
-686751
-686874
-687014
-687009
-687144
-687324
-687340
-687179
-687117
-687161
-687265
-687271
-687133
-687086
-687235
-687146
-687119
-687042
-687036
-687161
-687171
-687192
-687202
-686735
-687031
-687101
-687129
-687130
-686964
-687165
-687223
-687291
-687199
-687055
-687145
-687272
-687329
-687359
-687251
-687399
-687521
-687714
-687570
-687493
-687659
-687744
-687798
-687828
-687535
-687942
-688118
-688216
-688206
-688181
-688437
-688557
-688649
-688611
-688577
-688783
-688793
-688956
-688890
-688853
-689040
-689217
-689322
-689286
-689316
-689533
-689510
-690139
-689811
-689675
-689814
-689936
-689960
-689981
-690022
-690202
-690286
-690443
-690318
-690248
-690465
-690592
-690618
-690532
-690558
-690797
-690840
-690885
-690886
-690662
-690822
-690908
-691631
-691031
-691208
-691179
-691207
-691224
-691349
-691372
-691297
-691306
-691296
-691330
-691244
-691448
-691497
-691568
-691327
-691652
-691730
-691837
-691796
-692017
-692108
-692159
-692208
-692060
-692238
-692285
-692553
-692571
-692513
-692786
-692884
-692993
-692936
-692892
-693157
-693216
-693348
-693270
-693150
-693527
-693644
-693649
-693607
-693577
-693673
-693660
-693696
-693502
-693335
-693483
-693375
-693256
-692943
-692541
-692410
-692117
-691794
-691391
-690912
-690730
-690307
-689980
-689475
-688874
-688630
-688295
-688033
-687519
-687081
-686961
-686678
-686282
-685969
-685462
-685343
-685110
-684873
-684552
-684064
-684101
-684019
-683956
-683682
-683411
-683519
-683388
-683906
-683441
-683206
-683258
-683339
-683393
-683250
-683183
-683475
-683593
-683713
-683658
-683678
-683912
-684166
-684294
-684308
-684706
-684541
-684788
-684933
-685004
-685099
-685487
-685614
-685837
-686046
-686017
-686268
-686526
-686742
-686741
-686796
-687024
-687335
-687611
-687701
-687739
-687952
-688175
-688593
-688427
-689023
-688918
-689074
-689124
-689181
-689189
-689440
-689522
-689746
-689791
-689946
-690249
-690392
-690524
-690668
-690935
-691046
-691285
-691377
-691450
-691777
-691981
-692058
-692096
-692136
-692444
-692635
-692802
-692795
-692836
-693089
-693312
-693400
-693432
-693427
-693562
-693703
-693814
-693761
-693751
-694108
-694286
-694327
-694280
-694176
-694377
-694457
-694552
-694440
-694415
-694513
-694592
-694600
-694504
-694414
-694371
-694370
-694468
-694379
-694161
-694282
-694450
-694373
-694265
-694073
-694057
-694066
-693961
-693903
-693750
-693925
-693922
-693885
-693785
-693578
-693689
-693671
-693614
-693412
-693183
-693581
-693705
-693650
-693628
-693454
-693534
-693481
-693585
-693590
-693378
-693655
-693728
-693764
-693812
-693497
-693649
-693807
-693784
-693873
-693707
-694017
-694026
-694161
-694160
-694079
-694200
-694388
-694411
-694460
-694503
-694626
-694843
-694900
-694912
-694807
-694925
-695043
-695130
-695146
-695077
-695342
-695426
-695512
-695348
-695456
-695623
-695661
-695811
-695873
-695707
-696008
-696119
-696192
-696207
-696093
-696303
-696329
-696533
-696548
-696465
-696614
-696851
-696887
-696856
-696725
-696840
-696986
-697613
-697333
-697186
-697469
-697488
-697351
-697586
-697473
-697660
-697712
-697819
-697809
-697828
-698339
-698299
-698222
-698203
-698099
-698246
-698381
-698491
-698399
-698424
-698549
-698677
-698693
-698700
-698540
-698774
-698721
-698787
-698796
-698679
-698863
-698957
-699041
-698890
-698568
-698869
-698938
-698992
-698917
-698824
-698996
-699164
-699293
-699479
-699275
-699588
-699787
-699731
-699728
-699729
-699979
-700066
-700149
-699934
-699816
-699879
-699819
-699739
-699480
-699165
-699142
-698996
-698593
-698259
-697694
-697494
-697167
-696633
-696107
-695482
-695352
-695067
-694721
-694157
-693577
-693319
-692923
-692645
-692201
-691762
-691582
-691339
-691071
-690702
-690355
-690287
-690258
-690075
-689806
-689610
-689569
-689619
-689417
-689193
-688939
-689026
-688975
-689039
-688896
-688834
-689003
-689195
-689132
-689123
-688861
-689106
-689303
-689462
-689455
-689470
-689759
-689964
-690751
-690306
-690246
-690351
-690550
-690730
-690959
-691020
-691274
-691524
-691663
-691720
-691762
-691980
-692253
-692314
-692524
-692638
-692944
-693158
-693300
-693375
-693378
-693747
-693912
-694092
-694168
-694259
-694565
-694769
-694949
-695053
-694959
-695285
-695416
-695626
-695741
-695700
-696015
-696160
-696337
-696313
-696303
-696606
-696645
-696776
-696747
-696836
-697127
-697082
-697201
-697232
-697249
-697662
-697832
-698000
-698107
-698081
-698383
-698480
-698540
-698599
-698556
-698740
-698850
-698969
-698889
-698577
-699017
-699206
-699187
-699198
-699016
-699104
-699291
-699215
-699160
-699027
-699113
-699168
-699206
-699191
-698950
-699084
-699094
-699121
-698911
-698751
-699011
-699072
-699047
-698980
-698820
-698870
-698965
-699025
-698877
-698853
-699041
-698891
-699058
-699012
-698941
-699159
-699215
-699022
-698847
-699289
-699481
-699496
-699537
-699393
-699547
-699610
-699737
-699671
-699614
-699861
-699909
-699991
-700012
-699927
-700122
-700123
-700239
-700240
-700239
-700427
-700582
-700697
-700783
-700661
-700852
-700986
-701108
-701033
-700975
-701264
-701343
-701321
-701459
-701226
-701371
-701490
-701542
-701553
-701459
-701624
-701720
-701734
-701647
-701531
-701639
-701675
-701713
-701507
-701356
-701420
-701610
-701675
-701575
-701256
-701417
-701501
-701570
-701827
-701812
-702081
-702140
-702279
-702146
-702005
-702170
-702281
-702391
-702411
-702441
-702708
-702823
-702870
-702822
-702750
-702932
-703085
-703151
-703157
-703078
-703354
-703381
-703416
-703569
-703422
-703572
-703675
-703630
-703661
-703587
-703813
-703995
-704076
-704037
-704078
-704210
-704256
-704429
-704409
-704467
-704753
-705005
-705120
-705293
-705376
-705710
-705858
-706057
-706268
-706357
-706569
-706652
-706696
-706533
-706236
-706172
-706280
-706170
-705961
-705656
-705576
-705293
-705080
-704618
-704074
-703638
-703422
-702999
-702472
-701954
-701582
-701193
-700866
-700309
-699768
-699418
-699128
-698710
-698283
-697946
-697687
-697504
-697129
-696953
-696450
-696438
-696238
-696135
-695926
-695623
-695718
-695734
-695701
-695516
-695438
-695527
-695609
-695605
-695547
-695428
-695606
-695788
-695795
-695914
-695786
-695929
-696100
-696181
-696191
-696195
-696640
-696779
-696887
-697007
-696917
-697225
-697427
-697607
-697555
-697621
-697897
-698067
-698341
-698428
-698477
-698593
-698819
-699002
-698978
-699023
-699260
-699430
-699684
-699832
-699714
-699995
-700169
-700274
-700293
-700336
-700678
-700902
-700984
-701101
-701048
-701306
-701431
-701596
-701724
-701729
-701964
-702233
-702449
-702417
-702414
-702597
-702716
-702893
-702942
-702916
-703213
-703373
-703447
-703438
-703462
-703535
-703672
-703795
-703843
-703756
-703982
-704043
-704149
-704221
-704135
-704274
-704337
-704396
-704409
-704341
-704601
-704703
-704776
-704773
-704559
-704702
-704798
-704834
-704804
-704707
-704839
-704911
-704950
-704890
-704645
-704745
-704657
-704648
-704641
-704416
-704507
-704592
-704579
-704479
-704298
-704302
-704218
-704230
-703956
-703905
-703990
-704015
-703921
-703879
-703340
-703484
-703548
-703534
-703480
-703237
-703360
-703467
-703239
-703269
-702792
-703089
-703134
-703185
-703146
-703068
-703258
-703233
-703345
-703219
-703150
-703249
-703292
-703408
-703323
-703215
-703512
-703531
-703542
-703601
-703469
-703602
-703623
-703704
-703736
-703681
-703951
-703992
-703965
-704068
-703951
-704199
-704264
-704221
-704335
-704275
-704517
-704528
-704541
-704655
-704485
-704735
-704848
-704824
-704923
-704773
-704926
-705037
-705134
-705174
-704985
-705178
-705308
-705343
-705288
-705249
-705441
-705579
-705697
-705800
-705574
-705672
-705849
-705877
-705933
-705768
-706021
-706050
-706111
-706153
-706007
-706206
-706283
-706289
-706345
-706143
-706417
-706594
-706580
-706453
-706277
-706575
-706563
-706612
-706592
-706473
-706644
-706799
-706697
-706798
-706698
-706682
-706703
-706866
-706825
-706783
-706963
-707097
-707092
-707117
-706879
-707032
-706974
-706897
-706825
-706409
-706633
-706690
-706429
-706272
-705852
-705595
-705372
-705131
-704735
-704147
-703998
-703737
-703442
-703044
-702449
-702012
-701611
-701074
-700689
-700221
-699992
-699596
-699191
-698832
-698272
-697939
-697674
-697279
-697016
-696580
-696358
-696179
-695990
-696150
-695403
-695178
-695075
-694918
-694591
-694428
-694529
-694409
-694329
-694212
-693920
-694145
-694053
-694103
-694009
-693791
-694106
-694104
-694181
-694092
-694082
-694188
-694329
-694439
-694372
-694388
-694583
-694793
-694854
-694993
-694862
-695064
-695267
-695351
-695440
-695473
-695455
-695741
-695891
-695980
-695911
-696054
-696213
-696222
-696403
-696334
-696668
-696715
-696787
-696828
-696847
-697086
-697327
-697539
-697552
-697559
-697714
-697834
-698004
-698124
-698024
-698283
-698535
-698604
-698709
-698710
-699034
-699140
-699736
-699483
-699285
-699560
-699770
-699747
-699780
-699803
-700136
-700339
-700493
-700607
-700520
-700697
-700845
-700947
-701022
-701102
-701378
-701623
-701578
-701672
-701598
-702171
-702077
-701988
-702134
-701978
-702250
-702360
-702460
-702516
-702218
-702279
-702986
-702602
-702463
-702262
-702443
-702532
-702516
-702357
-702205
-702321
-702249
-702169
-702129
-701891
-702061
-702132
-702046
-702244
-701854
-701801
-701777
-701778
-701619
-701477
-701601
-701649
-701534
-701456
-701281
-701340
-701292
-701398
-701294
-701187
-701350
-701389
-701386
-701446
-701293
-701372
-701497
-701541
-701521
-701439
-701649
-701793
-701854
-701897
-701767
-701883
-702027
-702159
-702176
-701993
-702239
-702327
-702348
-702316
-702182
-702454
-702542
-702596
-702553
-702478
-702740
-702812
-702842
-702808
-702745
-702887
-702998
-702972
-703009
-702954
-703035
-703223
-703306
-703253
-703133
-703310
-703442
-703439
-703463
-703401
-703635
-703703
-703737
-703710
-703589
-703773
-703781
-703893
-703750
-703986
-704152
-704165
-704286
-704091
-704294
-704397
-704444
-704405
-704298
-704495
-704700
-704695
-704676
-704546
-704761
-704837
-704992
-704798
-704755
-704945
-705146
-705162
-705280
-705086
-705312
-705416
-705462
-705512
-705412
-705691
-705863
-705785
-705842
-705659
-705841
-705954
-705952
-705950
-705824
-706020
-706081
-706148
-705895
-705780
-705800
-705637
-705540
-705392
-704928
-704903
-704480
-704191
-703606
-703149
-702852
-702599
-702198
-701815
-701194
-700916
-700433
-699824
-699485
-698904
-698510
-698214
-697710
-697301
-696736
-696486
-696307
-695890
-695518
-695019
-694708
-694517
-694292
-693944
-693540
-693466
-693414
-693147
-692926
-692658
-692454
-692437
-692382
-692201
-691955
-692003
-692043
-692042
-691979
-691741
-691858
-691838
-691936
-691910
-691827
-691940
-692001
-692047
-692152
-692072
-692213
-692272
-692369
-692481
-692299
-692604
-692801
-692845
-692843
-692831
-692929
-693088
-693173
-693066
-693034
-693443
-693531
-693613
-693634
-693564
-693672
-693854
-693954
-693935
-693826
-694081
-694209
-694290
-694419
-694254
-694419
-694709
-694619
-694778
-694810
-695055
-695287
-695322
-695431
-695328
-695583
-695710
-695900
-695920
-695923
-696239
-696395
-696486
-696646
-696620
-696705
-696818
-696988
-697025
-697089
-697260
-697447
-697592
-697610
-697348
-697649
-697704
-697794
-697719
-697739
-697910
-698079
-698034
-698140
-697959
-698029
-698118
-698091
-698096
-697922
-698023
-697996
-697968
-697962
-697690
-697732
-697765
-697736
-697524
-697384
-697463
-697361
-697315
-697197
-696974
-697052
-697006
-696939
-696802
-696628
-696697
-696599
-696557
-696478
-696169
-696209
-696244
-696286
-696144
-695924
-696026
-696090
-696170
-696028
-695939
-695968
-696058
-696022
-696640
-696068
-696165
-696125
-696064
-696124
-696018
-696184
-696206
-696255
-696119
-696127
-696346
-696460
-696448
-696570
-696372
-696479
-696608
-696750
-696735
-696720
-696931
-696945
-697046
-697098
-696898
-696782
-696807
-696856
-696840
-696687
-696863
-697077
-697139
-697060
-696840
-697041
-697134
-697233
-697226
-697009
-697231
-697389
-697461
-697393
-697249
-697378
-697418
-697452
-697401
-697389
-697643
-697731
-697740
-697591
-697553
-697713
-697792
-697699
-697734
-697926
-697980
-698001
-697978
-697865
-698045
-698116
-698138
-698131
-698045
-698234
-698357
-698380
-698345
-698133
-698288
-698388
-698509
-698471
-698478
-698580
-698711
-698781
-698745
-698709
-698852
-698924
-698952
-698932
-698816
-699143
-699247
-699310
-699351
-699118
-699234
-699281
-699332
-699416
-699139
-699532
-699554
-699503
-699421
-699219
-699165
-699182
-699060
-698805
-698539
-698464
-698116
-697870
-697418
-696818
-696388
-695981
-695471
-695006
-694343
-694069
-693701
-693170
-692502
-691833
-691463
-691003
-690594
-690118
-689391
-689177
-688756
-688321
-687843
-687333
-687102
-686809
-686476
-685983
-685677
-685585
-685255
-685110
-684775
-684318
-684272
-684118
-683921
-683741
-683861
-683604
-683411
-683229
-683159
-682898
-682894
-682854
-682815
-683021
-682679
-682759
-682726
-682741
-682502
-682751
-682712
-682684
-682705
-682578
-682800
-682880
-682845
-682693
-682713
-682924
-683071
-683097
-683200
-683077
-683304
-683350
-683475
-683536
-683384
-683520
-683576
-683580
-683611
-683509
-683661
-683844
-683870
-683901
-683701
-683873
-683912
-683979
-684105
-684023
-684303
-684446
-684545
-684483
-684333
-684514
-684644
-684784
-684781
-684752
-685008
-684985
-685094
-685146
-684993
-685178
-685254
-685250
-685217
-685107
-685430
-685438
-685485
-685473
-685222
-685400
-685324
-685326
-685345
-685244
-685328
-685327
-685259
-685284
-685026
-685019
-685074
-684911
-684770
-684704
-684816
-684830
-684675
-684688
-684423
-684418
-684315
-684191
-684163
-683940
-684040
-683909
-683770
-683669
-683411
-683362
-683190
-683124
-682939
-682747
-682755
-682733
-682695
-682541
-682217
-682212
-682210
-682114
-681969
-681813
-681914
-681889
-681766
-681687
-681386
-681445
-681443
-681288
-681317
-681121
-681197
-681186
-681180
-681079
-680968
-681020
-681076
-680958
-680952
-680762
-680880
-681123
-681183
-681132
-680859
-681041
-681064
-681148
-681128
-681001
-681115
-681203
-681320
-681239
-681140
-681226
-681318
-681313
-681292
-681234
-681340
-681493
-681605
-681572
-681412
-681510
-681520
-681620
-681689
-681564
-681920
-681916
-681964
-681920
-681875
-681992
-682098
-682188
-682181
-682070
-682240
-682352
-682370
-682451
-682313
-682439
-682559
-682675
-682643
-682557
-682784
-682937
-682960
-683036
-682888
-683039
-683033
-683174
-683082
-682915
-683125
-683343
-683312
-683221
-682995
-683143
-683210
-683273
-683162
-683006
-683140
-683272
-683279
-683202
-682927
-683051
-682997
-683081
-682886
-682843
-682984
-683037
-683021
-683067
-682794
-682825
-682894
-682901
-682834
-682730
-682832
-682973
-683302
-683008
-682812
-682841
-682903
-682801
-682726
-682642
-682623
-682643
-682510
-682310
-682099
-681849
-681604
-681382
-681027
-680517
-680232
-679963
-679514
-678902
-678348
-678021
-677524
-677149
-676469
-675889
-675447
-675016
-674542
-673909
-673360
-672917
-672429
-671999
-671472
-670842
-670557
-670054
-669732
-669347
-668728
-668525
-668214
-667777
-667424
-667069
-666976
-666790
-666574
-666293
-665875
-665764
-665699
-665494
-665333
-665076
-665094
-665093
-665062
-664919
-664695
-664838
-665006
-665134
-665082
-664936
-665175
-665218
-665210
-665255
-665200
-665358
-665195
-665479
-665463
-665384
-665667
-665779
-665853
-666109
-665870
-665925
-666076
-666215
-666198
-666206
-666408
-666635
-666702
-666707
-666578
-666841
-666943
-666986
-667147
-667056
-667309
-667426
-667493
-667495
-667438
-667723
-667855
-667863
-667982
-667941
-668264
-668295
-668501
-668539
-668480
-668686
-668897
-668741
-668867
-668972
-669245
-669351
-669508
-669566
-669540
-669781
-669861
-669962
-669945
-669842
-670151
-670156
-670242
-670250
-670090
-670232
-670325
-670426
-670419
-670276
-670468
-670534
-670684
-670626
-670414
-670531
-670424
-670523
-670370
-670240
-670361
-670773
-670436
-670324
-670049
-670104
-670042
-670098
-669894
-669769
-669861
-669868
-669776
-669621
-669996
-669492
-669391
-669246
-669051
-668915
-669006
-668931
-668928
-668783
-668481
-668637
-668638
-668596
-668609
-668436
-668515
-668598
-668582
-668497
-668298
-668403
-668479
-668445
-668275
-668277
-668369
-668385
-668435
-668400
-668222
-668312
-668409
-668362
-668346
-668147
-668365
-668451
-668470
-668428
-668270
-668412
-668386
-668393
-668355
-668293
-668475
-668477
-668427
-668450
-668373
-668443
-668452
-668425
-668299
-668305
-668403
-668442
-668480
-668464
-668232
-668380
-668406
-668412
-668382
-668298
-668342
-668416
-668397
-668374
-668085
-668197
-668301
-668323
-668348
-668256
-668356
-668404
-668455
-668499
-668309
-668359
-668332
-668428
-668450
-668246
-668415
-668435
-668510
-668389
-668207
-668270
-668233
-668317
-668356
-668298
-668346
-668461
-668449
-668409
-668202
-668389
-668508
-668632
-668471
-668366
-668583
-668671
-668776
-668701
-668577
-668736
-668776
-668812
-668674
-668489
-668748
-668584
-668698
-668685
-668586
-668821
-668779
-668762
-668710
-668535
-668794
-668811
-668859
-668734
-668625
-668741
-668732
-668775
-668872
-668819
-669050
-669144
-669032
-668941
-668768
-668753
-668568
-668445
-668204
-667833
-667807
-667482
-667277
-667101
-666281
-665985
-665549
-665140
-664675
-664077
-663794
-663482
-662977
-662403
-661753
-661382
-661044
-660561
-660080
-659798
-659631
-659025
-658574
-657968
-657925
-657477
-656988
-656776
-656389
-655926
-655785
-655634
-655428
-655166
-654798
-654745
-655241
-654585
-654429
-654180
-654218
-654159
-654157
-654075
-653875
-653983
-653927
-654005
-653877
-653808
-653952
-653986
-654080
-654282
-653975
-654104
-654151
-654184
-654216
-654076
-654404
-654530
-654576
-654512
-654425
-654571
-654639
-654781
-654722
-654640
-654998
-655090
-655178
-655200
-655077
-655270
-655391
-655442
-655459
-655340
-655689
-655782
-655821
-655924
-655880
-656054
-656107
-656305
-656391
-656271
-656499
-656617
-656737
-656844
-656813
-657059
-657133
-657255
-657211
-657255
-657508
-657611
-657719
-657713
-657640
-657901
-657933
-657982
-657902
-657844
-658073
-658205
-658274
-658187
-658142
-658222
-658286
-658333
-658256
-658164
-658352
-658393
-658342
-658142
-658055
-658191
-658215
-658103
-658055
-657871
-658032
-657999
-657914
-657740
-657559
-657580
-657499
-657461
-657271
-657085
-657133
-657166
-657128
-656987
-656653
-656536
-656449
-656387
-656164
-655985
-656079
-655998
-655958
-655771
-655498
-655531
-655452
-655383
-655414
-655145
-655254
-655221
-655088
-654971
-654879
-654934
-654802
-654881
-654688
-654554
-654741
-654702
-654705
-654641
-654375
-654445
-654464
-654481
-654438
-654358
-654450
-654582
-654509
-654441
-654355
-654376
-654420
-654522
-654387
-654411
-654470
-654578
-654544
-654510
-654438
-654639
-654717
-654849
-654888
-654626
-654923
-655031
-654968
-655046
-654961
-655055
-655148
-655239
-655332
-655264
-655368
-655483
-655521
-655588
-655487
-655624
-655628
-655697
-655698
-655630
-655752
-655890
-655831
-655943
-655824
-655877
-656002
-656085
-656091
-656021
-656145
-656329
-656268
-656354
-656260
-656388
-656386
-656436
-656379
-656366
-656594
-656667
-656726
-656711
-656613
-656651
-656703
-656793
-656875
-656860
-656996
-656993
-657179
-657123
-656927
-657055
-657232
-657299
-657256
-657165
-657373
-657518
-657532
-657657
-657424
-657635
-657799
-657767
-657831
-657722
-658013
-658083
-658109
-658149
-657989
-658118
-658230
-658436
-658425
-658249
-658602
-658744
-658920
-658908
-658832
-658960
-659110
-659674
-659353
-659334
-659496
-659687
-659789
-659792
-659776
-659837
-660009
-660122
-660019
-659969
-660132
-660136
-659995
-659763
-659432
-659302
-659077
-658853
-658500
-658078
-657832
-657496
-657152
-656704
-656114
-655792
-655411
-654921
-654485
-653888
-653640
-653158
-652749
-652293
-651613
-651339
-650894
-650564
-650101
-649600
-649416
-649195
-648907
-648546
-648041
-647960
-647712
-647524
-647001
-646885
-646898
-646672
-646289
-646046
-645747
-645698
-645539
-645411
-645157
-645038
-645170
-645153
-645163
-645118
-644829
-645018
-644957
-644965
-644973
-644968
-645135
-645201
-645272
-645246
-645160
-645330
-645537
-645553
-645610
-645480
-645663
-645774
-645859
-645796
-645702
-645792
-645870
-645868
-645853
-645663
-645844
-646403
-646110
-645994
-645786
-645950
-646009
-646062
-646203
-646080
-646239
-646234
-646317
-646334
-646265
-646341
-646488
-646529
-646652
-646619
-646825
-646997
-647120
-647157
-647047
-647204
-647321
-647388
-647465
-647448
-647607
-647786
-647795
-647787
-647694
-647829
-647889
-647971
-647923
-647805
-648068
-648048
-648106
-648013
-647783
-647815
-647923
-647898
-647700
-647612
-647774
-647716
-647584
-647534
-647324
-647338
-647218
-647065
-646990
-646789
-646953
-646835
-646783
-646574
-646277
-646345
-646327
-646229
-646034
-645867
-645946
-645949
-645856
-645688
-645496
-645401
-645354
-645595
-645242
-644846
-644940
-644919
-644925
-644787
-644597
-644667
-644596
-644650
-644479
-644435
-644614
-644677
-644537
-644609
-644467
-644498
-644542
-644547
-644608
-644533
-644715
-644672
-644780
-644801
-644657
-644672
-644785
-644782
-644748
-644700
-644822
-644918
-644889
-644854
-644771
-644750
-644848
-644874
-644789
-644672
-644817
-644874
-644973
-644965
-644648
-644853
-644866
-644948
-644955
-644836
-645028
-645073
-645088
-645142
-644946
-645145
-645278
-645851
-645563
-645349
-645606
-645723
-645877
-645885
-645792
-646051
-646248
-646303
-646320
-646315
-646611
-646827
-647014
-647045
-647054
-647231
-647366
-647540
-647677
-647661
-647926
-648065
-648158
-648175
-648197
-648432
-648532
-648670
-648666
-648680
-649035
-649088
-649103
-649130
-649002
-649217
-649306
-649233
-649161
-649136
-649379
-649461
-649660
-649515
-649510
-649645
-649769
-649896
-649797
-649743
-649881
-650085
-650100
-650095
-649983
-650106
-650179
-650191
-650186
-650125
-650318
-650426
-650424
-650381
-650306
-650457
-650444
-650485
-650373
-650269
-650463
-650363
-650384
-650248
-649848
-649982
-649779
-649648
-649458
-649065
-648966
-648693
-648335
-648018
-647434
-647096
-646708
-646355
-645861
-645253
-644999
-644608
-644052
-643691
-643015
-642664
-642281
-641883
-641388
-640831
-640517
-640117
-639829
-639372
-638906
-638621
-638333
-637973
-637621
-637182
-637014
-636790
-636647
-636324
-635707
-635853
-635639
-635459
-635292
-635129
-635171
-635118
-635046
-634914
-634578
-634640
-634662
-634654
-634583
-634441
-634656
-634671
-634740
-634717
-634648
-634759
-634887
-634764
-634888
-634885
-635071
-635216
-635240
-635267
-635223
-635422
-635482
-636056
-635692
-635600
-635836
-635987
-636086
-636026
-635987
-636167
-636234
-636305
-636306
-636284
-636551
-636688
-636750
-636671
-636661
-636870
-636912
-636883
-636994
-637018
-637312
-637581
-637830
-637838
-637857
-637953
-638081
-638236
-638235
-638337
-638653
-638734
-638931
-638981
-638831
-638913
-639071
-639133
-639204
-639110
-639784
-639524
-639419
-639371
-639748
-639588
-639449
-639401
-639331
-639283
-639487
-639509
-639426
-639299
-639156
-639255
-639128
-639050
-638942
-639021
-638988
-638826
-638757
-638407
-638482
-638776
-638397
-638163
-637905
-637927
-637930
-637747
-637632
-637357
-637322
-637138
-637141
-637034
-636946
-637009
-636989
-636903
-636843
-636552
-636605
-636573
-636607
-636518
-636324
-636552
-636465
-636393
-636330
-636162
-636321
-636243
-636228
-636220
-636177
-636235
-636355
-636364
-636289
-636247
-636333
-636397
-636442
-636373
-636346
-636609
-636626
-636656
-636784
-636651
-636866
-636904
-637020
-636955
-636892
-637121
-637316
-637406
-637495
-637357
-637493
-637625
-637660
-637736
-637684
-637872
-637993
-638022
-638073
-637993
-638092
-638150
-638240
-638327
-638227
-638490
-638635
-638650
-638587
-638473
-638731
-638742
-638808
-638861
-638764
-638982
-639086
-639149
-639113
-638987
-639185
-639237
-639223
-639307
-639129
-639265
-639385
-639392
-639472
-639221
-639359
-639373
-639366
-639289
-639132
-639359
-639299
-639328
-639230
-639125
-639236
-639260
-639227
-639254
-639212
-639431
-639436
-639394
-639266
-639151
-639309
-639349
-639406
-639338
-639203
-639371
-639499
-639662
-639775
-639698
-639697
-640097
-639894
-639834
-639728
-639898
-639923
-639993
-639955
-639811
-640001
-640097
-640117
-640087
-640085
-640292
-640327
-640363
-640356
-640179
-640215
-640230
-640200
-640141
-639957
-640087
-640011
-639931
-639716
-639377
-639239
-638935
-638617
-638276
-637833
-637683
-637306
-636953
-636461
-635933
-635531
-635126
-634802
-634293
-633755
-633496
-633106
-632723
-632219
-631542
-631400
-631030
-630832
-630266
-629759
-629487
-629151
-628866
-628565
-628038
-627873
-627615
-627397
-627132
-626898
-626880
-626784
-626688
-626549
-626161
-626304
-626149
-626084
-625985
-625881
-626018
-626097
-626055
-626017
-625823
-625925
-626086
-626108
-626159
-626338
-626375
-626449
-626460
-626362
-626406
-626633
-626815
-626929
-626840
-627094
-627197
-627244
-627212
-627221
-627383
-627556
-627632
-627651
-627657
-627823
-627980
-628068
-628054
-628017
-628169
-628241
-628353
-628369
-628286
-628610
-628729
-628776
-628911
-628878
-629073
-629292
-629386
-629565
-629484
-629702
-629902
-629955
-630109
-630003
-630209
-630350
-630459
-630480
-630510
-630774
-630851
-630944
-631034
-630769
-631046
-631190
-631276
-631185
-631130
-631391
-631477
-631562
-631511
-631290
-631457
-631469
-631530
-631529
-631374
-631424
-631507
-631416
-631304
-631013
-631058
-630977
-630986
-630855
-630642
-630722
-630648
-630549
-630331
-630126
-630199
-630078
-629940
-629710
-629567
-629458
-629518
-629445
-629365
-629033
-629057
-629018
-628868
-628815
-628625
-628642
-628638
-628603
-628499
-628338
-628319
-628232
-628309
-628143
-627961
-628096
-628170
-628131
-628159
-627870
-627989
-627955
-628029
-627940
-627811
-628003
-628090
-628017
-628145
-628003
-628139
-628328
-628294
-628258
-628262
-628550
-628538
-628624
-628622
-628548
-628625
-628747
-628720
-628799
-628808
-628926
-629099
-629138
-629147
-629034
-629245
-629369
-629544
-629520
-629544
-629862
-630019
-630112
-630159
-630222
-630341
-630402
-630473
-630600
-630559
-630839
-631079
-631191
-631256
-631114
-631348
-631474
-631556
-631540
-631553
-631760
-631877
-631933
-631995
-631831
-632019
-632039
-632080
-632074
-632005
-632208
-632376
-632481
-632408
-632332
-632489
-632567
-632619
-632623
-632492
-632720
-632771
-632823
-632810
-632783
-632909
-633036
-633055
-633053
-633070
-633217
-633424
-633531
-633551
-633457
-633686
-633777
-633907
-633952
-633940
-634088
-634054
-633974
-633719
-633869
-634113
-634158
-634258
-634185
-634122
-634282
-634420
-634501
-634477
-634337
-634506
-634622
-634721
-634601
-634563
-634794
-634967
-634992
-635010
-634808
-634925
-634988
-634918
-634970
-634783
-635022
-634896
-634768
-634576
-634316
-634283
-633992
-633813
-633494
-633038
-632901
-632436
-632197
-631749
-631191
-630773
-630288
-629956
-629444
-628971
-628785
-628397
-628036
-627607
-627015
-626672
-626357
-626033
-625487
-625042
-624760
-624482
-624193
-623874
-623322
-623126
-622803
-622487
-622265
-621942
-621915
-621780
-621594
-621343
-621129
-621010
-620974
-620962
-620842
-620703
-620689
-620748
-620665
-620659
-620480
-620569
-620530
-620621
-620566
-620465
-620702
-620794
-620772
-620668
-620567
-620589
-620690
-620761
-620680
-620567
-620663
-620795
-620880
-620829
-620849
-621201
-621338
-621343
-621401
-621348
-621546
-621844
-621866
-621966
-621853
-622062
-622173
-622249
-622379
-622326
-622621
-622718
-622765
-622838
-622721
-622997
-623162
-623297
-623344
-623405
-623790
-623968
-624107
-624324
-624237
-624477
-624737
-624907
-625000
-625070
-625405
-625710
-625833
-625795
-625932
-626137
-626253
-626464
-626532
-626553
-626823
-626927
-626973
-627072
-626830
-626908
-627061
-627189
-627155
-626998
-627201
-627274
-627184
-627171
-627043
-627031
-627166
-627032
-626969
-626775
-626829
-626776
-626794
-626616
-626435
-626430
-626292
-626333
-626233
-625971
-625991
-625937
-625799
-625687
-625332
-625454
-625337
-625263
-625110
-624828
-624856
-624904
-624802
-624646
-624365
-624324
-624378
-624322
-624240
-624044
-624043
-624153
-624043
-623911
-623810
-623823
-623829
-623841
-623790
-623604
-623744
-623827
-623841
-623801
-623609
-623673
-623749
-623703
-623761
-623660
-623818
-623869
-623907
-623903
-623775
-623835
-623924
-623978
-623894
-624016
-624041
-624037
-624011
-623948
-624108
-624289
-624252
-624232
-624135
-624505
-624511
-624577
-624446
-624283
-624376
-624538
-624560
-624563
-624559
-624826
-624773
-624818
-624843
-624696
-624838
-624915
-624988
-625030
-624840
-625074
-625430
-625282
-625262
-624982
-625073
-625141
-625282
-625256
-625232
-625251
-625282
-625319
-625624
-625189
-625262
-625329
-625344
-625894
-625376
-625402
-625316
-625274
-625239
-625099
-625196
-625150
-625240
-625265
-625052
-625251
-625201
-625193
-625067
-625073
-625157
-625222
-625347
-625872
-626031
-625665
-625667
-625706
-625642
-625399
-625526
-625736
-625866
-625809
-625716
-625795
-625874
-626085
-626108
-626000
-626156
-626062
-626287
-626190
-626247
-626359
-626446
-626811
-626861
-626798
-626669
-626659
-626709
-626752
-626669
-626990
-627486
-627773
-627307
-627106
-627184
-627359
-627477
-627391
-627351
-627518
-627461
-627478
-627373
-627109
-627127
-627001
-626895
-626898
-626664
-626280
-626025
-625809
-625451
-625257
-624719
-624445
-623981
-623553
-622949
-622667
-622391
-622044
-621598
-621064
-620849
-620538
-620213
-619941
-619433
-619250
-618933
-618782
-618467
-617954
-617850
-617564
-617338
-617131
-616797
-616889
-616697
-616510
-616316
-615968
-615924
-615895
-615817
-615674
-615586
-615587
-615649
-615600
-615473
-615391
-615352
-615406
-615369
-615393
-615308
-615433
-615507
-615498
-615501
-615373
-615455
-615594
-615589
-615657
-615625
-615792
-615918
-615978
-615932
-615778
-615890
-616036
-616169
-616163
-616138
-616294
-616401
-616500
-616497
-616280
-616459
-616817
-617005
-617231
-617213
-617469
-617639
-617738
-617824
-617837
-617994
-618188
-618299
-618394
-618512
-618750
-618827
-619117
-619107
-619142
-619292
-619439
-619583
-619741
-619736
-620003
-620260
-620452
-620484
-620460
-620593
-620746
-620846
-621196
-620996
-621196
-621246
-621356
-621554
-621759
-621547
-621566
-621532
-621572
-621464
-621655
-621736
-621811
-621787
-621612
-621726
-621719
-621725
-621575
-621386
-621530
-621542
-621486
-621345
-621092
-621122
-621119
-620676
-620775
-620702
-620600
-620338
-620192
-620174
-620131
-620142
-620023
-619835
-619910
-619907
-619926
-619813
-619439
-619551
-619450
-619519
-619345
-619297
-619395
-619409
-619294
-619325
-619109
-619196
-619183
-619225
-619027
-619053
-619284
-619345
-619363
-619241
-618846
-619033
-619141
-619210
-619206
-619047
-619269
-619308
-619271
-619147
-619281
-619228
-619311
-619320
-619182
-619364
-619463
-619381
-619315
-619356
-619463
-619490
-619573
-619633
-619478
-619713
-619806
-619922
-619920
-619749
-619816
-619955
-619907
-619899
-619864
-620136
-620202
-620298
-620227
-620109
-620257
-620402
-620473
-620506
-620479
-620687
-620670
-620877
-620874
-620746
-620979
-621059
-621251
-621217
-621216
-621393
-621489
-621493
-621573
-621461
-621655
-621669
-621763
-621811
-621775
-621953
-622152
-622228
-622260
-622120
-622315
-622450
-622570
-622586
-622566
-622707
-622787
-622930
-623037
-622887
-623035
-623152
-623251
-623295
-623233
-623484
-623651
-623780
-623823
-623774
-623937
-624031
-624143
-624614
-624314
-624543
-624584
-624658
-624740
-624626
-624760
-624854
-624965
-625052
-624956
-625166
-625275
-625341
-625303
-625011
-625374
-625500
-625571
-625370
-625480
-625738
-625812
-625994
-625911
-625892
-625974
-626047
-626082
-626031
-625887
-625914
-626085
-626134
-625981
-625775
-625841
-625787
-625637
-625458
-625157
-625224
-625001
-624828
-624428
-623883
-624114
-623467
-623005
-622481
-622000
-621804
-621342
-620919
-620477
-619778
-619424
-619007
-618655
-618181
-617770
-617460
-617210
-616915
-616549
-616071
-615856
-615552
-615230
-614876
-614567
-614418
-614301
-614034
-613860
-613503
-613419
-613179
-613138
-612914
-612720
-612769
-612776
-612821
-612640
-612478
-612601
-612556
-612585
-612605
-612538
-612665
-612707
-612839
-612816
-612744
-612943
-613052
-613092
-613151
-613107
-613356
-613576
-613659
-613635
-613536
-613804
-613953
-614034
-613922
-614098
-614272
-614434
-614563
-614710
-614581
-614874
-614951
-615026
-615101
-615165
-615351
-615553
-615728
-616060
-615739
-615891
-616084
-616181
-616218
-616323
-616559
-616732
-616856
-616931
-616828
-616966
-617083
-617243
-617254
-617244
-617464
-617685
-617794
-617974
-617927
-618171
-618331
-618394
-618459
-618510
-618827
-618832
-618961
-619002
-619354
-619194
-619257
-619270
-619329
-619236
-619458
-619508
-619592
-619507
-619334
-619486
-619520
-619588
-619579
-619396
-619528
-619560
-619648
-619497
-619275
-619336
-619329
-619309
-619244
-619144
-619224
-619249
-619132
-619002
-618790
-618801
-618784
-618393
-618589
-618512
-618552
-618471
-618476
-618373
-618054
-618009
-618059
-617986
-617937
-617806
-617909
-617912
-617854
-617752
-617561
-617589
-617694
-617625
-617534
-617470
-617622
-617465
-617582
-617530
-617395
-617635
-617685
-617762
-617710
-617629
-617818
-617932
-617908
-617899
-617820
-618055
-618146
-618169
-618155
-618069
-618251
-618443
-618484
-618443
-618373
-618511
-618686
-618682
-618705
-618707
-618945
-619038
-619083
-619194
-619089
-619211
-619324
-619424
-619562
-619528
-619653
-619747
-619790
-619858
-619734
-619943
-620082
-620206
-620087
-620077
-620333
-620453
-620513
-620599
-620519
-620628
-620736
-620822
-620883
-620880
-621134
-621257
-621380
-621368
-621324
-621455
-621478
-621611
-621657
-621567
-621801
-621901
-622032
-621889
-621792
-621989
-622153
-622198
-622181
-622083
-622274
-622467
-622487
-622503
-622391
-622602
-622642
-622734
-622565
-622690
-622860
-622844
-622964
-623038
-622917
-623133
-622998
-623233
-623222
-623425
-623570
-623848
-623682
-623512
-623757
-623765
-623911
-623848
-623864
-624096
-624225
-624280
-624266
-624197
-624132
-624310
-624415
-624437
-624394
-624610
-624719
-624836
-624785
-624586
-624751
-624903
-624927
-624950
-624872
-625133
-625262
-625187
-625298
-625316
-625444
-625431
-625458
-625435
-625388
-625582
-625750
-625804
-625803
-625555
-625648
-625528
-625587
-625469
-625241
-625216
-625150
-624872
-624610
-624172
-623963
-623742
-623399
-623055
-622565
-622451
-622026
-621804
-621390
-620841
-620592
-620213
-619911
-619573
-619119
-618895
-618672
-618284
-617859
-617436
-617244
-616959
-616840
-616504
-616272
-616168
-616077
-615875
-615689
-615245
-615271
-615239
-615179
-615069
-614919
-614988
-615015
-614856
-614995
-614733
-614815
-614816
-614878
-614849
-614778
-614960
-615061
-615132
-615161
-615290
-615240
-615252
-615362
-615218
-615315
-615643
-615706
-615816
-615812
-615712
-615963
-616184
-616314
-616355
-616362
-616642
-616796
-616836
-616871
-616819
-617009
-617136
-617278
-617401
-617344
-617685
-617795
-617944
-617879
-617836
-617990
-618116
-618432
-618472
-618523
-618850
-619035
-619199
-619190
-619218
-619414
-619520
-619603
-619668
-619680
-620074
-620200
-620281
-620365
-620329
-620516
-620591
-620727
-620718
-620772
-621068
-621177
-621228
-621274
-621183
-621357
-621542
-621579
-621588
-621544
-621753
-621896
-621941
-621812
-621766
-621848
-621948
-622088
-621921
-621920
-621846
-622064
-622054
-622001
-621819
-621926
-621980
-621861
-621785
-621609
-621730
-621699
-621672
-621571
-621286
-621335
-621340
-621258
-621107
-621072
-621077
-621072
-621015
-620958
-620735
-620816
-620709
-620641
-620563
-620477
-620645
-620642
-620551
-620490
-620352
-620386
-620402
-620404
-620381
-620363
-620585
-620605
-620700
-620996
-620652
-620769
-620827
-620944
-620865
-620858
-621040
-621057
-621067
-621100
-620898
-621053
-621129
-621223
-621245
-621219
-621450
-621422
-621491
-621547
-621352
-621594
-621587
-621593
-621569
-621421
-621709
-621766
-621788
-621702
-621538
-621630
-621738
-621797
-621710
-621672
-621761
-621845
-621842
-621835
-621736
-621897
-621899
-622007
-622062
-622122
-622402
-622440
-622483
-622455
-622676
-622723
-622890
-622970
-623009
-623236
-623379
-623434
-623558
-623516
-623748
-623874
-624002
-623995
-624041
-624322
-624508
-624617
-624720
-624670
-624946
-625040
-625074
-625241
-625264
-625551
-625693
-625757
-625864
-625751
-625966
-626170
-626317
-626287
-626246
-626476
-626452
-626649
-626690
-626604
-626765
-626792
-626886
-626860
-626786
-626950
-627009
-627098
-627610
-627077
-627117
-627056
-627084
-627030
-626855
-627074
-627185
-627134
-627085
-626920
-626971
-626970
-626955
-626864
-626751
-626724
-627214
-627038
-626838
-626643
-626668
-626607
-626579
-626355
-626126
-626091
-625937
-625661
-625298
-624758
-624652
-624359
-624028
-623635
-623114
-622897
-622578
-622177
-621664
-621160
-620898
-620514
-620129
-619647
-619015
-619064
-618857
-618462
-618147
-617740
-617401
-617235
-616962
-616642
-616328
-616338
-616186
-615975
-615577
-615354
-615198
-615183
-615260
-615084
-614891
-614970
-615007
-614947
-614834
-614717
-614721
-614767
-614814
-614831
-614710
-614896
-615131
-615103
-615182
-615094
-615215
-615371
-615268
-615552
-615506
-615870
-615997
-616117
-616189
-616079
-616376
-616516
-616677
-616839
-617213
-617134
-617220
-617444
-617450
-617236
-617604
-617772
-617931
-618044
-618039
-618389
-618532
-618712
-618836
-618665
-618918
-619050
-619188
-619218
-619229
-619568
-619642
-619597
-619746
-619717
-619865
-620045
-620076
-620163
-620046
-620334
-620538
-620531
-620473
-620364
-620520
-620548
-620586
-620606
-620616
-621006
-621136
-621310
-621257
-621070
-621379
-621457
-621477
-621421
-621402
-621642
-621694
-621667
-621642
-621574
-621641
-621663
-621771
-621723
-621594
-621728
-621855
-621912
-621917
-621685
-622281
-622061
-622067
-621882
-621763
-621882
-621965
-621980
-621904
-621823
-621822
-621842
-621928
-621830
-621747
-621885
-621947
-621864
-621779
-621657
-621817
-621622
-621712
-621686
-621463
-621623
-621621
-621590
-621575
-621375
-621462
-621437
-621546
-621508
-621422
-621486
-621635
-621580
-621548
-621503
-621606
-621576
-621621
-621576
-621484
-621588
-621742
-621816
-621779
-621652
-621789
-621855
-621865
-621962
-621922
-622095
-622169
-622266
-622267
-622178
-622359
-622442
-622508
-622653
-622528
-622812
-622930
-623051
-623157
-623031
-623241
-623444
-623636
-623683
-623731
-624100
-624269
-624427
-624426
-624408
-624505
-624525
-624531
-624578
-624555
-624846
-624728
-624830
-624777
-624803
-624980
-625055
-625192
-625125
-625098
-625410
-625430
-625567
-625572
-625506
-625622
-625735
-625815
-625702
-625657
-625867
-625908
-625983
-625883
-626096
-625963
-625847
-625894
-625819
-625713
-625909
-625938
-625910
-626366
-625896
-625941
-625932
-626066
-626018
-625905
-626085
-626190
-626351
-626196
-626092
-626359
-626399
-626543
-626490
-626501
-626770
-626887
-626947
-627005
-626864
-627044
-627158
-627314
-627416
-627355
-627615
-627842
-627957
-627974
-627885
-628058
-628239
-628380
-628390
-628355
-628687
-628830
-628984
-628884
-628896
-628974
-628933
-628909
-628781
-628532
-628596
-628584
-628403
-628071
-627725
-627520
-627276
-626944
-626537
-626122
-625916
-625531
-625113
-624566
-623949
-623618
-623276
-622730
-622211
-621667
-621282
-620929
-620420
-619870
-618998
-618923
-618495
-618192
-617689
-617175
-617005
-616785
-616602
-616359
-615969
-615855
-615609
-615481
-615249
-615037
-615127
-615053
-614923
-614759
-614678
-614706
-614704
-614954
-614693
-614545
-614747
-614791
-614869
-614739
-614655
-614850
-615037
-615245
-615267
-615172
-615577
-615803
-615970
-616116
-616140
-616451
-616674
-616964
-617005
-617224
-617544
-617810
-617966
-618213
-618167
-618443
-618650
-618819
-618845
-618826
-619229
-619386
-619613
-619540
-619568
-619758
-619873
-620027
-620131
-620085
-620293
-620519
-620655
-620776
-620805
-620980
-621122
-621248
-621318
-621334
-621677
-621812
-622023
-621863
-621847
-622006
-622144
-622300
-622281
-622216
-622347
-622511
-622551
-622385
-622284
-622406
-622449
-622440
-622361
-622240
-622366
-622381
-622286
-622125
-622008
-622095
-621917
-621960
-621765
-621572
-621775
-621744
-621714
-621636
-621470
-621499
-621440
-621418
-621314
-621084
-621189
-621131
-621097
-620919
-620675
-620795
-620730
-620563
-620560
-620355
-620347
-620369
-620307
-620157
-619991
-620601
-620232
-620060
-619900
-619719
-619878
-619983
-619942
-619864
-619655
-619839
-619887
-620002
-619889
-619834
-619957
-620029
-620161
-620126
-620030
-620229
-620161
-620268
-620386
-620269
-620646
-620716
-620913
-620932
-620841
-621113
-621104
-621184
-621248
-621280
-621512
-621638
-621532
-621623
-621651
-621828
-621874
-621949
-621880
-621835
-622133
-622357
-622330
-622323
-622295
-622363
-622445
-622591
-622498
-622484
-622758
-622793
-622930
-622824
-622799
-622966
-623054
-623050
-622996
-622913
-623107
-623146
-623203
-623119
-622922
-623012
-622983
-622993
-622891
-622764
-622887
-622910
-622776
-622671
-622448
-622586
-622627
-622844
-622808
-622744
-622953
-622989
-622998
-623000
-622905
-623018
-623093
-623077
-623073
-623054
-623197
-623295
-623289
-623255
-623078
-623230
-623425
-623435
-623390
-623302
-623596
-623637
-623702
-623659
-623585
-623759
-623904
-624026
-624040
-623983
-624192
-624403
-624480
-625093
-624591
-624701
-624824
-624912
-624864
-624865
-625056
-625308
-625432
-625421
-625303
-625460
-625601
-625821
-625814
-625871
-625998
-626168
-626279
-626212
-626538
-626677
-626700
-626749
-626638
-626792
-626860
-626870
-626727
-626617
-626657
-626633
-626476
-626339
-626086
-625946
-625805
-625616
-625154
-624716
-624545
-624217
-623953
-623432
-623033
-622782
-622477
-622069
-621541
-620966
-620696
-620411
-619989
-619524
-618962
-618800
-618478
-618239
-617769
-617291
-617052
-616736
-616520
-616202
-615956
-615819
-615654
-615522
-615260
-615032
-615015
-614929
-614890
-614679
-614506
-614686
-614657
-614597
-614548
-614434
-614511
-614663
-614685
-614636
-614593
-614877
-614970
-615036
-615054
-615002
-615291
-615389
-615482
-615603
-615455
-615838
-616138
-616575
-616534
-616697
-616891
-616950
-617010
-617401
-617395
-617634
-617720
-617726
-617923
-618106
-618206
-618306
-618394
-618654
-618836
-619055
-619039
-619097
-619256
-619314
-619390
-619545
-619639
-619944
-620126
-620217
-620175
-620615
-620577
-620612
-620661
-620775
-620815
-621094
-621293
-621365
-621409
-621368
-621482
-621646
-621763
-621765
-622191
-622062
-622149
-622176
-622115
-621959
-622161
-622237
-622223
-622169
-622117
-622287
-622364
-622374
-622241
-622138
-622283
-622143
-622024
-621968
-622031
-621843
-621777
-621698
-621442
-621510
-621434
-621282
-621169
-620898
-620981
-620789
-620696
-620555
-620226
-620227
-620104
-619945
-619741
-620019
-619700
-619601
-619537
-619253
-619140
-619216
-619086
-619044
-618999
-618920
-618930
-619082
-619057
-618937
-618949
-619080
-619116
-619228
-619215
-619147
-619457
-619619
-619672
-619676
-619663
-619874
-620105
-620185
-620207
-620239
-620495
-620634
-620626
-620412
-620332
-620525
-620689
-620684
-620686
-620607
-620812
-620976
-621027
-620997
-620881
-621099
-621154
-621217
-621169
-621204
-621334
-621471
-621475
-621368
-621233
-621335
-621363
-621370
-621253
-621190
-621553
-621336
-621259
-620991
-620921
-620950
-620919
-620896
-620848
-620906
-621225
-621276
-621187
-621099
-621302
-621363
-621357
-621240
-621463
-621506
-621514
-621528
-621420
-621554
-621532
-621604
-621512
-621545
-621802
-621835
-621882
-621896
-621753
-621902
-621918
-622015
-621925
-621939
-622102
-622273
-622297
-622287
-622184
-622373
-622525
-622657
-622702
-622721
-622996
-623068
-623247
-623230
-623272
-623518
-623621
-623756
-623848
-623976
-624284
-624408
-624633
-624589
-624533
-624843
-624974
-625070
-624966
-624999
-625280
-625365
-625483
-625435
-625391
-625431
-625520
-625669
-625626
-625536
-625779
-625900
-625847
-625760
-625673
-625796
-625744
-625686
-625564
-625499
-625635
-625451
-625465
-625275
-625048
-625034
-624864
-624733
-624553
-624253
-624167
-624081
-623951
-623640
-623211
-623115
-622699
-622432
-622064
-621599
-621446
-621122
-620761
-620200
-619762
-619581
-619156
-618807
-618416
-617920
-617802
-617417
-617161
-616724
-616239
-616099
-615851
-615554
-615262
-614951
-614890
-614774
-614713
-614469
-614167
-614189
-613901
-613981
-613841
-613779
-614002
-613997
-614034
-613864
-613848
-613952
-613904
-613942
-614013
-614067
-614312
-614379
-614583
-614644
-614636
-614825
-614979
-615137
-615091
-615172
-615465
-615603
-615661
-615702
-615686
-615949
-616085
-616137
-616219
-616226
-616465
-616510
-616714
-616711
-616767
-616897
-617070
-617185
-617020
-617033
-617310
-617392
-617510
-617472
-617359
-617469
-617489
-617532
-617487
-617493
-617629
-617726
-617754
-617736
-617771
-617941
-618163
-618255
-618222
-618318
-618573
-618739
-618849
-618850
-618824
-619066
-619174
-619308
-619249
-619334
-619560
-619643
-619671
-619690
-619565
-619705
-619837
-619886
-619857
-619836
-620075
-620173
-620261
-620129
-620146
-620321
-620345
-620392
-620276
-620313
-620373
-620358
-620430
-620398
-620210
-620430
-620424
-620375
-620218
-620092
-620249
-620293
-620286
-620007
-619869
-619931
-619959
-619921
-619783
-619627
