PPG
-693506
-693566
-693629
-693762
-693927
-694032
-694115
-694311
-694451
-694488
-694501
-694665
-694793
-694828
-694910
-694777
-695054
-695255
-695402
-695476
-695507
-695610
-695668
-695765
-695947
-695935
-696017
-696155
-696231
-696248
-696347
-696308
-696462
-696589
-696401
-696689
-696835
-696987
-696976
-697046
-697072
-697066
-697229
-697298
-697392
-697526
-697643
-697625
-697808
-697795
-697796
-698197
-698048
-698149
-698090
-698217
-698392
-698548
-698523
-698474
-698518
-698905
-698851
-698911
-698916
-699258
-699284
-699366
-699372
-699346
-699392
-699472
-699596
-699739
-699764
-699945
-700186
-700115
-700173
-700176
-700254
-700393
-700451
-700489
-700643
-700609
-700795
-700961
-700920
-700947
-701010
-701071
-701203
-701215
-701219
-701363
-701296
-701337
-701222
-701110
-701035
-700851
-700689
-700406
-700215
-699915
-699741
-699225
-698704
-698143
-697767
-697261
-696704
-696181
-695665
-695097
-694593
-694044
-693495
-692870
-692337
-691791
-691268
-690867
-690308
-689864
-689433
-689090
-688580
-688054
-687680
-687319
-687019
-686749
-686336
-686175
-685924
-685600
-685284
-684996
-684016
-683925
-683692
-683501
-683492
-683380
-683345
-683431
-683559
-683477
-683516
-683601
-683536
-683496
-683472
-683587
-683714
-683842
-683828
-683892
-684005
-684044
-684074
-684016
-684130
-684201
-684235
-684360
-684382
-684539
-684616
-684625
-684730
-684740
-684676
-684739
-684794
-684828
-684811
-684854
-684905
-685005
-685053
-684942
-684935
-684886
-684998
-685049
-685026
-685119
-685114
-685063
-685119
-685031
-685064
-684933
-685026
-685076
-685051
-685205
-685230
-685239
-685207
-685136
-685113
-685144
-685293
-685324
-685272
-685255
-685518
-685598
-685705
-685582
-685618
-685572
-685669
-685816
-685769
-685950
-685940
-685884
-686003
-685943
-685935
-685873
-686021
-686009
-685915
-686020
-686029
-685900
-685904
-685771
-685703
-685721
-685756
-685765
-685654
-685755
-685707
-685616
-685586
-685479
-685398
-685336
-685181
-685187
-685161
-685132
-685038
-685037
-684879
-684811
-684838
-684726
-684639
-684550
-684543
-684590
-684601
-684388
-684314
-684257
-684143
-684109
-684078
-684093
-684012
-684084
-684162
-684174
-684041
-684020
-683885
-683959
-684001
-683998
-683943
-684126
-684086
-684069
-684133
-684082
-684572
-684203
-684240
-684288
-684387
-684521
-684475
-684488
-684589
-685108
-684736
-684679
-684815
-684791
-684793
-685000
-685145
-685135
-685166
-685145
-685205
-685242
-685224
-685394
-685335
-685525
-685710
-685674
-685737
-685709
-685634
-685732
-685848
-686456
-686188
-686196
-686287
-686234
-686379
-686284
-686386
-686429
-686521
-686568
-686663
-686740
-686791
-686892
-686980
-686922
-686978
-687096
-687110
-687295
-687216
-687336
-687494
-687495
-687503
-687441
-687565
-687588
-687757
-688021
-687992
-688309
-688416
-688710
-688521
-688017
-687869
-687812
-687614
-688059
-688416
-688902
-688981
-689274
-689011
-688637
-688377
-688306
-688207
-688622
-688885
-689330
-689573
-689752
-689551
-689141
-688934
-688902
-688762
-689176
-689595
-690076
-690189
-690430
-690256
-689830
-689638
-690054
-689549
-689865
-690303
-690884
-690966
-691133
-690874
-690486
-690204
-690200
-689979
-690353
-690764
-691182
-691341
-692146
-691486
-690922
-690730
-690639
-690533
-690900
-691343
-691628
-691845
-692068
-691750
-691419
-691085
-691092
-690869
-691187
-691454
-691867
-692037
-692181
-691842
-691356
-691099
-690895
-690542
-690640
-690852
-691026
-690832
-690745
-690044
-689206
-688458
-687660
-687103
-686949
-686830
-686625
-686212
-685867
-685103
-683976
-683153
-682452
-681769
-681598
-681396
-681292
-680854
-680546
-679823
-678869
-678098
-677615
-676854
-676863
-676864
-676842
-676618
-676572
-675985
-675303
-674753
-674381
-673853
-673975
-674210
-674438
-674351
-674553
-674120
-673566
-673194
-673155
-672832
-673074
-673463
-673798
-674040
-674297
-673944
-673589
-673102
-673203
-673033
-673483
-673977
-674402
-674691
-674915
-674728
-674319
-674753
-674337
-674007
-674407
-674754
-675386
-675632
-675750
-675568
-675283
-674954
-674899
-674710
-675137
-675599
-676090
-676198
-676557
-676257
-675914
-675697
-675587
-675156
-675728
-676156
-676638
-676757
-677068
-676833
-676414
-676180
-675987
-675648
-676275
-676583
-677064
-677274
-677545
-677237
-676906
-676701
-676624
-676290
-676742
-677148
-677674
-677878
-678190
-677915
-677494
-677218
-677266
-676971
-677504
-677822
-678285
-678445
-678876
-678611
-678085
-677786
-677637
-677319
-677825
-678154
-678471
-678618
-679002
-678635
-678207
-677746
-677598
-677320
-677773
-678001
-678356
-678529
-678768
-678371
-677850
-677452
-677314
-676831
-680907
-678586
-678092
-678039
-678230
-677805
-677224
-676850
-680311
-677355
-677029
-677137
-677399
-677583
-677817
-677450
-676966
-680017
-677470
-676470
-676724
-677026
-677427
-677524
-677883
-681301
-678236
-677138
-676952
-676553
-676985
-677411
-677648
-681609
-679335
-678450
-677646
-677453
-677342
-677157
-677689
-678032
-678580
-678740
-679016
-678921
-678413
-678227
-678120
-677920
-678575
-678963
-679386
-679538
-679915
-679801
-679363
-679099
-679075
-679169
-679539
-679889
-680944
-680044
-679959
-679779
-680370
-680740
-681177
-681421
-681776
-681456
-681104
-680890
-680867
-680591
-680917
-681493
-681893
-682125
-682505
-682266
-681843
-681647
-681529
-681141
-681789
-682264
-682615
-682886
-683230
-682982
-682632
-682893
-682495
-681870
-682590
-682919
-683436
-683593
-683757
-683643
-683333
-683059
-682930
-682775
-683267
-683661
-684036
-684302
-684522
-684338
-683944
-683772
-683687
-683374
-683971
-684373
-684844
-684977
-685300
-684986
-684611
-684397
-688086
-685195
-684949
-685098
-685401
-685683
-686043
-685844
-685747
-686470
-685427
-684874
-685335
-685736
-686196
-686436
-686741
-690251
-687212
-686174
-685834
-685412
-686072
-686376
-686804
-690713
-688356
-687439
-686842
-686526
-686384
-686186
-686689
-687012
-687551
-687747
-688091
-687871
-687309
-687127
-687082
-686737
-687360
-687827
-688207
-688399
-688679
-688535
-688182
-687785
-687766
-687538
-688067
-688404
-688807
-689094
-689403
-689205
-688781
-688473
-688346
-688121
-688680
-688992
-689434
-689646
-689813
-689502
-688919
-688619
-688475
-687832
-688144
-688171
-688067
-688050
-687963
-687404
-686514
-685639
-684926
-684155
-684109
-683760
-683672
-683361
-683032
-682250
-681294
-680436
-679774
-678587
-678689
-678503
-678486
-678170
-678003
-677316
-676457
-675703
-675193
-674523
-674591
-674583
-674656
-674497
-674474
-673968
-673330
-672832
-672897
-672109
-672446
-672539
-672759
-672845
-673017
-672760
-672274
-671921
-671787
-675143
-673023
-672542
-672752
-672953
-673126
-672937
-672735
-676076
-673483
-672468
-672718
-673132
-673545
-673805
-674170
-675716
-674676
-673811
-673515
-673136
-673748
-674236
-674669
-674868
-678920
-676133
-675116
-674677
-674593
-674276
-674815
-675158
-675645
-675871
-676190
-676082
-675663
-675344
-675375
-674926
-675552
-675856
-676338
-676566
-676871
-676710
-676421
-676060
-675989
-675654
-676197
-676631
-677042
-677217
-677480
-677443
-677041
-676771
-676776
-676462
-676955
-677355
-677676
-678104
-678367
-678363
-677961
-677797
-677663
-677432
-677842
-678261
-678669
-678835
-679084
-679038
-678612
-678273
-678249
-677841
-678285
-678533
-678964
-679192
-680053
-679396
-678755
-678339
-678226
-677799
-678208
-678497
-678844
-679042
-679168
-678936
-678469
-678119
-677948
-677565
-677852
-678101
-678425
-678638
-678650
-678515
-678035
-677615
-677458
-677070
-677502
-677705
-678099
-678187
-678395
-678266
-677792
-677470
-677288
-680682
-678445
-677919
-678217
-678390
-678495
-678418
-678021
-681461
-678702
-677596
-677754
-677950
-678487
-678729
-678900
-678843
-680253
-678701
-678276
-677822
-678286
-678592
-679104
-679300
-683218
-680560
-679467
-678879
-678812
-678550
-678922
-679288
-679777
-679996
-680166
-680191
-679848
-679542
-679428
-679206
-679603
-680034
-680403
-680661
-680898
-680867
-680410
-680203
-680091
-679784
-680265
-680670
-681102
-681384
-681477
-681507
-681240
-680961
-680818
-680566
-681131
-681500
-682024
-682255
-682479
-682517
-682153
-681916
-681813
-681505
-682006
-682492
-682953
-683304
-683426
-683348
-682967
-682779
-682657
-682503
-682932
-683393
-683924
-684147
-684350
-684261
-683940
-683669
-683623
-683426
-683754
-684248
-684673
-684927
-685185
-685197
-684827
-684515
-684487
-684249
-684699
-685054
-685567
-685816
-685977
-685923
-685613
-685311
-685166
-684934
-685358
-685662
-686197
-686438
-686701
-686720
-686403
-686152
-685989
-689492
-687287
-686777
-687096
-687345
-687496
-687507
-687113
-690373
-687790
-686869
-687057
-687374
-687858
-688208
-688349
-688400
-691720
-688817
-687999
-687389
-687793
-688152
-688602
-688916
-692823
-690243
-689082
-688661
-688409
-688099
-688468
-688892
-689362
-689600
-689593
-689728
-689146
-688967
-688841
-688569
-688747
-689044
-689334
-689404
-689254
-688961
-688319
-687667
-687075
-686515
-686244
-686261
-686163
-685861
-685533
-685017
-684160
-683276
-682553
-681715
-681375
-681343
-681217
-681005
-680563
-680068
-679196
-678416
-677841
-677293
-677086
-677066
-677179
-676997
-676844
-676623
-675796
-675183
-674755
-674237
-674295
-674506
-674759
-674774
-674675
-674538
-674083
-673669
-673315
-673120
-673214
-673548
-673892
-674218
-674264
-674271
-673855
-673500
-673504
-673363
-673548
-673942
-674488
-674670
-674884
-674988
-674561
-674345
-674319
-674230
-674482
-674952
-675499
-675705
-675980
-676123
-675767
-675480
-675468
-675395
-675561
-676043
-676567
-676872
-676988
-677053
-676719
-676464
-676251
-676133
-676327
-676735
-677180
-677426
-677669
-677754
-677245
-676938
-676839
-676681
-676930
-677296
-677749
-678004
-678163
-678355
-677912
-677551
-677427
-677331
-677596
-677947
-678492
-678802
-678923
-679012
-678579
-678215
-678112
-677931
-678077
-678563
-678857
-679140
-679202
-679312
-678852
-678405
-678200
-678110
-678119
-678321
-678620
-678819
-678894
-678886
-678326
-677879
-677614
-677303
-677268
-677589
-677940
-678087
-677975
-677934
-677387
-676917
-676519
-676337
-676409
-676658
-676977
-677140
-677000
-679980
-677377
-676258
-675726
-675526
-675471
-675893
-676030
-679975
-677313
-676653
-675812
-675403
-675154
-675050
-675034
-679034
-676890
-676227
-676095
-676146
-675591
-675260
-675160
-675118
-677927
-676362
-676189
-676234
-676341
-676532
-676149
-675807
-675737
-675761
-675792
-676239
-676715
-677010
-677194
-677328
-676901
-676651
-676641
-676652
-676679
-677121
-677632
-677940
-678126
-678269
-677798
-677675
-677577
-677526
-677614
-678054
-678581
-678832
-679006
-679179
-678801
-678505
-678370
-678439
-678443
-678855
-679323
-679590
-679761
-679975
-679542
-679246
-679160
-679128
-679109
-679644
-680070
-680409
-680470
-680706
-680240
-679906
-679867
-679761
-679712
-680210
-680645
-680873
-681086
-681272
-680823
-680499
-680364
-680094
-680131
-680687
-681126
-681448
-681550
-681759
-681440
-681032
-680855
-680821
-680796
-681378
-681678
-682022
-682099
-682289
-681860
-681476
-681337
-681259
-681233
-681789
-682222
-682459
-682586
-682775
-682249
-681916
-681803
-681804
-681668
-682172
-683074
-682968
-682939
-683030
-682528
-682218
-682060
-681964
-681938
-682405
-682759
-682960
-683080
-683260
-682749
-682340
-682324
-682312
-682128
-682580
-682906
-683247
-683384
-683581
-683145
-682784
-682575
-682501
-682409
-682852
-683363
-683745
-683832
-683990
-683595
-683211
-683092
-683080
-682958
-683478
-683828
-684231
-684319
-684539
-684106
-683742
-683558
-683604
-683365
-683867
-684158
-684432
-684474
-684655
-684050
-683476
-683111
-682969
-682487
-682640
-682588
-682538
-682266
-682041
-681050
-680153
-679457
-678943
-682001
-679335
-678397
-677912
-677449
-677080
-675973
-675020
-678089
-674930
-673522
-673168
-673010
-672921
-672576
-672230
-674039
-671416
-670300
-669664
-669289
-669313
-669238
-669282
-669113
-672726
-669365
-667983
-667367
-667013
-666686
-667054
-667358
-667510
-667440
-667533
-667015
-666503
-666447
-666350
-666190
-666576
-667064
-667236
-667529
-667679
-667241
-666960
-666932
-666839
-666727
-667283
-667769
-668177
-668378
-668707
-668240
-667908
-667800
-667781
-667844
-668318
-668843
-669213
-669419
-669760
-669340
-668992
-668884
-668910
-668821
-669272
-669716
-670020
-670225
-670485
-670065
-669729
-669628
-669513
-669387
-669892
-670322
-670576
-670791
-671072
-670682
-670247
-670048
-670003
-669785
-670315
-670726
-671104
-671310
-671611
-670908
-670771
-670635
-670628
-670505
-670993
-671483
-671832
-672020
-672251
-671863
-671470
-671384
-671415
-671280
-671786
-672486
-672036
-671912
-671810
-672361
-672632
-672983
-673066
-673238
-672774
-672395
-672271
-671983
-671995
-672310
-672789
-673062
-673163
-673323
-672942
-672417
-672224
-672029
-671859
-672269
-672708
-672956
-673005
-673193
-672674
-672215
-671997
-671885
-671652
-672032
-672426
-672716
-672895
-673055
-672648
-672197
-672030
-671912
-671671
-672177
-672438
-672799
-672898
-673168
-672548
-672305
-672150
-672122
-672033
-672550
-672920
-673327
-673458
-673708
-673362
-672934
-672644
-672751
-672719
-673160
-673584
-674040
-674176
-674521
-674170
-673884
-673534
-673607
-673568
-674153
-674491
-674999
-675170
-678622
-676096
-675011
-674796
-674641
-674615
-675143
-675482
-675917
-679821
-677452
-676335
-675923
-675650
-675577
-675532
-675975
-680066
-677915
-677394
-677409
-676974
-676587
-676371
-676422
-679540
-677764
-677498
-677766
-677897
-678049
-677697
-677272
-677179
-677222
-677142
-677521
-678003
-678401
-678460
-678754
-678354
-678047
-677832
-677804
-677716
-678243
-678536
-678994
-679065
-679276
-678959
-678565
-678367
-678304
-677982
-678594
-678938
-679485
-679578
-679730
-679462
-679019
-678838
-678845
-678723
-679221
-679587
-679958
-679965
-680312
-679866
-679532
-679347
-679276
-679355
-679782
-680165
-680556
-680764
-680937
-680653
-680372
-680235
-680152
-680124
-680625
-680965
-681495
-681728
-681721
-681546
-681278
-681050
-681139
-681131
-681642
-682030
-682451
-682638
-682856
-682535
-682304
-682030
-681973
-681941
-682403
-682749
-683194
-683217
-683401
-683112
-682622
-682474
-682376
-682278
-682704
-683017
-683390
-683473
-683747
-683320
-682944
-682529
-682508
-682303
-682623
-682814
-683139
-683057
-682895
-682349
-681619
-681073
-680706
-680213
-680203
-680061
-679928
-679569
-679148
-678461
-677560
-676821
-676233
-675638
-675567
-675415
-675243
-674928
-674715
-673876
-673078
-672409
-671964
-671429
-671515
-671530
-671482
-671358
-671154
-670594
-669891
-669386
-669126
-668822
-669094
-669216
-669457
-669318
-669361
-669032
-668652
-668327
-668241
-668162
-668551
-668956
-669381
-669575
-669724
-669485
-669073
-669008
-669123
-669147
-669625
-670122
-670576
-670927
-671048
-670979
-670731
-670553
-670667
-671697
-672435
-671956
-672218
-672487
-672752
-672505
-672245
-672211
-675884
-673378
-673059
-673333
-673702
-673914
-674293
-673997
-677427
-674680
-674028
-673667
-674210
-674653
-675144
-675254
-676759
-676521
-675350
-675014
-674852
-674863
-675290
-675697
-676160
-676459
-676683
-676463
-676140
-676004
-675985
-676048
-676536
-676861
-677365
-677689
-677915
-677679
-677308
-677201
-677151
-677114
-677582
-677979
-678357
-678588
-678729
-678477
-678061
-677856
-677698
-677682
-678162
-678500
-678850
-678925
-679051
-678823
-678372
-678154
-677993
-677911
-678234
-678561
-678755
-678837
-678969
-678552
-678127
-677938
-677863
-677654
-677929
-678109
-678554
-678654
-678673
-678302
-677807
-677470
-677370
-677162
-677507
-677785
-678109
-678237
-678309
-677952
-677484
-677250
-677190
-676963
-677399
-677635
-678002
-678168
-678294
-677993
-677671
-677340
-677251
-677180
-677606
-677836
-678303
-678516
-678721
-678441
-678013
-677955
-677817
-677786
-678244
-678533
-678884
-679129
-679351
-679134
-678793
-678552
-678595
-678568
-678978
-679367
-679777
-679962
-680234
-680049
-679681
-679585
-679639
-679500
-680043
-680350
-680852
-681064
-681169
-681073
-680776
-680525
-680423
-680368
-680832
-681268
-681742
-681844
-682121
-681931
-681597
-681311
-681361
-681210
-681700
-682088
-682451
-682677
-682926
-682768
-682312
-682132
-682073
-681882
-682415
-682805
-683299
-683549
-683791
-683585
-683131
-682987
-682885
-682821
-683316
-683716
-684125
-684379
-684663
-684441
-684110
-683892
-683798
-683700
-684134
-684511
-684930
-685169
-685353
-688845
-685835
-684868
-684651
-684396
-684820
-685171
-685585
-687984
-686919
-685935
-685426
-685127
-685045
-684890
-685411
-685783
-689802
-687432
-686835
-686424
-685889
-685714
-685563
-685497
-689644
-687369
-687107
-687073
-687180
-686989
-686561
-686314
-686177
-686042
-686519
-686837
-687343
-687543
-687825
-687660
-687043
-686947
-686847
-686780
-687336
-687526
-687955
-688115
-688469
-688230
-687823
-687624
-687520
-687314
-687905
-688106
-688585
-688776
-688970
-688740
-688340
-688026
-687811
-687540
-687900
-688077
-688296
-688271
-688618
-687730
-686856
-686295
-685840
-685145
-685117
-684972
-684941
-684605
-684300
-683459
-682414
-681658
-681021
-680215
-680225
-679937
-679836
-679566
-679338
-678618
-677674
-676967
-676521
-675873
-675958
-675945
-676008
-675748
-675713
-675202
-674452
-673952
-673635
-673151
-673475
-672921
-672823
-672383
-672837
-673146
-673614
-673759
-674044
-673889
-673358
-673164
-673177
-672942
-673514
-674016
-674505
-674736
-675010
-674664
-674532
-674372
-674429
-674244
-674875
-675262
-675706
-676002
-676452
-676246
-675978
-675862
-675909
-675655
-676205
-676632
-677104
-677493
-677904
-677648
-677330
-677229
-677135
-676933
-677428
-677848
-678365
-678661
-679085
-678889
-678549
-678272
-678237
-678042
-678629
-679015
-679541
-679868
-680149
-679969
-679623
-679507
-679442
-679250
-679830
-680295
-680768
-681025
-681436
-681261
-680839
-680683
-680636
-680293
-680828
-681341
-681735
-682051
-682373
-682019
-681591
-681335
-681110
-680884
-685122
-682855
-682504
-682403
-682691
-682290
-681785
-681501
-681341
-682794
-681963
-681857
-682190
-682309
-682593
-682083
-681474
-681012
-681228
-681482
-681724
-681788
-682034
-685425
-682211
-681027
-680648
-680177
-680609
-680925
-681300
-681428
-681708
-681335
-680835
-680509
-680412
-679983
-680488
-680839
-681093
-681291
-681570
-681305
-680884
-680575
-680445
-680051
-680504
-680855
-681177
-681379
-681704
-681491
-680978
-680501
-680596
-680367
-680829
-681153
-681600
-681826
-682154
-681896
-681462
-681223
-681186
-680925
-681388
-681752
-682185
-682391
-682794
-682518
-682217
-681971
-681839
-682134
-682591
-682968
-683268
-683558
-683311
-682991
-682731
-682684
-682405
-683014
-683322
-683809
-684122
-684383
-684229
-683834
-683640
-683523
-683186
-684220
-684697
-684900
-685294
-684941
-684656
-684386
-684370
-684112
-684641
-685063
-685566
-685714
-686012
-685794
-685364
-685197
-685073
-684850
-685421
-685789
-686182
-686439
-686807
-686614
-686227
-685899
-685853
-685560
-686109
-686539
-686908
-687205
-687394
-687353
-686902
-686588
-686640
-686233
-686799
-687250
-687696
-687930
-688221
-688100
-687662
-687377
-687348
-686991
-687636
-687913
-688348
-688626
-688974
-688780
-688382
-688192
-688052
-687648
-688216
-688582
-689078
-689220
-689444
-689317
-688852
-688617
-688530
-688142
-688708
-689117
-689550
-689795
-690080
-689902
-689473
-689166
-689114
-688771
-689296
-689768
-690154
-690369
-690676
-690487
-690037
-689703
-689729
-689310
-689872
-690303
-690739
-690875
-691262
-691039
-690512
-690224
-690185
-689830
-690329
-690717
-691085
-691236
-691605
-691325
-690931
-690570
-690374
-689969
-690438
-690634
-690860
-690821
-690834
-690310
-689482
-688815
-688328
-687547
-687633
-687372
-687103
-686759
-686020
-685047
-684300
-683739
-682775
-682817
-682573
-682525
-682288
-682075
-681482
-680628
-679941
-679378
-678590
-678761
-678713
-678821
-678494
-678572
-678135
-677439
-677008
-676686
-676009
-676374
-676558
-676730
-676808
-676901
-676705
-676160
-675788
-675619
-674570
-675454
-675883
-676290
-676513
-676704
-676526
-676243
-675942
-675787
-675539
-676097
-679986
-677940
-677573
-677570
-677488
-677128
-676935
-676943
-680327
-678298
-677983
-678290
-678511
-678729
-678761
-678389
-678163
-679870
-678488
-678730
-679060
-679425
-679720
-680022
-679967
-683294
-680979
-679759
-679172
-679661
-679991
-680384
-680677
-680983
-680821
-680572
-680389
-680369
-680062
-680540
-680988
-681358
-681751
-681988
-681923
-681653
-681379
-681446
-681140
-681696
-682212
-682659
-682892
-683182
-683245
-682903
-682590
-682531
-682321
-682872
-683035
-683851
-684043
-684169
-684527
-683801
-683577
-683412
-683146
-683305
-683671
-684193
-684448
-684591
-684528
-684097
-683767
-683595
-683138
-683583
-683770
-684168
-684287
-684366
-684292
-683923
-683603
-683353
-682980
-683207
-683492
-683936
-683960
-683945
-683874
-683349
-682859
-682630
-682211
-682687
-683022
-683324
-683519
-683606
-683582
-683050
-682730
-682473
-681891
-682350
-682613
-682974
-683213
-683268
-683174
-682809
-682452
-682340
-682001
-682346
-682676
-683092
-683430
-683529
-683457
-682957
-682792
-682624
-682374
-682769
-683172
-683629
-683910
-684172
-684291
-683958
-683689
-683558
-683297
-683794
-684197
-684719
-685019
-685355
-685436
-685087
-684811
-684820
-684704
-684960
-685373
-685920
-686236
-686541
-686613
-686255
-686111
-686044
-685825
-686199
-686612
-687118
-687422
-687663
-687738
-687377
-687150
-687018
-686907
-687202
-687644
-688156
-688465
-688613
-688626
-688386
-688022
-688002
-687777
-688090
-688527
-688904
-689181
-689461
-689517
-689166
-688805
-688629
-688439
-688783
-689148
-689674
-689900
-690129
-690145
-689762
-689423
-689305
-689109
-689425
-689798
-690222
-690368
-690499
-690602
-690100
-689698
-689547
-689120
-689459
-689884
-690342
-690520
-690592
-690444
-690079
-689641
-689592
-689283
-689401
-689765
-690173
-690325
-690184
-690453
-690094
-689727
-689538
-689391
-689493
-689800
-690163
-690480
-690619
-690747
-690255
-689970
-689939
-689744
-689876
-690318
-690792
-691104
-691307
-691336
-690955
-690779
-690729
-690549
-692155
-692286
-691856
-691453
-691392
-691262
-691293
-691676
-691965
-692106
-692171
-692063
-691391
-690858
-690427
-690019
-689690
-689759
-691541
-690148
-689423
-689035
-688072
-687311
-686735
-686145
-689442
-686757
-685805
-685390
-684949
-684716
-683782
-683014
-686215
-683024
-681990
-681863
-681743
-681689
-681448
-681718
-680657
-681596
-680061
-679383
-679034
-679206
-679420
-679556
-679472
-679499
-678868
-678417
-678132
-678081
-677959
-678322
-678698
-678955
-679009
-679065
-678631
-678225
-678026
-678133
-678080
-678614
-679027
-679323
-679487
-679669
-679207
-679017
-678988
-678934
-679005
-679593
-680015
-680395
-680488
-680678
-680342
-680053
-680089
-679981
-680052
-680542
-681024
-681296
-681685
-681869
-681408
-681204
-681113
-681759
-681298
-681740
-682111
-682736
-682729
-682919
-682475
-682304
-682231
-682168
-682077
-682656
-683178
-683492
-683477
-683772
-683428
-683205
-683073
-683020
-683041
-683623
-684005
-684321
-684565
-684728
-684302
-683993
-684014
-684072
-683930
-684446
-684951
-685356
-685451
-685617
-685175
-684761
-684703
-684591
-684532
-685012
-685380
-685440
-685741
-685824
-685444
-684994
-684739
-684554
-684891
-685261
-685439
-685535
-685718
-685115
-684759
-684496
-684274
-684155
-684599
-684928
-685044
-685107
-685247
-684653
-684260
-684046
-683876
-683561
-684020
-684326
-684605
-684728
-684794
-684169
-683772
-683726
-683585
-683349
-683781
-684143
-684391
-684498
-684674
-684133
-683777
-683653
-683495
-683451
-683893
-684228
-684556
-684686
-684905
-684339
-684357
-684077
-684041
-683907
-684408
-684782
-685166
-685357
-685510
-685073
-684767
-684728
-684626
-684485
-685124
-685505
-685866
-686021
-686333
-685908
-685539
-685403
-685376
-685242
-685838
-686275
-686654
-686834
-687015
-686663
-686383
-686194
-686163
-686168
-686740
-687254
-687556
-687837
-688413
-687592
-687273
-687125
-687148
-687091
-687559
-688081
-688403
-688568
-688832
-688444
-688068
-688022
-687943
-688457
-688758
-689154
-689286
-689487
-689120
-688603
-688553
-688580
-688525
-689038
-689418
-689865
-690103
-690295
-689816
-689554
-689372
-689304
-689243
-689739
-690174
-690572
-690731
-690856
-690466
-690124
-689902
-689848
-689751
-690328
-690716
-691082
-691251
-691389
-691048
-690666
-690562
-690638
-690522
-691106
-695068
-692900
-692314
-692369
-691894
-691526
-691428
-691413
-691654
-693324
-692737
-692846
-692963
-693132
-692703
-692323
-692223
-695950
-693210
-692859
-693151
-693492
-693666
-693936
-693490
-696972
-694134
-693253
-692997
-693389
-693854
-694140
-694319
-694499
-694051
-693571
-693446
-693391
-693124
-693430
-693755
-693933
-693917
-693814
-693079
-692491
-691819
-691356
-690787
-690717
-690597
-690379
-690020
-689647
-688708
-687745
-686741
-686175
-685622
-685532
-685232
-685037
-684688
-684361
-683452
-682559
-681924
-681352
-680887
-680867
-680897
-680852
-680590
-680442
-679669
-679021
-678520
-678200
-677766
-678089
-678200
-678485
-678516
-678467
-677923
-677459
-677169
-677050
-676862
-677253
-677664
-678059
-678118
-678363
-678074
-677680
-677444
-677359
-677315
-677769
-678272
-678767
-679022
-679181
-678921
-678626
-678491
-678415
-678333
-678833
-679402
-679801
-679997
-680250
-679953
-679609
-679485
-679422
-679375
-679874
-680279
-680799
-681009
-681248
-680983
-680609
-680415
-680407
-680255
-680723
-681041
-681558
-681636
-681810
-681507
-681061
-680925
-680875
-680786
-681130
-681499
-681839
-681989
-682082
-681655
-681361
-681165
-681068
-681020
-681463
-681837
-682173
-682201
-682521
-682195
-681895
-681737
-681703
-681639
-681889
-682376
-682829
-682961
-683288
-682946
-682503
-682312
-682255
-682261
-682670
-683103
-683524
-683664
-683850
-683571
-683131
-682852
-682799
-682600
-683082
-683543
-683927
-684042
-684138
-683833
-683400
-683210
-683187
-683084
-683486
-683797
-684159
-684299
-684319
-684080
-683581
-683360
-683282
-683040
-683523
-683826
-684101
-684234
-684364
-684061
-683629
-683405
-683210
-683025
-683339
-683712
-684164
-684186
-684305
-683957
-683528
-683287
-683128
-683028
-683374
-683709
-684063
-684144
-684289
-683926
-683554
-683380
-683257
-683072
-683513
-683801
-684192
-684267
-684484
-684140
-683874
-683610
-683508
-683451
-683877
-684282
-684540
-684678
-684804
-684520
-684219
-683867
-683848
-683721
-684207
-684488
-685252
-685162
-685179
-684910
-684602
-684281
-684189
-684098
-684449
-684766
-685197
-685426
-685516
-685163
-684906
-684640
-684556
-684536
-684925
-685271
-689520
-686999
-686360
-685883
-685406
-685267
-685281
-685111
-689370
-687025
-686728
-686705
-686783
-686534
-686263
-686017
-686699
-687285
-686820
-686933
-687311
-687492
-687095
-687424
-687662
-688041
-688176
-688423
-688154
-687783
-687613
-687406
-687457
-687920
-688308
-688797
-688883
-689053
-688873
-688603
-688308
-688314
-688242
-688679
-689059
-689410
-689615
-689794
-689589
-689283
-689044
-689054
-688956
-689452
-689769
-690229
-690487
-690781
-690490
-690133
-689917
-689956
-689859
-690242
-690679
-691153
-691301
-691476
-691260
-690970
-690656
-690630
-690568
-690997
-691399
-691809
-691983
-692177
-691863
-691378
-691206
-691137
-690869
-691482
-691623
-691777
-691733
-691677
-690976
-690458
-689844
-689407
-688891
-688775
-688613
-688424
-688006
-687652
-686834
-685781
-684946
-684659
-683629
-683297
-683078
-682853
-682390
-682048
-681162
-680179
-679404
-678814
-678201
-678217
-678047
-678075
-677904
-677663
-677607
-676509
-675809
-675390
-674953
-675282
-675413
-675561
-675560
-675595
-675182
-674396
-674276
-674266
-674030
-674402
-674687
-675206
-675231
-675488
-675255
-674919
-674695
-674676
-674572
-675241
-675600
-676045
-676395
-676647
-676470
-676189
-676048
-676163
-676085
-676588
-677123
-677603
-677787
-678168
-678064
-677827
-677623
-677680
-677612
-678189
-678515
-679113
-679369
-679655
-679517
-679125
-678933
-678903
-678815
-679211
-679617
-680054
-680381
-680632
-680378
-680079
-679845
-679799
-679589
-680145
-680501
-680917
-681118
-681398
-681163
-680746
-680527
-680478
-680308
-680868
-681206
-681565
-681869
-682115
-681949
-681581
-681367
-681354
-681244
-681675
-682011
-682480
-682717
-683086
-682822
-682407
-682178
-682051
-681888
-682303
-682665
-683161
-683273
-683467
-683175
-682852
-682501
-682293
-682064
-682425
-682847
-683085
-683229
-683425
-683115
-682571
-682224
-682085
-681818
-682181
-682532
-682873
-682914
-683017
-682622
-682137
-681906
-681752
-681316
-681791
-681951
-682315
-682509
-682740
-682318
-681865
-681609
-681387
-681043
-681454
-681794
-682252
-682373
-682761
-682409
-682029
-681749
-681668
-681373
-681792
-682162
-683094
-684247
-683634
-683094
-682513
-682276
-682249
-681874
-682460
-686558
-684365
-683838
-683857
-683648
-683308
-682958
-682899
-686341
-684283
-683938
-684175
-684304
-684673
-684407
-683957
-684504
-685064
-683891
-684208
-684531
-684997
-685175
-685542
-685241
-684794
-684582
-684481
-684264
-684917
-685358
-685824
-685958
-686404
-686137
-685583
-685477
-685499
-685220
-685756
-686130
-686686
-686943
-687337
-687084
-686698
-686446
-686392
-686077
-686763
-687159
-687589
-687884
-688221
-688031
-687609
-687329
-687360
-687115
-687692
-688103
-688513
-688734
-689084
-688809
-688416
-688248
-688123
-687885
-688396
-688786
-689280
-689515
-689834
-689656
-689206
-689071
-688907
-688609
-689158
-689628
-690056
-690206
-690628
-690413
-689996
-689738
-689606
-689278
-689837
-690231
-690641
-690855
-691263
-691022
-690572
-690400
-690225
-689985
-690550
-690943
-691238
-691518
-691901
-691549
-691236
-691011
-690887
-690678
-691260
-691624
-692049
-692272
-692102
-692186
-691740
-691658
-691662
-691392
-691964
-692375
-692743
-692921
-693203
-692991
-692659
-692390
-692402
-692135
-692645
-693059
-693514
-693593
-693929
-693753
-693285
-693042
-692954
-692637
-693196
-693560
-693891
-694158
-694371
-694145
-693604
-693022
-692919
-692452
-692769
-692928
-692903
-692779
-692829
-692048
-691186
-690379
-689725
-688894
-688906
-688749
-688459
-688115
-687814
-687046
-686088
-685253
-684499
-683702
-683658
-683411
-683341
-683053
-682878
-682066
-681331
-680726
-680139
-679480
-679626
-679771
-679758
-679672
-679607
-679328
-678599
-678094
-677901
-677287
-677679
-677884
-678183
-678343
-678460
-678238
-677701
-677485
-677335
-676971
-677467
-677951
-678382
-678569
-678852
-678674
-678398
-678178
-678159
-677844
-678418
-678845
-679296
-679701
-680037
-679961
-679590
-679483
-679515
-679200
-679811
-680201
-680799
-681075
-681421
-681343
-680961
-680752
-680698
-680484
-681145
-681350
-682049
-682237
-682600
-682473
-682102
-681959
-681963
-681673
-682216
-682556
-683092
-683313
-683654
-683464
-683124
-682911
-682731
-682442
-683003
-683490
-683891
-684106
-684440
-684381
-683993
-683868
-683809
-683501
-683984
-684441
-684987
-689043
-686736
-685960
-685422
-685074
-685062
-684679
-685185
-686811
-687285
-686751
-686833
-686643
-686203
-685957
-685839
-685387
-689679
-687371
-687038
-686932
-687075
-686922
-686450
-686159
-689703
-686677
-686379
-686364
-686669
-686766
-686913
-686720
-686194
-685786
-685691
-685170
-685631
-685963
-686271
-686365
-686412
-686322
-685865
-685510
-685283
-684652
-685032
-685464
-685835
-686120
-686180
-686080
-685659
-685359
-685144
-684842
-685238
-685659
-685927
-686230
-686313
-686302
-685895
-685503
-685439
-685088
-685611
-685926
-686330
-686570
-686794
-686703
-686487
-686093
-686026
-685683
-686140
-686528
-686947
-687189
-687380
-687249
-686906
-686711
-686575
-686242
-686797
-687665
-687341
-687313
-687025
-687472
-687911
-688415
-688684
-688900
-688937
-688493
-688280
-688236
-687990
-688362
-688739
-689331
-689404
-689681
-689775
-689345
-689028
-688987
-688752
-689227
-689585
-690114
-690371
-690488
-690530
-690104
-689821
-689722
-689475
-689929
-690388
-690807
-691084
-690988
-691268
-691002
-690782
-690510
-690360
-690782
-691219
-691598
-691825
-691958
-692097
-691735
-691245
-691316
-691116
-691579
-691935
-692351
-692632
-692826
-692943
-692541
-692293
-692148
-691905
-692345
-692535
-693215
-693451
-693590
-693615
-693290
-693100
-692797
-692712
-693126
-693478
-693998
-694304
-695155
-694738
-694247
-693878
-693772
-693597
-693936
-694431
-694913
-695180
-695275
-695416
-695374
-694921
-694800
-694582
-694911
-695361
-695872
-696153
-696396
-696405
-696025
-695825
-695740
-695420
-695847
-696273
-696600
-696971
-697052
-697193
-696749
-696426
-696229
-696110
-696286
-696704
-697023
-697314
-697443
-697470
-696888
-696537
-696355
-696016
-696142
-696402
-696698
-696630
-696601
-696451
-695657
-695027
-694451
-693911
-693632
-693511
-693439
-693175
-692778
-692325
-691311
-690487
-689766
-689117
-688800
-688703
-688609
-688288
-687945
-687609
-686732
-685898
-685407
-684795
-684530
-684690
-684732
-684694
-684507
-684348
-683665
-683034
-682726
-682356
-682317
-682391
-682620
-682819
-682836
-682855
-682296
-681783
-681555
-681361
-681387
-681778
-682232
-685881
-683540
-682894
-682180
-681857
-681681
-681673
-681807
-682347
-686006
-683728
-683199
-686111
-683956
-683272
-683116
-683180
-686874
-684518
-683996
-683948
-684026
-684192
-683997
-684198
-687867
-685443
-684920
-684884
-684964
-685098
-685248
-685751
-685522
-685581
-685590
-685475
-685678
-685870
-686107
-686117
-686354
-686566
-686582
-686684
-686820
-686827
-687001
-687244
-687404
-687550
-687794
-687773
-687845
-687996
-687994
-687972
-688159
-688497
-688661
-688739
-688975
-689052
-689057
-689077
-689149
-689241
-689266
-689453
-689670
-689669
-689805
-689765
-689715
-689780
-689890
-689880
-689961
-689976
-690046
-690242
-690215
-690090
-689990
-689923
-689911
-689616
-689726
-689833
-689928
-689862
-689841
-689561
-689566
-689362
-689353
-689338
-689273
-689090
-689224
-689013
-689012
-688899
-688673
-688637
-688591
-688429
-688318
-688251
-688303
-688352
-688298
-688241
-687995
-687751
-687681
-687561
-687912
-688195
-688446
-688515
-688627
-688126
-687829
-687629
-687495
-687439
-687814
-688209
-688497
-688679
-688541
-688206
-688008
-687908
-687808
-687807
-688321
-688666
-689021
-689141
-689345
-688947
-688719
-688565
-688606
-688484
-688987
-689381
-689814
-689961
-689975
-689696
-689517
-689417
-689317
-689297
-689879
-690291
-690648
-690849
-691046
-690724
-690314
-690201
-690246
-690291
-690697
-691192
-691524
-691741
-692006
-691628
-691270
-691201
-691247
-691152
-691747
-692142
-692524
-692635
-692936
-692466
-692265
-692197
-692114
-692059
-692527
-693038
-693335
-693520
-693768
-693307
-693028
-692936
-692982
-692878
-693339
-693822
-694132
-694410
-694581
-694092
-693779
-693700
-693800
-693677
-694239
-694735
-694965
-695280
-695464
-695054
-695040
-694686
-694673
-694620
-695067
-695461
-695898
-696008
-696188
-695966
-695583
-695545
-695538
-695375
-695836
-696311
-696697
-696853
-697054
-696700
-696376
-696171
-696208
-696054
-696512
-696906
-697338
-697520
-697780
-697312
-697034
-696901
-696798
-696762
-697177
-697547
-697867
-698066
-698341
-698267
-697538
-697356
-697315
-697200
-697763
-698176
-698515
-698687
-698946
-698453
-698099
-697975
-697984
-697805
-698345
-698789
-699168
-699336
-699588
-699177
-698791
-698664
-698552
-698477
-699044
-699414
-699741
-699937
-700088
-699622
-699178
-699000
-698746
-698550
-698758
-698891
-699002
-698916
-698767
-698031
-697149
-696646
-696100
-695454
-695344
-695274
-695062
-694781
-694381
-693447
-692591
-691919
-691400
-690837
-690875
-690776
-690739
-690443
-690209
-689423
-688784
-688288
-687966
-687488
-687640
-687824
-687927
-687899
-687299
-686793
-686528
-686363
-686138
-686518
-686743
-686930
-687082
-687390
-686958
-686506
-686276
-686280
-686198
-686655
-687045
-687423
-687673
-687999
-687670
-687393
-687193
-687222
-687280
-687851
-688161
-688613
-688906
-689282
-689021
-688755
-688706
-688705
-688713
-689180
-689680
-690236
-690527
-690778
-690522
-690164
-690078
-690146
-690148
-690646
-691061
-691592
-691822
-692153
-691845
-691600
-691374
-691385
-691938
-693300
-692712
-692578
-692618
-692558
-692966
-693409
-693950
-694096
-694371
-694150
-693872
-693641
-693696
-693576
-694125
-694587
-695010
-695073
-695514
-695289
-694953
-694778
-694814
-694686
-695143
-695638
-696030
-696210
-696329
-696020
-695386
-695376
-695314
-695276
-695710
-695983
-696360
-696475
-696533
-696147
-695714
-695397
-695318
-695183
-695436
-695789
-696103
-696199
-696300
-695831
-695350
-695104
-694942
-694851
-695096
-695300
-695522
-695601
-695713
-695335
-694803
-694539
-694352
-694171
-694573
-694887
-695224
-695151
-695308
-694883
-694529
-694179
-694032
-693931
-694342
-694668
-694883
-695036
-695188
-694798
-694353
-693958
-694010
-693787
-694194
-694548
-694830
-696598
-695675
-694918
-694390
-694021
-693899
-693765
-694223
-698261
-695915
-695185
-695155
-694744
-694225
-693944
-693830
-697336
-695119
-694650
-694797
-694751
-694936
-694654
-694274
-693885
-695383
-694177
-694217
-694480
-694777
-694927
-694924
-694684
-694316
-694036
-694085
-694029
-694389
-694764
-695085
-695311
-695479
-695196
-694873
-695318
-694824
-694551
-694921
-695306
-695768
-696020
-696170
-695894
-695418
-695311
-695270
-695358
-695811
-696104
-696582
-696785
-696937
-696698
-696477
-696342
-695985
-696062
-696585
-697050
-697484
-697555
-697848
-697597
-697281
-697119
-697006
-696898
-697421
-697670
-698183
-698321
-698472
-698232
-697851
-697648
-697674
-697622
-698038
-698318
-698781
-698962
-699178
-698874
-698589
-698296
-698220
-698129
-698552
-698923
-699336
-699462
-699684
-699499
-699057
-698870
-698758
-698591
-699005
-699294
-699786
-699891
-700014
-699704
-699256
-699097
-698994
-698863
-699289
-699585
-700030
-700168
-700272
-700080
-699630
-699484
-699370
-699226
-699619
-700033
-700317
-700542
-700634
-700337
-700002
-699824
-699764
-699713
-700065
-700436
-700798
-700932
-701153
-700906
-700436
-700127
-700083
-699992
-700330
-700673
-701059
-701166
-701286
-700948
-700475
-700112
-699951
-699678
-699957
-700036
-700280
-700197
-700002
-699464
-698644
-698089
-697591
-696960
-696886
-696725
-696632
-696320
-696032
-695342
-694506
-693710
-693168
-692496
-692436
-692348
-692286
-692104
-691822
-691090
-690421
-689872
-689485
-688944
-689066
-689048
-689262
-689115
-689055
-688608
-688038
-687584
-687262
-686990
-687273
-687479
-687785
-687851
-687992
-687649
-687127
-686858
-686772
-686660
-687111
-688184
-688058
-688085
-688243
-688046
-687692
-687467
-687488
-687479
-687969
-688353
-688822
-689075
-689313
-689211
-688946
-688654
-688805
-688671
-689296
-689693
-690260
-690498
-690592
-690564
-690314
-690067
-690145
-690106
-690598
-690923
-691359
-691666
-691962
-691694
-691359
-691127
-691116
-690966
-691515
-691873
-692336
-692589
-692856
-692462
-692178
-692020
-691904
-691823
-692399
-692759
-693220
-693452
-693637
-693368
-693008
-692858
-692914
-692791
-693275
-693738
-694197
-694412
-694709
-694389
-694108
-693631
-693757
-693668
-694110
-694536
-694905
-695163
-695416
-695148
-694872
-694533
-694463
-694366
-694840
-695062
-695406
-695621
-695881
-695588
-695243
-694916
-694826
-694599
-694934
-695289
-695724
-695798
-695979
-695691
-695115
-694890
-694794
-694477
-694838
-695245
-695590
-695609
-695878
-695540
-695162
-694904
-694717
-694405
-694926
-695170
-695555
-695787
-695947
-695698
-695297
-694984
-694941
-694662
-695214
-695533
-695880
-696086
-696376
-696165
-695613
-695497
-695406
-695177
-695612
-696069
-696458
-696434
-696912
-696703
-696213
-695981
-696017
-695759
-696289
-696637
-697069
-697263
-697606
-697261
-696901
-696771
-696644
-696384
-696972
-697313
-697820
-698466
-698579
-698240
-697818
-697530
-697521
-697212
-697730
-698205
-698739
-698997
-699313
-698971
-698625
-698491
-698412
-698189
-698686
-699101
-699533
-699847
-700152
-699920
-699495
-699384
-699270
-699036
-699610
-700091
-700566
-700767
-701141
-700912
-700473
-700306
-700317
-700030
-700553
-700939
-701429
-701689
-702028
-701839
-701532
-701377
-701287
-701051
-701583
-701977
-702510
-703111
-703351
-702972
-702582
-702402
-702415
-702064
-702696
-703175
-703523
-703807
-704139
-703864
-703510
-703309
-703373
-703069
-703636
-704078
-704524
-704710
-705020
-704759
-704362
-704209
-704133
-703855
-704468
-704935
-705263
-705536
-705916
-705556
-705163
-705041
-704945
-704579
-705112
-705530
-706022
-706286
-706495
-706278
-705835
-705639
-705526
-705331
-705868
-706160
-706716
-706905
-707257
-707032
-706604
-706360
-706337
-706004
-706547
-707311
-707035
-707036
-706713
-707313
-707669
-708059
-708396
-708603
-708445
-708039
-707766
-707611
-707152
-707807
-708332
-708602
-708887
-709179
-708897
-708509
-708256
-708113
-707646
-708149
-708328
-708666
-708568
-708742
-708113
-707426
-706895
-706400
-705717
-705805
-705786
-705625
-705375
-705179
-704415
-703543
-702842
-702156
-701365
-701467
-701338
-701334
-701084
-700925
-700386
-699477
-698796
-698426
-697848
-698002
-698020
-698103
-698137
-698130
-697696
-697060
-696571
-696393
-695823
-696296
-696513
-696858
-696956
-697193
-697020
-696492
-696264
-696162
-695791
-696354
-696691
-697147
-697386
-697790
-697602
-697181
-697554
-697167
-696812
-697429
-697862
-698335
-698673
-699006
-698927
-698632
-698464
-698474
-698227
-698845
-699327
-699875
-700193
-700663
-700444
-700172
-699978
-700013
-699734
-700476
-700930
-701448
-701857
-702105
-702128
-701805
-701606
-701575
-701319
-701976
-702500
-702984
-703174
-703585
-703407
-703158
-702707
-702881
-702705
-703323
-703743
-704256
-704483
-704857
-704745
-704417
-704257
-703958
-703770
-704471
-704977
-705410
-705706
-706034
-705707
-705384
-705227
-705229
-704844
-705411
-705741
-706274
-706464
-706758
-706708
-706351
-706253
-706015
-705894
-706331
-706498
-707024
-707313
-707573
-707304
-706722
-706358
-706077
-706060
-706272
-706565
-706902
-707053
-707159
-706897
-706418
-706182
-705939
-705611
-705979
-706233
-706632
-706844
-706953
-706765
-706225
-705848
-705796
-705327
-705728
-706152
-706515
-706731
-706843
-706588
-706124
-705751
-705599
-705214
-705749
-706036
-706476
-706448
-706746
-706661
-706258
-705990
-705901
-705525
-706131
-706380
-706810
-706996
-707227
-707092
-706681
-706507
-706400
-706122
-706601
-707009
-707469
-707723
-707924
-707849
-707572
-707268
-707181
-706899
-707408
-707858
-708301
-708520
-708854
-708787
-708171
-708005
-708000
-707713
-708313
-708757
-709163
-709484
-709692
-709666
-709311
-709152
-709109
-708761
-709248
-709671
-710251
-710512
-710633
-710627
-710223
-710011
-709916
-709595
-710198
-710487
-710914
-711242
-711546
-711412
-711022
-710759
-710656
-710329
-710812
-711241
-711786
-711956
-712161
-712118
-711733
-711498
-711299
-710975
-711438
-711806
-712373
-712514
-712774
-712646
-712340
-712028
-711928
-711682
-712037
-712454
-712862
-713072
-713224
-713281
-712841
-712532
-712397
-712065
-712516
-712906
-713368
-713607
-713711
-713745
-713258
-713037
-712914
-712564
-713122
-713363
-713848
-713926
-714097
-714070
-713728
-713473
-713435
-713048
-713511
-713915
-714341
-714538
-714697
-714709
-714362
-714075
-713995
-713732
-714157
-714589
-714993
-715260
-715460
-715449
-715132
-714820
-714667
-714374
-714848
-715281
-715826
-716062
-716176
-716245
-715858
-715556
-715447
-715100
-715516
-715969
-716430
-716574
-716646
-716694
-716253
-715861
-715599
-715366
-715683
-715867
-716225
-716143
-716151
-715884
-715099
-714412
-713858
-713137
-713120
-713037
-712988
-712777
-712434
-711890
-710946
-710121
-709574
-708581
-708524
-708437
-708388
-708291
-708050
-707605
-706781
-706001
-705487
-704847
-704830
-704923
-705195
-705083
-704910
-704593
-703932
-703453
-703097
-702661
-702834
-703047
-703399
-703646
-703590
-703577
-703191
-702738
-702506
-702222
-702533
-702862
-703296
-703632
-703777
-703907
-703408
-703116
-703064
-702816
-703200
-703683
-704218
-704461
-704814
-704810
-704495
-704225
-704252
-704073
-704480
-704921
-705470
-705832
-706066
-706127
-705828
-705625
-705597
-705387
-705760
-706150
-706592
-707026
-707164
-707257
-706842
-706649
-706575
-706299
-706577
-707033
-707652
-707950
-708053
-708277
-708023
-707919
-707859
-707705
-708198
-708618
-709131
-709513
-709743
-709767
-709425
-709091
-709045
-708936
-709364
-709800
-710422
-710682
-710900
-710902
-710645
-710513
-710354
-710136
-710545
-711053
-711516
-711803
-711975
-712047
-711705
-711448
-711088
-711040
-711288
-711794
-712189
-712561
-712527
-712584
-712125
-711697
-711587
-711326
-711648
-712007
-712265
-712558
-712574
-712628
-712108
-711514
-711401
-711180
-711336
-711705
-712050
-712147
-712159
-712313
-711806
-711332
-711087
-710777
-710906
-711242
-711676
-711816
-711908
-711944
-711418
-711073
-710898
-710683
-710797
-711230
-711597
-711720
-711898
-711865
-711478
-711037
-710840
-710670
-710815
-711110
-711538
-711874
-711845
-712049
-711545
-711237
-711096
-710937
-711148
-711564
-712031
-712267
-712400
-712501
-711968
-711753
-711667
-711502
-712852
-712987
-712630
-712336
-712125
-712087
-712182
-712565
-712996
-713252
-713476
-713592
-713188
-712810
-712723
-712552
-712708
-713107
-713479
-713767
-714041
-714172
-713608
-713361
-713297
-713222
-713265
-713712
-714163
-714658
-714892
-715268
-714916
-714622
-714570
-714471
-714651
-715126
-715559
-715861
-715960
-716166
-715757
-715454
-715458
-715356
-715488
-715919
-716501
-716748
-716855
-717023
-716556
-716273
-716175
-716226
-716262
-716805
-717235
-717570
-717652
-717825
-717334
-717028
-716935
-717005
-717032
-717435
-717821
-718160
-718223
-718358
-717946
-717660
-717557
-717573
-717608
-717977
-718397
-718760
-718926
-718988
-718547
-718303
-718171
-718257
-718184
-718709
-719105
-719443
-719585
-719787
-719312
-719044
-718982
-718938
-718937
-719372
-719793
-720127
-720351
-720468
-720028
-719625
-719519
-719396
-719486
-719878
-720302
-720448
-720532
-721149
-720106
-719316
-719219
-718924
-718669
-718894
-718990
-718871
-718774
-718420
-717485
-716694
-716142
-715710
-715201
-715185
-715051
-714862
-714486
-713836
-713292
-712741
-712260
-711745
-711452
-711094
-710744
-710609
-710408
-709980
-709606
-709175
-708904
-708634
-708476
-708287
-708218
-708044
-707653
-707617
-707401
-707268
-707085
-707175
-706984
-706809
-706822
-706806
-706782
-706671
-706513
-706501
-706474
-706527
-706742
-706684
-706844
-706869
-707073
-707013
-706997
-707043
-707033
-707059
-704341
-706460
-707128
-707460
-709117
-707989
-707912
-707839
-707821
-707948
-707996
-708080
-708332
-708511
-711017
-709459
-708892
-708683
-708838
-708828
-709004
-709055
-709294
-709403
-712158
-710459
-709876
-709763
-709791
-709818
-710082
-710138
-710178
-710385
-712430
-711264
-710883
-710912
-710968
-711147
-711263
-711417
-711671
-713480
-712463
-712161
-712175
-712216
-712381
-712556
-712673
-712918
-713144
-713521
-713480
-713558
-713600
-713690
-713729
-713891
-713931
-714090
-714216
-716398
-715356
-714797
-714498
-714572
-714458
-714507
-714591
-714732
-714836
-714870
-718633
-716024
-715033
-714726
-711918
-713900
-714377
-714540
-714732
-714746
-714707
-714500
-714355
-714263
-712405
-713600
-713955
-714124
-714109
-714090
-713886
-713788
-713598
-713527
-713405
-713371
-713469
-713391
-713397
-713294
-713240
-713083
-712898
-712900
-712857
-712847
-712824
-712773
-712812
-712902
-712913
-712690
-712518
-712509
-712653
-712730
-712732
-712723
-712821
-712923
-712946
-712874
-712881
-712899
-713076
-713108
-713062
-713115
-713299
-713290
-713315
-713338
-713417
-713363
-713398
-713557
-713691
-713694
-713801
-713839
-713934
-713909
-713958
-714024
-714026
-714193
-714240
-714288
-714406
-714476
-714502
-714505
-714540
-714652
-714665
-714834
-714959
-715084
-715211
-715281
-715401
-715100
-715484
-715588
-715792
-715861
-715825
-716041
-716141
-716229
-716236
-716370
-716483
-716524
-716604
-716625
-716814
-717008
-717209
-717190
-717239
-717153
-717381
-717468
-717548
-717624
-717646
-717887
-718097
-718216
-718215
-718189
-718307
-718328
-718472
-718538
-718601
-718725
-718952
-719014
-719005
-719088
-719130
-719261
-719435
-719468
-719553
-719719
-719812
-719888
-719912
-719913
-720049
-720051
-720277
-720243
-720363
-720549
-720610
-720712
-720746
-720708
-720752
-720861
-720989
-721021
-721607
-721294
-721277
-721254
-721345
-721276
-721308
-721311
-721248
-721218
-721147
-720777
-720791
-720559
-720339
-719868
-719612
-719256
-718793
-718366
-717893
-717409
-716800
-716508
-715913
-715314
-714706
-714231
-713744
-713350
-712809
-712382
-711902
-711412
-710995
-710504
-710203
-709796
-709477
-709095
-708828
-708633
-708316
-708015
-707693
-707388
-707293
-707062
-706868
-706704
-706486
-706516
-706438
-706319
-706176
-706139
-706019
-706057
-706031
-705864
-706036
-706117
-706225
-706270
-706202
-706169
-706343
-706404
-706515
-706491
-706569
-706777
-706998
-707038
-707058
-707057
-707276
-707394
-707603
-707691
-707850
-707948
-708115
-708309
-708395
-708448
-708808
-708627
-708799
-708995
-709061
-709213
-709362
-709449
-709464
-709462
-709723
-709802
-709857
-709972
-710150
-710273
-710465
-710983
-710660
-710460
-710562
-710681
-710766
-710897
-710990
-711032
-711160
-711316
-711308
-711290
-711427
-711381
-711575
-711701
-711868
-712027
-712161
-712262
-712272
-712372
-712567
-712618
-712872
-712810
-713012
-713009
-713356
-713558
-713601
-713576
-713747
-713898
-714103
-714091
-714212
-714325
-714502
-714628
-714662
-714612
-714647
-714660
-714865
-714904
-714987
-715021
-715064
-715157
-715141
-715028
-714912
-715079
-715162
-715271
-715291
-715350
-715359
-715302
-715184
-715099
-715127
-715089
-715197
-715110
-715127
-715216
-715213
-715149
-714915
-714790
-714792
-714787
-714877
-714804
-714697
-714748
-714653
-714703
-714680
-714614
-714453
-714568
-714534
-714539
-714604
-714734
-714654
-714613
-714551
-714582
-714630
-714800
-714886
-715011
-715127
-715061
-715070
-715113
-715063
-715280
-715338
-715403
-715535
-715579
-715613
-715605
-715662
-715706
-715731
-715790
-715927
-715986
-716003
-716139
-716107
-716094
-716033
-716096
-716097
-716255
-716253
-716285
-716418
-716343
-716392
-716461
-716480
-716563
-716632
-716582
-716633
-716655
-716773
-716962
-717015
-717008
-717001
-717137
-717194
-717225
-717382
-717389
-717588
-717654
-717670
-717622
-717765
-717857
-717897
-717972
-718175
-718164
-718276
-718384
-718417
-718523
-718470
-718559
-718680
-718830
-718875
-718946
-718987
-719157
-719187
-719213
-719167
-719226
-719180
-719254
-719417
-719433
-719496
-719546
-719552
-719544
-719549
-719646
-719670
-719796
-719961
-720003
-720064
-720148
-720283
-720219
-720106
-720280
-720248
-720371
-720479
-720576
-720720
-720801
-720894
-720937
-720924
-721021
-721020
-721156
-721315
-721404
-721568
-721643
-721614
-721784
-721663
-721771
-721825
-721890
-722004
-722117
-722209
-722373
-722361
-722381
-722345
-722428
-722477
-722413
-722471
-722504
-722624
-722644
-722688
-722593
-722466
-722424
-722301
-722207
-721971
-721781
-721514
-721192
-720797
-720400
-719855
-719409
-718822
-718331
-717862
-717285
-716784
-716293
-715766
-715221
-714602
-714105
-713516
-713016
-712709
-712154
-711802
-711396
-710998
-710670
-710226
-709849
-709473
-709243
-709050
-708756
-708495
-708395
-708148
-707936
-707728
-707567
-707484
-707381
-707308
-707204
-707306
-707198
-707211
-707111
-707074
-707158
-707212
-707149
-707352
-707387
-707518
-707589
-707659
-707815
-707917
-708017
-708138
-708392
-708504
-708623
-708712
-708916
-708993
-709206
-709211
-709315
-709544
-709705
-709865
-709970
-710102
-710367
-710385
-710417
-710544
-710608
-710722
-710928
-711048
-711031
-711254
-711367
-711354
-711496
-711369
-711468
-711530
-711660
-711824
-711862
-711966
-711908
-711953
-711923
-711908
-712225
-712287
-712333
-712254
-712544
-712588
-712589
-712646
-712662
-712686
-712867
-712956
-713056
-713205
-713326
-713393
-713466
-713231
-713546
-713684
-713813
-713956
-714123
-714239
-714524
-714557
-714684
-714640
-714762
-714789
-714963
-715083
-715147
-715401
-715489
-715606
-715574
-715589
-715650
-715720
-715706
-715771
-715893
-715934
-716023
-716010
-716046
-716053
-715977
-716037
-716110
-716188
-716132
-716296
-716285
-716358
-716341
-716293
-716266
-716212
-716152
-716196
-716152
-716179
-716169
-716109
-716004
-716010
-715955
-715823
-715762
-715829
-715744
-715755
-715823
-715706
-715652
-715467
-715397
-715331
-715450
-715466
-715349
-715346
-715298
-715287
-715315
-715171
-715208
-715221
-715193
-715274
-715178
-715333
-715387
-715432
-715292
-715300
-715350
-715334
-715464
-715565
-715683
-715781
-715846
-715902
-716021
-715985
-716093
-716251
-716392
-716621
-716694
-716703
-716998
-717199
-717203
-717316
-717427
-717602
-717650
-717846
-717986
-718218
-718379
-718443
-718482
-718590
-718729
-718678
-719008
-719271
-719398
-719493
-719720
-719808
-719769
-719825
-719905
-719971
-720125
-720353
-720482
-720569
-720658
-720781
-720791
-720884
-720893
-720960
-721070
-721185
-721096
-721349
-721506
-721682
-721610
-721735
-721702
-721912
-722008
-722089
-722154
-722270
-722350
-722423
-722455
-722991
-722734
-722661
-722782
-722904
-722894
-723130
-723264
-723279
-723337
-723283
-723416
-723657
-723728
-723806
-723855
-723969
-724066
-724044
-724112
-724208
-724272
-724344
-724487
-728399
-725784
-725078
-724964
-724791
-724710
-724601
-724625
-725275
-729198
-726597
-725878
-725665
-725709
-725652
-725821
-725691
-729587
-726817
-726073
-725939
-726032
-725973
-726015
-726162
-728233
-727137
-726466
-726140
-726023
-725992
-726027
-725953
-725901
-725763
-725557
-724981
-724833
-724499
-724025
-723663
-723297
-722863
-722383
-721841
-721287
-720759
-720264
-719623
-719067
-718470
-717908
-717473
-717093
-716672
-716144
-715689
-715096
-714646
-714336
-713946
-713619
-713239
-713031
-712680
-712353
-712129
-711844
-711596
-711372
-711247
-711020
-710823
-710854
-710738
-710626
-710448
-710404
-710285
-710193
-710146
-710279
-710190
-710404
-710435
-710275
-710506
-710504
-710565
-710527
-710654
-710775
-710860
-711104
-711159
-711230
-711429
-711358
-711408
-711558
-711753
-711882
-711956
-712045
-712177
-712244
-712442
-712414
-712535
-712624
-712747
-712977
-713099
-713299
-713512
-713635
-713454
-713540
-713527
-713698
-713884
-717807
-715080
-714484
-714361
-714432
-714416
-714448
-714555
-718486
-715858
-715099
-714923
-715050
-715590
-715369
-715270
-715846
-717056
-715772
-715608
-715652
-715580
-715742
-715810
-715693
-717111
-716530
-716619
-716826
-716949
-717021
-717171
-717102
-717184
-717789
-717910
-718018
-718156
-718179
-718386
-718310
-718294
-718282
-718290
-718426
-718418
-718455
-718537
-718431
-718253
-718335
-718331
-718294
-718218
-718217
-718247
-718246
-718282
-718250
-718043
-718078
-718049
-717960
-718052
-718028
-718024
-718060
-717934
-717855
-717780
-717785
-717787
-717742
-717755
-717788
-717855
-717888
-717874
-717893
-717710
-717783
-717814
-717822
-717868
-717931
-718124
-718119
-718133
-718139
-718105
-718054
-718153
-718165
-718270
-718269
-718508
-718543
-718542
-718635
-718496
-718640
-718684
-718774
-720082
-720152
-719376
-719286
-719281
-719313
-719299
-719276
-719345
-723306
-720600
-719869
-719804
-719821
-719776
-719808
-719748
-723638
-721000
-720327
-720251
-720210
-720330
-720351
-720370
-721821
-721678
-720836
-720557
-720630
-720791
-720819
-720840
-720935
-721067
-721126
-721015
-721095
-721163
-721342
-721419
-721499
-721661
-721638
-721647
-721731
-721652
-721749
-721748
-721859
-722060
-722021
-722160
-722278
-722309
-722326
-722327
-722349
-722484
-722517
-722586
-722619
-722811
-722927
-722891
-722925
-722830
-722898
-722877
-723026
-722999
-723046
-723170
-723200
-723225
-723287
-723229
-723250
-723233
-723404
-723458
-723423
-723523
-723542
-723673
-723591
-723571
-723599
-723583
-723673
-723895
-723919
-724037
-724092
-724169
-724262
-724184
-724235
-724299
-724493
-724730
-724707
-724886
-724826
-724955
-725028
-725061
-725053
-725148
-725196
-725441
-725319
-725558
-725744
-725565
-725773
-725822
-725886
-725814
-726015
-725987
-729869
-727295
-726521
-726189
-726108
-725897
-725747
-725459
-727805
-726044
-725015
-724556
-724082
-723638
-723083
-722499
-722061
-725133
-722052
-720823
-719995
-719419
-718903
-718242
-717634
-720851
-717589
-716086
-715404
-714953
-714460
-714051
-713654
-713235
-712881
-712367
-712072
-711547
-711343
-710924
-710804
-710517
-710415
-710271
-710047
-709888
-709767
-709502
-709421
-709362
-709316
-709332
-709470
-709421
-709379
-709574
-709329
-709264
-709425
-709454
-709579
-709624
-709835
-709814
-709959
-709938
-710147
-710291
-710418
-710522
-710625
-710820
-710923
-711101
-711204
-710952
-711301
-711405
-711509
-711725
-711837
-712028
-712216
-712253
-712724
-712239
-712023
-712129
-712143
-712509
-712514
-712633
-712662
-712687
-712813
-712850
-712824
-713000
-712950
-713012
-712908
-712827
-713030
-713157
-713225
-713205
-712876
-713103
-713185
-713184
-713241
-713360
-713497
-713908
-713831
-713687
-713748
-713775
-713992
-713988
-714011
-717860
-715170
-714606
-714492
-714476
-714470
-714519
-714605
-718574
-715980
-715302
-715208
-715170
-715084
-715085
-715147
-718458
-716127
-715350
-715328
-715330
-715379
-715405
-715343
-715128
-718917
-716153
-715382
-715211
-715019
-715002
-714893
-714827
-714830
-714638
-714599
-714714
-714640
-714467
-714357
-714308
-714267
-714263
-714104
-714041
-713907
-713847
-713776
-713887
-713851
-713716
-713814
-713664
-713709
-713524
-713560
-713539
-713311
-713503
-713511
-713481
-713618
-713568
-713548
-713463
-713419
-713448
-713431
-713568
-713486
-713599
-713696
-713595
-713684
-713568
-713641
-713645
-713630
-713677
-713704
-713862
-713865
-713705
-713880
-713919
-713722
-713994
-714156
-714123
-714146
-714253
-714395
-714434
-714468
-714382
-714477
-714483
-714703
-714671
-714749
-714989
-715391
-715128
-715175
-715031
-715112
-715244
-715250
-715348
-715439
-715621
-715721
-716276
-715948
-715823
-715783
-715942
-716052
-716199
-716175
-716259
-716418
-716448
-716495
-716451
-716500
-716533
-716693
-716808
-716823
-716818
-717078
-717167
-717145
-717066
-717178
-717165
-717348
-717448
-717478
-717660
-717668
-717676
-717603
-717600
-717777
-717821
-717906
-717731
-717874
-718000
-718178
-718274
-718290
-718143
-718160
-718104
-718208
-718303
-718291
-718254
-718456
-718167
-718255
-718308
-718288
-718229
-718140
-718307
-718343
-718356
-718353
-718317
-718303
-718266
-718229
-718266
-718336
-718408
-718429
-718501
-718509
-718574
-718630
-718526
-718606
-718568
-718665
-718697
-718884
-718925
-718985
-719172
-719257
-719212
-722925
-720420
-719764
-719654
-719739
-719845
-720007
-720089
-720221
-723589
-721321
-720763
-720771
-720807
-720840
-721046
-721102
-724898
-722474
-721581
-721472
-721404
-721491
-721473
-721605
-725284
-722697
-721785
-721467
-721129
-720857
-720657
-720312
-719975
-719681
-719427
-719014
-718572
-718056
-717671
-717077
-716593
-716099
-715669
-715246
-714907
-714452
-713989
-713508
-713035
-712702
-712268
-711937
-711586
-711298
-711109
-710800
-710466
-710190
-709855
-709723
-709477
-709296
-709190
-709085
-708963
-708836
-708731
-708616
-708561
-708481
-708410
-708328
-708452
-708405
-708476
-708494
-708388
-708450
-708464
-708545
-708561
-708627
-708684
-708729
-708895
-708942
-709047
-709055
-708975
-709131
-709166
-709181
-709360
-709439
-709597
-709684
-709752
-709789
-709736
-709758
-709808
-709890
-709978
-710075
-710230
-710329
-710390
-710385
-710426
-710416
-710510
-710518
-710598
-710614
-710665
-710782
-710776
-710809
-710706
-710813
-710966
-710949
-711047
-711089
-711210
-711347
-711326
-711409
-711433
-711459
-711543
-711698
-711788
-711797
-711916
-712083
-712091
-712239
-712156
-712288
-712286
-712406
-712539
-712534
-712645
-712646
-712703
-712785
-712611
-712667
-712616
-712689
-712843
-712702
-712756
-712825
-712829
-712751
-712585
-712669
-712550
-712598
-712572
-712602
-712647
-712672
-712581
-712431
-712408
-712384
-712330
-712351
-712384
-712394
-712527
-712414
-712469
-712424
-712318
-712391
-712376
-712367
-712470
-712515
-712604
-712680
-712737
-712696
-712706
-712768
-712849
-712936
-713054
-713110
-713282
-716942
-714394
-713777
-713512
-713576
-713608
-713656
-713817
-717469
-715010
-714404
-714211
-714221
-714192
-714243
-714343
-714424
-716732
-715254
-714884
-714881
-714897
-714885
-714851
-714896
-718560
-716022
-715325
-715194
-715324
-715434
-715458
-715423
-715421
-715428
-715451
-715479
-715564
-715659
-715743
-715769
-715797
-715817
-715743
-715747
-715729
-715796
-715844
-715878
-715946
-715986
-715937
-715994
-715996
-716035
-716063
-716070
-716121
-716158
-716187
-716226
-716289
-716209
-716128
-716230
-716157
-716271
-716284
-716236
-716386
-716370
-716233
-716211
-716158
-716130
-716225
-716251
-716249
-716216
-716348
-716261
-716305
-716318
-716147
-716133
-716147
-716155
-716241
-716117
-716167
-715967
-716042
-716036
-716047
-716048
-716044
-716149
-716103
-716056
-716140
-716067
-716036
-715991
-716016
-716132
-716050
-716220
-716235
-716287
-716203
-716177
-716239
-716295
-716321
-716548
-716557
-716617
-716702
-716740
-716745
-716667
-716782
-716886
-716972
-717112
-717116
-717240
-717367
-717318
-717483
-717448
-717629
-717618
-717796
-717928
-717904
-718052
-718077
-718124
-718184
-718242
-718214
-718254
-718309
-718332
-718237
-718240
-718158
-718021
-717879
-717730
-717560
-717292
-717119
-716803
-716553
-716253
-716110
-715644
-715260
-714931
-714553
-714160
-713901
-713608
-713230
-712983
-712634
-712329
-712006
-711563
-711406
-711042
-710800
-710660
-710422
-710279
-710097
-709841
-709668
-709461
-709376
-709217
-709206
-709197
-708993
-709066
-709028
-709054
-708966
-708931
-708822
-708864
-710632
-709551
-709250
-709354
-709281
-709328
-709464
-709445
-713158
-710582
-709933
-709878
-709911
-710152
-710290
-710419
-714084
-711601
-711040
-710944
-711111
-711299
-711316
-711598
-711835
-713488
-712500
-712111
-712148
-712228
-712366
-712569
-712871
-713022
-713196
-713346
-713404
-713539
-713649
-713762
-713832
-713950
-714094
-714244
-714632
-714806
-714932
-715118
-715291
-715503
-715607
-715756
-715869
-716044
-716167
-716345
-716346
-716468
-716768
-716860
-717106
-717325
-717489
-717662
-717745
-717833
-717867
-717822
-717938
-717982
-718038
-718101
-718187
-718337
-718349
-718407
-718561
-718478
-718491
-718512
-718625
-718661
-718765
-718833
-718855
-718850
-718863
-718804
-718720
-718650
-718785
-718789
-718774
-718816
-718822
-718774
-718780
-718596
-718507
-718431
-718463
-718507
-718443
-718513
-718436
-718355
-718353
-718236
-718112
-718111
-718152
-718202
-718124
-718054
-718064
-717973
-718030
-718027
-718015
-717931
-717939
-718077
-717963
-718077
-718118
-718103
-718134
-718008
-718061
-717992
-718084
-718119
-718116
-718233
-718290
-718342
-718409
-718410
-718371
-718492
-718638
-718589
-718746
-718847
-718930
-718923
-719024
-718932
-719091
-719082
-719138
-719208
-719299
-719390
-719543
-719552
-719623
-719569
-719728
-719674
-719803
-719881
-719972
-720005
-720153
-720163
-720209
-720252
-720306
-720372
-720441
-720509
-720474
-720661
-720713
-720671
-720755
-720724
-720794
-720952
-721046
-721058
-721122
-721272
-721309
-721392
-721448
-721402
-721547
-721648
-721687
-721812
-721875
-722041
-722064
-725882
-723299
-722521
-722423
-722443
-722512
-722609
-722685
-723291
-724273
-723379
-723201
-723058
-723138
-723305
-723324
-723484
-727186
-724826
-724109
-723941
-724015
-723901
-723971
-724086
-727890
-729135
-729380
-729584
-729768
-726217
-725177
-724875
-724806
-724870
-724956
-725119
-728770
-729969
-730317
-730432
-728700
-726293
-725777
-725617
-725637
-725672
-725671
-725838
-725850
-725890
-726027
-725971
-726077
-726058
-726162
-726209
-726145
-726321
-726356
-726357
-726419
-726438
-726360
-726423
-726477
-726466
-726441
-726442
-726558
-726500
-726290
-726104
-726002
-725811
-725528
-725256
-724901
-724680
-724238
-723764
-723416
-722833
-722269
-721780
-721292
-720817
-720321
-719743
-719240
-718793
-718254
-717645
-717283
-716719
-716308
-715952
-715597
-715238
-714949
-714537
-714177
-713733
-713525
-713250
-713139
-712959
-712671
-712519
-712478
-712271
-712299
-712104
-712045
-711923
-711900
-711873
-711910
-712029
-712021
-712072
-712108
-712128
-712205
-712122
-712306
-712395
-712512
-712676
-712858
-712876
-713061
-712966
-713169
-713284
-713454
-713646
-713783
-714061
-714223
-714263
-714421
-714471
-714561
-714805
-714996
-715237
-715413
-715612
-715738
-715754
-715925
-715951
-716225
-716334
-716446
-716647
-716733
-716933
-717079
-717093
-717324
-717390
-717474
-717578
-717725
-717874
-717889
-718120
-718358
-718368
-718463
-718531
-718650
-718787
-718930
-719101
-719312
-719520
-719683
-719801
-719932
-719987
-720096
-720181
-720442
-720593
-720721
-720909
-721029
-721203
-721344
-721269
-721357
-721514
-721596
-721685
-721787
-721926
-721907
-722024
-722010
-721934
-721961
-725595
-726731
-727036
-727087
-727177
-723594
-722571
-722233
-722029
-725700
-726578
-726922
-727063
-723365
-722502
-722034
-721975
-725623
-726456
-726678
-726697
-723833
-722328
-721823
-721719
-725317
-726263
-726494
-726438
-726403
-722797
-721753
-721424
-721235
-721321
-721334
-721364
-721254
-721267
-721214
-721220
-721198
-721313
-721238
-721273
-721349
-721334
-721406
-721409
-721425
-721389
-721377
-721515
-721502
-721583
-721651
-721626
-721794
-721714
-721814
-721718
-721837
-721905
-721996
-722131
-722170
-722244
-722318
-722317
-722298
-722328
-722446
-722532
-722611
-722758
-722889
-722939
-722989
-723072
-723187
-723162
-723340
-723507
-723564
-723648
-723805
-723776
-723949
-723964
-723972
-724061
-724201
-724295
-724300
-724525
-724568
-724668
-724829
-724750
-724851
-724893
-724961
-725137
-725241
-725336
-725376
-725447
-725586
-725568
-725619
-725694
-725791
-725892
-726024
-726180
-726327
-726265
-726308
-726282
-726379
-726677
-727065
-727199
-727246
-727330
-727367
-727434
-727553
-727676
-727781
-728020
-728097
-728116
-728134
-728216
-728250
-728336
-728373
-728612
-728715
-728735
-728865
-729033
-728865
-729001
-729118
-729135
-729229
-729297
-729419
-729507
-729579
-729777
-729644
-729747
-729792
-729786
-729787
-729876
-729870
-729895
-729853
-729798
-729690
-729620
-729428
-729295
-728895
-728683
-728467
-728085
-727582
-727233
-726706
-726117
-725592
-725231
-724628
-724194
-723699
-723263
-722665
-722121
-721561
-721088
-720666
-720235
-719903
-719417
-719083
-718729
-722025
-722806
-722676
-722540
-719172
-717464
-716905
-716567
-720060
-721034
-721153
-721088
-720929
-717235
-715986
-715776
-716207
-719351
-720307
-720614
-720813
-717251
-716179
-715938
-715882
-719559
-720791
-721220
-721329
-718366
-717070
-716788
-716776
-716867
-716935
-717181
-717415
-717549
-717730
-717922
-718042
-718163
-718192
-718367
-718583
-718748
-718958
-719148
-719330
-719423
-719520
-719723
-719769
-719862
-720016
-720143
-720327
-720519
-720677
-720862
-720979
-721108
-721207
-721286
-721332
-721453
-721662
-721726
-721915
-722070
-722156
-722363
-722414
-722484
-722678
-722909
-722991
-723008
-723288
-723426
-723543
-723700
-723678
-723937
-723931
-724100
-724264
-724441
-724613
-724672
-724802
-724946
-724966
-725112
-725146
-725300
-725500
-725534
-725676
-725740
-725848
-726019
-725903
-726071
-726048
-726182
-726254
-726299
-726255
-726260
-726442
-726439
-726324
-726360
-726308
-726424
-726448
-726421
-726505
-726447
-726411
-726440
-726299
-726312
-726301
-726350
-726307
-726333
-726426
-726334
-726236
-726225
-726131
-725869
-725922
-726047
-725961
-725832
-726002
-725985
-726046
-726036
-725890
-725720
-725790
-725884
-725944
-725927
-725965
-725983
-725942
-725958
-725916
-725949
-725956
-726115
-726104
-726160
-726204
-726339
-726379
-726450
-726322
-726425
-726429
-726495
-726593
-726727
-726786
-726913
-726969
-726982
-726900
-727079
-727138
-727140
-727280
-727394
-727500
-727606
-727615
-727740
-727779
-727825
-727903
-728049
-728115
-728194
-728377
-728514
-728532
-728679
-728676
-728668
-728859
-729001
-729037
-729129
-729353
-729487
-729542
-729584
-729588
-729748
-729857
-729985
-730133
-730221
-730411
-730488
-730567
-730575
-730560
-730688
-730715
-730897
-731011
-731134
-731265
-731395
-731508
-731686
-731566
-731705
-731749
-731910
-732006
-732101
-732115
-732216
-732316
-732455
-732497
-732606
-732621
-732724
-732921
-733016
-733160
-733165
-733260
-733336
-733287
-733336
-733468
-733594
-733688
-733713
-733889
-734115
-734107
-734199
-734312
-734284
-734423
-734542
-734647
-734759
-734822
-734982
-735019
-735177
-735031
-735180
-735166
-735350
-735447
-735381
-735632
-735707
-736315
-739719
-740472
-740735
-740690
-737044
-735876
-735488
-735377
-738855
-739621
-739622
-739342
-735680
-733804
-732911
-732332
-735485
-736056
-735907
-735261
-734635
-730347
-728759
-727881
-728230
-730661
-731000
-730870
-730434
-726351
-724890
-723951
-723546
-723106
-722828
-722472
-722134
-721871
-721625
-721414
-721015
-720571
-720460
-720454
-720333
-720226
-720143
-720113
-720064
-719990
-719858
-719803
-719815
-719834
-719846
-719887
-720054
-720282
-720438
-720443
-720425
-720532
-720597
-720777
-720825
-720933
-721106
-721279
-721444
-721598
-721701
-721734
-721820
-721839
-721934
-722307
-722446
-722649
-722853
-722985
-723074
-723191
-723270
-723370
-723608
-723801
-723936
-724141
-724244
-724374
-724475
-724525
-724635
-724709
-724887
-725071
-725137
-725299
-726148
-725669
-725666
-725658
-725740
-725840
-725918
-726055
-726201
-726260
-726474
-726606
-726647
-727193
-726985
-726894
-727084
-727263
-727335
-727502
-727645
-727745
-728593
-728211
-728155
-728248
-728425
-728655
-728682
-728950
-728979
-729027
-729150
-729275
-729342
-729389
-729451
-729592
-729696
-729843
-729935
-729904
-729937
-729850
-729926
-729934
-730065
-730105
-730042
-730115
-730186
-730247
-730111
-730019
-730190
-730094
-730043
-730049
-730122
-730146
-730099
-730062
-730077
-729931
-729938
-729935
-729885
-729877
-729765
-729828
-729751
-729720
-729736
-729563
-729521
-729476
-729456
-729476
-729428
-729471
-729622
-729482
-729521
-729414
-729427
-729374
-729477
-729417
-729419
-729563
-729584
-729567
-729577
-729510
-729537
-729541
-729673
-729751
-729758
-729840
-729963
-729922
-730118
-730024
-730037
-730140
-730145
-730327
-730317
-730486
-730687
-730605
-730658
-730654
-730776
-730824
-730909
-731057
-731113
-731269
-731370
-731364
-731512
-731427
-731514
-731527
-731687
-731740
-731858
-732041
-732128
-732231
-732734
-732381
-732427
-732459
-732474
-732694
-732750
-732899
-732915
-733080
-733249
-733158
-733176
-733083
-733189
-733444
-733630
-733740
-733849
-733832
-733996
-733918
-734094
-734135
-734162
-734309
-734316
-734555
-734602
-734708
-734804
-734843
-734910
-734964
-735019
-735097
-735236
-735370
-735418
-735480
-739383
-740361
-740728
-740942
-741024
-737359
-736361
-736150
-737353
-740230
-741042
-741360
-741443
-737896
-736949
-736741
-736711
-740509
-741587
-742058
-742161
-738715
-737572
-737245
-737180
-741095
-742187
-742569
-742716
-742792
-739184
-738132
-737968
-737809
-737863
-738028
-738080
-738195
-738295
-738331
-738397
-738356
-738431
-738473
-738552
-738606
-738629
-738825
-738862
-738783
-738689
-738557
-738591
-738517
-738398
-738175
-737914
-737728
-737480
-737141
-736711
-736166
-735638
-735091
-734571
-734029
-733442
-732983
-732311
-731766
-731207
-730570
-730039
-729527
-728927
-728367
-727927
-727498
-727166
-726647
-726323
-725759
-725349
-724935
-724749
-724435
-724083
-724061
-723861
-723620
-723364
-723167
-723015
-722837
-722794
-722751
-722721
-722665
-722662
-722658
-722666
-722663
-722665
-722659
-722742
-722789
-722890
-723105
-723147
-723202
-723294
-723338
-723418
-723444
-723615
-723898
-723860
-724040
-724262
-724371
-724554
-724544
-724691
-724696
-724925
-725021
-725275
-725381
-725528
-725726
-725870
-725866
-725947
-726060
-726223
-726266
-726492
-726561
-726812
-726902
-726913
-726923
-727073
-727180
-727342
-727417
-727583
-727707
-727768
-727846
-728001
-727939
-728109
-728009
-728208
-728417
-728373
-728589
-728650
-728749
-728803
-728809
-728975
-729093
-729211
-729345
-729525
-729663
-729738
-729836
-730023
-730077
-730150
-730219
-730330
-730500
-730645
-730811
-730930
-730918
-730947
-730885
-730995
-731119
-731116
-731353
-731273
-731357
-731498
-731501
-731479
-731476
-731539
-731492
-731526
-731521
-731574
-731666
-731727
-731670
-731696
-731539
-731609
-731532
-731523
-731428
-731401
-731503
-731479
-731454
-731342
-731265
-731267
-731095
-731103
-731091
-731025
-731018
-730977
-730952
-730799
-730685
-730743
-730755
-730652
-730691
-730755
-730772
-730793
-730593
-730606
-730577
-730608
-730659
-730669
-730749
-730881
-730839
-730836
-730806
-730741
-730752
-730758
-730920
-730969
-730980
-731076
-731015
-731134
-731096
-731175
-731227
-731202
-731329
-731439
-731532
-731633
-731660
-731745
-731709
-731700
-731811
-731950
-732080
-731984
-732102
-732329
-732307
-735901
-737040
-737537
-737697
-737903
-734244
-733218
-733001
-732979
-736829
-737837
-738302
-738331
-734848
-733844
-733621
-733688
-737489
-738610
-738965
-739110
-737657
-735105
-734331
-734279
-737889
-739030
-739552
-739730
-739765
-736192
-734993
-734834
-735275
-734996
-735297
-735294
-735436
-735322
-735477
-735520
-735501
-735649
-735721
-735810
-735940
-736023
-736148
-736000
-735957
-735824
-735932
-736048
-736097
-736251
-736219
-736224
-736222
-736818
-736550
-736533
-736459
-736610
-736635
-736702
-736859
-736796
-736859
-736864
-736842
-736915
-737035
-737145
-737137
-737273
-737332
-737399
-737404
-737401
-737507
-737529
-737489
-737651
-737700
-737831
-737915
-737874
-737977
-737909
-737968
-737997
-738082
-738233
-738219
-738220
-738213
-738131
-738185
-738154
-738198
-738179
-738286
-738241
-738249
-738348
-738409
-738403
-738339
-738128
-738068
-737865
-737666
-737504
-737196
-736991
-736572
-736130
-735581
-734937
-734417
-733909
-733424
-732803
-732178
-731725
-731166
-730420
-729959
-729239
-728676
-728159
-727607
-727081
-726553
-726228
-725897
-725385
-725070
-724526
-724105
-723776
-723506
-723347
-723029
-722864
-722668
-722472
-722270
-722033
-721749
-721659
-721720
-721322
-721431
-721440
-721531
-721497
-721495
-721429
-721489
-721506
-721528
-721573
-721564
-721634
-721720
-721677
-722304
-722016
-722119
-722178
-722321
-722455
-722638
-722806
-722961
-723114
-723263
-723266
-723459
-723480
-723660
-723826
-723920
-724101
-724197
-724242
-724406
-724528
-724485
-724559
-724723
-724851
-725071
-725296
-725326
-725361
-725464
-725502
-725509
-725536
-725654
-725828
-725983
-726152
-726207
-726188
-726324
-726207
-726297
-726384
-726570
-726747
-726833
-726839
-726940
-727029
-727133
-727060
-727226
-727260
-727517
-727532
-727682
-727924
-727999
-728118
-728239
-728267
-728437
-728481
-728594
-728661
-728769
-728951
-729072
-729027
-729081
-729050
-729061
-729055
-729192
-729313
-729322
-729223
-729357
-729317
-729260
-729150
-729272
-729114
-729240
-729261
-729241
-729226
-729178
-729089
-729056
-728930
-728882
-728726
-728690
-728662
-728565
-728616
-728532
-728494
-728342
-731891
-732835
-733074
-733197
-731595
-729023
-728358
-728551
-731706
-732643
-732743
-732741
-732744
-729065
-728081
-727691
-727791
-731338
-732398
-732630
-732797
-729136
-728121
-727762
-727688
-731371
-732550
-732951
-732955
-731335
-728811
-728199
-727930
-728018
-728116
-728149
-728075
-728253
-728348
-728412
-728237
-728283
-728347
-728428
-728564
-728709
-728811
-728887
-728838
-728765
-728859
-728885
-729029
-729074
-729224
-729293
-729392
-729440
-729538
-729357
-729534
-729463
-729592
-729763
-729766
-729798
-729869
-730008
-730071
-729986
-730115
-730111
-730131
-730219
-730258
-730451
-730519
-730531
-730585
-730539
-730551
-730644
-730658
-730901
-730897
-730946
-731005
-731100
-731090
-731104
-731131
-731166
-731152
-731403
-731494
-731545
-731636
-731677
-731687
-731600
-731735
-731816
-731823
-731885
-732040
-732058
-732183
-732158
-732214
-732303
-732384
-732470
-732505
-732601
-732693
-732732
-732802
-732770
-732753
-732864
-732866
-732987
-733023
-733135
-733206
-733209
-733253
-733299
-733278
-733395
-733367
-733555
-733573
-733595
-733631
-733839
-733873
-733913
-733853
-733905
-733960
-734006
-734213
-734203
-734325
-734411
-734341
-734489
-734476
-734551
-734618
-734617
-734746
-734955
-735007
-735175
-735206
-735300
-735230
-735332
-735414
-735517
-735510
-735719
-735915
-735914
-735892
-735999
-735844
-735968
-735949
-736079
-736139
-736192
-736307
-736329
-736408
-736434
-736366
-736373
-736247
-736218
-736112
-735879
-735647
-735466
-735139
-734751
-734244
-733763
-733172
-732555
-732016
-731405
-730810
-730214
-729628
-728993
-728324
-727702
-727044
-726415
-725922
-725315
-724789
-724303
-723711
-723326
-722731
-722301
-721766
-721410
-721187
-720788
-720493
-720169
-719859
-719617
-719170
-719076
-718844
-718698
-718576
-718351
-718631
-718307
-718054
-718038
-717878
-717761
-717677
-717762
-717709
-717738
-717751
-717797
-717821
-717853
-717808
-717981
-717950
-718015
-718163
-718223
-718440
-718525
-718664
-718699
-718653
-718740
-718776
-718933
-718968
-719102
-719277
-719321
-719363
-719488
-719476
-719527
-719605
-719685
-719871
-719960
-720095
-719863
-720127
-720033
-720189
-720069
-720286
-720387
-720436
-720472
-720584
-720811
-720676
-720699
-720739
-720840
-720737
-720800
-720874
-721000
-721052
-721106
-721185
-721206
-721222
-721166
-721361
-721317
-721453
-721513
-721659
-721843
-721848
-721929
-721882
-721970
-722009
-722023
-722189
-722273
-722534
-722602
-722672
-722688
-722633
-722739
-722865
-723019
-723069
-723009
-723232
-723293
-723268
-723254
-723308
-723277
-723228
-723403
-723460
-723502
-723471
-723575
-723509
-723557
-723388
-723338
-723284
-723371
-723287
-723343
-723425
-723358
-723339
-723219
-723166
-723093
-722992
-722996
-722969
-722951
-722894
-722957
-722786
-722879
-722651
-722540
-722521
-722454
-722428
-722402
-722383
-722348
-722323
-722266
-722260
-722345
-722245
-722198
-722191
-722189
-722187
-722115
-722029
-722115
-722033
-722051
-722067
-722027
-722133
-722061
-722331
-722430
-722349
-722353
-722278
-722352
-722367
-722462
-722673
-722724
-722786
-722843
-722923
-722987
-723432
-723116
-722908
-723068
-723139
-723137
-723337
-723353
-723382
-723461
-723526
-723465
-723443
-723580
-723726
-723731
-723866
-723924
-723918
-724083
-724061
-723986
-724017
-724117
-724263
-724329
-724466
-724531
-724542
-724623
-724645
-724644
-724720
-724809
-724957
-725063
-725142
-725203
-725219
-725321
-725275
-725367
-725350
-725402
-725439
-725555
-725762
-725792
-725875
-725951
-725969
-726051
-726000
-726064
-726203
-726338
-726491
-726552
-726541
-726575
-726650
-726672
-726703
-726847
-727001
-726922
-727121
-727201
-727211
-727278
-727195
-727165
-727212
-727296
-727448
-727512
-727549
-727572
-727674
-727744
-727720
-727717
-727709
-728196
-728025
-728016
-728094
-728197
-728178
-728205
-728211
-728223
-728232
-728230
-728523
-728530
-728686
-728736
-728689
-728683
-728762
-728846
-728824
-728801
-728967
-729013
-729137
-729252
-729337
-729285
-729329
-729288
-729373
-729365
-729483
-729546
-729694
-729715
-729726
-729732
-729670
-729524
-729626
-729755
-729911
-729937
-729971
-729920
-730013
-729975
-729708
-729661
-729440
-729356
-729172
-728887
-728713
-728407
-727989
-727499
-726942
-726512
-725852
-725365
-724703
-724073
-723564
-723080
-722398
-721787
-721038
-720535
-719995
-719425
-718974
-718450
-717915
-717438
-717010
-716591
-716592
-715692
-715292
-714958
-714631
-714299
-713983
-713738
-713431
-713767
-713195
-712792
-712430
-712305
-712227
-712186
-712087
-712013
-711811
-711839
-711723
-711638
-711477
-711486
-711493
-711546
-711670
-711601
-711458
-711514
-711511
-711600
-711805
-711857
-712009
-712064
-712245
-712398
-712493
-712532
-712462
-712621
-712690
-712810
-713037
-713041
-713191
-713319
-713472
-713417
-713412
-713445
-713314
-713515
-713758
-713607
-713959
-714068
-714145
-714160
-714208
-714240
-714245
-714188
-714298
-714376
-714522
-714512
-714637
-714636
-714509
-714631
-714650
-714720
-714737
-714858
-715014
-715089
-715064
-715090
-715143
-715129
-715136
-715287
-715374
-715453
-715615
-715796
-715818
-715844
-715921
-715976
-715930
-716188
-716216
-716277
-716507
-716586
-716620
-716778
-716628
-716662
-716765
-716844
-716971
-717062
-717103
-717147
-717156
-717123
-717079
-717115
-717234
-717240
-717307
-717207
-717247
-717256
-717181
-717240
-717189
-717129
-717006
-717031
-717059
-716970
-716946
-717010
-716878
-716817
-716672
-716536
-716537
-716570
-716492
-716356
-716497
-716357
-716308
-716178
-716015
-715965
-715933
-715922
-715973
-715943
-715920
-715929
-715903
-715766
-715724
-715694
-715663
-715644
-715670
-715657
-715755
-715794
-715811
-715743
-715662
-715693
-715558
-715670
-715652
-715671
-715812
-715871
-715915
-715951
-715864
-715845
-715886
-715789
-716061
-716105
-716123
-716244
-716247
-716253
-716154
-716116
-716160
-716271
-716393
-716426
-716565
-716579
-716668
-716754
-716806
-716892
-716961
-717146
-717134
-717123
-717121
-717137
-717757
-717455
-717510
-717423
-717607
-717742
-717795
-717737
-717753
-717800
-717804
-717908
-718087
-718088
-718258
-718321
-718317
-718460
-718282
-718412
-718573
-718669
-718761
-718902
-718972
-719055
-719133
-719129
-719189
-719322
-719323
-719402
-719542
-719674
-719869
-719864
-719980
-719926
-719999
-720047
-720145
-720169
-720213
-720325
-720544
-720578
-720527
-720572
-720586
-720636
-720805
-720778
-720904
-720911
-720922
-721058
-720936
-721074
-721085
-721022
-721181
-721285
-721387
-721521
-721567
-721546
-721508
-721579
-721458
-721592
-721680
-721699
-721911
-721960
-721923
-722113
-722025
-722013
-721965
-722046
-722143
-722127
-722262
-722402
-722441
-722448
-722358
-722387
-722379
-722485
-722598
-722348
-722576
-722679
-723095
-722797
-722743
-722748
-722674
-722736
-722756
-722721
-722872
-723119
-722925
-722843
-722659
-722522
-722419
-722455
-722345
-722122
-721839
-721596
-721279
-720950
-720379
-719796
-719514
-719006
-718508
-718048
-717427
-716768
-716030
-715563
-714920
-714373
-713704
-713060
-712589
-712032
-711511
-711071
-710444
-709920
-709331
-708825
-708310
-708012
-707629
-707193
-706912
-706558
-706205
-705802
-705338
-705073
-704825
-704582
-704411
-704254
-704247
-703995
-703765
-703641
-703409
-703361
-703260
-703169
-703251
-703322
-703221
-703230
-703193
-703230
-703051
-703087
-703120
-703061
-703201
-703437
-703618
-703607
-703636
-703625
-703660
-703657
-703752
-703851
-704011
-704069
-704226
-704283
-704396
-704463
-704481
-704559
-704575
-704746
-704849
-704912
-705037
-705058
-705074
-705153
-705184
-705162
-705198
-705321
-705404
-705489
-705452
-705525
-705557
-705582
-705549
-705562
-705659
-705658
-705811
-705896
-705971
-705936
-706026
-706150
-706051
-706105
-705986
-706208
-706398
-706472
-706715
-706755
-706879
-706921
-706873
-706990
-707112
-707263
-707371
-707417
-707622
-707688
-707706
-707800
-707752
-707908
-707913
-707974
-708050
-708138
-708251
-708207
-708313
-708223
-708191
-708090
-708136
-708181
-708187
-708213
-708193
-708188
-708033
-708025
-707847
-707804
-707795
-707823
-707792
-707825
-707747
-707722
-707594
-707366
-707302
-707268
-707191
-707218
-707242
-707291
-707260
-707048
-707076
-706991
-706939
-706877
-706815
-706859
-706903
-706945
-706938
-706920
-706971
-706937
-706920
-706973
-706967
-707431
-707162
-707234
-707305
-707246
-707264
-707316
-707264
-707314
-707357
-707404
-707506
-707639
-707645
-707661
-707772
-707620
-707707
-707790
-707782
-707857
-707911
-707977
-708125
-708090
-708171
-708167
-708165
-708115
-708232
-708340
-708424
-708609
-708608
-708650
-708764
-708692
-708748
-708538
-708747
-708956
-709045
-709245
-709308
-709379
-709527
-709481
-709496
-709631
-709720
-709792
-709745
-709931
-710156
-710229
-710339
-710307
-710360
-710346
-710433
-710607
-710744
-710877
-710884
-710895
-710880
-710902
-711133
-711162
-711236
-711337
-711452
-711525
-711583
-711737
-711489
-711606
-711616
-711781
-711942
-711967
-712215
-712291
-712391
-712431
-712462
-712470
-712316
-712591
-712789
-712882
-712952
-713121
-713029
-713134
-713068
-713122
-712883
-713364
-713240
-713270
-713302
-713351
-713332
-713441
-713372
-713437
-713600
-713674
-713749
-713841
-713849
-713841
-713878
-713906
-713953
-713983
-713898
-713951
-714592
-714401
-714361
-714464
-714483
-714531
-714507
-714587
-714520
-714585
-714738
-714787
-714954
-715014
-714987
-715050
-714948
-715065
-714891
-715042
-715162
-715300
-715417
-715494
-715519
-715543
-715593
-715682
-715657
-715767
-715871
-715978
-716040
-716092
-716172
-716219
-716202
-716244
-716079
-716016
-716226
-716229
-716330
-716400
-716239
-716055
-715868
-715792
-715646
-715411
-715193
-715024
-714673
-714346
-713937
-713500
-712922
-712469
-711939
-711414
-710896
-710444
-709893
-709326
-708705
-708208
-707618
-707058
-706611
-705968
-705611
-705203
-704869
-704371
-704026
-703500
-703122
-702755
-702416
-702195
-701856
-701629
-701460
-701264
-701030
-700806
-700633
-700457
-700265
-700231
-700157
-700138
-700087
-700075
-700074
-700086
-699996
-699961
-700110
-700102
-700280
-700349
-700587
-700659
-700700
-700752
-700759
-700849
-700968
-701109
-701248
-701312
-701612
-701697
-701705
-701782
-701910
-701987
-702114
-702323
-702433
-702600
-702698
-702885
-702921
-702962
-702993
-703138
-703236
-703323
-703396
-703461
-703685
-703856
-703932
-703909
-703960
-703890
-703976
-704176
-704285
-704290
-704538
-704548
-704604
-704607
-704617
-704707
-704699
-704770
-704887
-705016
-705145
-705282
-705403
-705438
-705511
-705573
-705398
-705562
-705647
-705841
-706004
-706064
-706035
-706099
-706159
-706108
-706197
-706309
-706370
-706467
-706534
-706517
-706448
-706341
-706313
-706341
-706447
-706362
-706314
-706406
-706338
-706500
-706290
-706059
-705974
-705914
-705979
-705988
-705813
-705802
-705820
-705677
-705660
-705544
-705401
-705282
-705211
-705248
-705176
-705201
-705068
-704981
-704961
-704768
-704699
-704707
-704587
-704498
-704501
-704457
-704481
-704389
-704388
-704207
-704148
-704086
-704115
-704177
-704164
-704162
-704240
-704176
-704001
-703986
-704059
-704161
-704239
-704245
-704252
-704341
-704505
-704448
-704472
-704478
-704443
-704579
-704433
-704666
-704812
-704924
-704951
-704999
-704945
-705504
-705083
-705084
-705088
-705249
-705221
-705378
-705486
-705454
-705932
-705352
-705400
-705414
-705515
-705528
-705610
-705726
-705729
-705851
-705892
-705844
-705867
-705898
-705904
-706085
-706128
-706165
-706280
-706372
-706332
-706259
-706441
-706473
-706343
-706539
-706562
-706804
-706801
-706781
-706973
-707030
-707104
-707165
-707206
-707437
-707586
-707753
-707833
-707633
-707858
-707826
-708103
-708189
-708170
-708442
-708681
-708764
-708753
-708865
-708992
-708999
-709096
-709158
-709209
-709432
-709529
-709675
-709855
-709841
-709923
-709909
-710093
-710127
-710230
-710419
-710510
-710655
-710717
-710881
-710934
-710882
-710991
-711125
-711217
-711250
-711486
-711682
-711724
-711796
-712520
-712025
-712092
-712180
-712275
-712351
-712492
-712612
-712740
-712706
-712799
-712765
-712812
-712918
-712928
-713123
-713142
-713455
-713524
-713594
-713533
-713563
-713696
-713726
-713776
-713874
-714052
-714159
-714232
-714238
-714287
-714264
-714362
-714413
-714549
-714566
-714739
-714877
-714931
-714959
-714989
-715009
-715159
-715149
-715152
-715278
-715416
-715516
-715472
-715723
-715716
-715695
-715649
-715814
-715811
-715815
-715762
-715920
-715931
-715847
-715773
-715457
-715348
-715160
-715141
-714791
-714394
-714161
-713797
-713233
-712817
-712184
-711847
-711261
-710722
-710288
-709778
-709404
-708942
-708389
-707834
-707277
-706821
-706264
-705948
-705557
-705180
-704776
-704408
-704086
-703826
-703442
-703002
-702806
-702573
-702278
-702573
-702451
-702105
-701869
-701621
-701470
-701364
-701243
-701312
-701325
-701344
-701367
-701471
-701505
-701531
-701398
-701522
-701602
-701718
-701929
-701975
-702249
-702335
-702559
-702629
-702605
-702802
-702916
-703055
-703402
-703544
-703770
-703877
-704125
-704191
-704306
-704513
-704572
-704857
-705058
-705142
-705340
-705512
-705631
-705818
-705877
-705918
-706097
-706297
-706475
-706510
-706647
-706835
-707008
-706985
-707005
-707112
-707173
-707244
-707411
-707516
-707713
-707787
-707880
-707955
-707920
-708055
-708192
-708286
-708358
-708459
-708446
-708722
-708800
-708852
-708844
-708899
-709029
-709007
-709204
-709269
-709512
-709527
-709493
-709644
-709678
-709742
-709776
-709847
-709856
-709926
-710036
-710024
-710066
-710012
-709903
-709856
-709832
-709796
-709810
-709864
-709823
-709845
-710483
-709874
-709639
-709534
-709498
-709414
-709456
-709276
-709315
-709305
-709140
-709068
-709029
-708914
-708901
-708787
-708748
-708680
-708736
-708650
-708531
-708479
-708465
-708373
-708317
-708305
-708351
-708418
-708582
-708484
-708559
-708544
-708424
-708389
-708459
-708572
-708687
-708767
-708855
-708955
-708963
-709042
-709008
-709004
-709128
-709174
-709409
-709434
-709649
-709720
-709790
-709826
-709802
-710014
-710096
-710143
-710251
-710445
-710630
-710742
-710804
-710885
-710969
-711066
-711085
-711284
-711468
-711482
-711639
-711818
-711959
-712053
-712084
-712149
-712249
-712331
-712558
-712663
-712910
-712982
-712983
-713068
-713153
-713265
-713370
-713498
-713605
-713737
-714043
-714131
-714255
-714314
-714331
-714420
-714584
-714789
-714974
-715466
-715459
-715469
-715636
-715669
-715745
-715904
-716012
-716203
-716220
-716320
-716363
-716422
-716495
-716566
-716634
-716702
-716722
-716878
-716991
-717045
-716995
-717059
-717081
-717103
-717195
-717245
-717480
-717563
-717580
-717616
-717631
-717860
-717838
-717851
-717964
-717983
-718150
-718173
-718223
-718318
-717999
-718215
-718331
-718521
-718600
-718719
-718908
-718726
-718845
-718953
-719031
-719156
-719150
-719270
-719383
-719389
-719574
-719669
-719652
-719696
-719704
-719708
-719820
-719783
-719996
-720013
-720221
-720244
-720353
-720272
-720182
-720298
-720265
-720410
-720431
-720574
-720549
-720595
-721075
-720834
-720562
-720665
-720648
-720643
-720816
-720745
-720967
-721086
-721156
-721135
-721067
-721161
-721234
-721324
-721391
-721324
-721508
-721444
-721565
-721596
-721396
-721093
-721144
-721097
-720915
-720834
-720551
-720302
-719839
-719477
-719065
-718700
-718136
-717795
-717320
-716938
-716454
-715985
-715410
-714912
-714430
-713875
-713422
-713084
-712708
-712398
-712092
-711633
-711260
-710806
-710512
-710279
-709988
-709823
-709569
-709505
-709351
-709139
-708888
-708714
-708547
-708436
-708427
-708424
-708334
-708430
-708457
-708444
-708447
-708423
-708524
-708492
-708550
-708663
-708755
-708985
-709124
-709255
-709312
-709298
-709397
-709564
-709659
-709892
-710011
-710312
-710438
-710528
-710664
-710847
-710915
-711106
-711320
-711518
-711750
-711916
-712148
-712368
-712451
-712353
-712629
-712775
-712944
-713133
-713415
-713608
-713736
-713918
-714009
-714053
-714109
-714272
-714490
-714602
-714704
-714856
-714899
-715147
-715186
-715311
-715359
-715261
-715547
-715713
-715810
-716075
-716135
-716232
-716406
-716491
-716488
-716552
-716832
-716972
-717087
-717292
-717426
-717620
-717623
-717587
-717743
-717782
-717904
-718073
-718209
-718377
-718394
-718516
-718529
-718379
-718424
-718414
-718478
-718655
-718680
-718779
-718737
-718661
-718647
-718640
-718476
-718482
-718484
-718538
-718522
-718497
-718509
-718505
-718450
-718286
-718170
-718145
-718126
-718225
-718130
-718230
-718191
-718187
-718073
-718008
-717901
-717907
-717897
-717928
-717890
-717931
-717851
-717916
-717738
-717717
-717755
-717705
-717701
-717787
-717815
-717939
-717894
-717956
-717938
-717865
-717816
-717853
-717963
-718044
-718036
-718143
-718303
-718281
-718248
-718189
-718294
-718199
-718353
-718482
-718559
-718676
-718815
-718943
-719050
-719044
-719050
-719196
-719401
-719448
-719585
-719640
-719687
-719675
-719671
-719793
-719779
-719783
-719969
-720076
-720232
-720380
-720417
-720522
-720559
-720617
-720640
-720627
-720864
-720916
-721113
-721144
-721164
-721151
-721233
-721378
-721387
-721440
-721672
-721693
-721859
-722011
-722053
-722108
-722096
-722107
-722127
-722181
-722298
-722390
-722659
-722633
-722685
-722878
-722697
-722739
-722786
-722901
-722992
-723044
-723376
-723418
-723692
-723778
-723657
-723788
-723886
-723987
-724105
-724153
-724274
-724276
-724382
-724460
-724408
-724418
-724474
-724555
-724776
-724860
-725072
-725125
-725285
-725301
-725319
-725275
-725432
-725433
-725599
-725654
-725892
-725999
-726112
-726082
-726096
-726107
-726219
-726215
-726321
-726427
-726590
-726698
-726635
-726684
-726633
-726607
-726744
-726730
-726877
-726851
-727014
-727044
-727127
-727108
-727039
-727038
-727071
-727062
-727222
-727228
-727360
-727364
-727456
-727486
-727517
-727430
-727552
-727650
-727709
-727656
-727880
-727901
-727891
-727869
-727774
-727696
-727712
-727645
-727640
-727445
-727439
-727242
-727048
-726788
-726399
-725976
-725536
-725275
-724925
-724406
-724150
-723694
-723291
-722792
-722383
-721883
-721410
-721005
-720688
-720295
-720023
-719637
-719270
-718920
-718434
-718251
-717914
-717619
-717440
-717184
-717100
-716841
-716631
-716461
-716166
-716507
-716189
-716007
-715978
-715905
-715948
-715884
-715928
-715938
-715857
-715853
-716047
-716089
-716136
-716307
-716501
-716533
-716610
-716713
-716817
-716856
-717058
-717268
-717474
-717498
-717768
-717949
-718075
-718274
-718284
-718368
-718675
-718809
-719045
-719191
-719424
-719535
-719612
-719902
-719698
-719870
-719854
-720131
-720451
-720624
-720823
-720905
-721081
-721137
-721058
-721160
-721286
-721455
-721664
-721675
-721863
-721971
-721965
-722142
-722205
-722292
-722327
-722492
-722676
-722720
-723013
-723178
-723206
-723336
-723417
-723391
-723543
-723714
-723850
-724038
-724327
-724376
-724452
-724533
-724665
-724784
-724995
-725140
-725253
-725363
-725501
-725571
-725742
-725736
-725841
-725791
-725825
-725865
-726070
-726109
-726363
-726344
-726427
-726314
-726254
-725869
-726163
-726175
-726311
-726367
-726468
-726421
-726407
-726323
-726186
-726129
-726134
-726181
-726222
-726223
-726181
-726113
-726049
-726016
-725914
-725845
-725789
-725753
-725830
-725833
-725830
-725776
-725856
-725869
-725781
-725634
-725604
-725669
-725847
-725739
-725795
-725777
-725816
-725730
-725655
-725605
-725654
-725687
-725830
-725812
-726004
-726002
-725977
-725989
-725967
-725921
-726037
-726162
-726296
-726376
-726562
-726651
-726572
-726540
-726509
-726518
-726704
-726791
-726885
-726910
-727110
-727225
-727228
-727371
-727400
-727423
-727503
-727522
-727691
-727688
-727907
-728020
-728042
-728083
-728167
-728196
-728329
-728437
-728621
-728711
-728881
-728911
-729101
-729086
-729066
-729195
-729275
-729398
-729499
-729778
-729954
-730011
-730085
-730043
-730180
-730298
-730422
-730967
-730832
-730950
-731009
-731059
-731155
-731189
-731184
-731378
-731549
-731744
-731810
-731971
-732110
-732182
-732291
-732250
-732366
-732444
-732622
-732672
-732795
-733030
-733132
-733209
-733227
-733280
-733205
-733300
-733399
-733574
-733616
-733849
-734453
-734019
-734011
-734018
-734016
-734065
-734199
-734321
-734469
-734548
-734605
-734666
-734790
-735206
-734975
-735029
-735064
-735108
-735243
-735430
-735545
-735528
-735514
-735511
-735518
-735724
-735786
-735899
-736052
-736187
-736299
-736313
-736482
-736448
-736444
-736498
-736674
-736794
-736869
-737022
-737155
-737175
-737162
-737279
-737395
-737378
-737421
-737563
-738175
-737931
-737948
-737916
-737848
-737840
-737738
-737626
-737530
-737570
-737375
-737301
-737121
-736755
-736440
-735953
-735502
-734902
-734588
-734211
-733803
-733373
-732974
-732445
-731829
-731334
-730809
-730318
-729766
-729425
-728957
-728726
-728281
-727804
-727431
-726991
-726773
-726404
-726129
-725833
-725536
-725522
-725241
-725090
-724926
-724649
-724478
-724383
-724317
-724153
-724108
-724183
-724113
-723996
-723950
-723847
-723945
-723936
-723966
-724074
-724146
-724315
-724402
-724441
-724562
-724533
-724598
-724819
-724973
-725170
-725315
-725521
-725662
-725749
-725977
-726002
-726131
-726233
-726374
-726658
-726808
-727092
-727262
-727310
-727510
-727582
-727699
-727839
-728081
-728179
-728350
-728642
-728660
-728848
-728920
-728972
-729176
-729315
-729339
-729327
-729564
-729716
-729772
-729795
-729806
-729789
-729967
-730151
-730285
-730349
-730327
-730406
-730455
-730577
-730637
-730543
-730727
-730697
-730801
-731019
-731233
-731380
-731479
-731498
-731503
-731546
-731612
-731773
-731924
-732007
-732137
-732071
-732229
-732435
-732396
-732243
-732527
-732552
-732658
-732705
-732942
-732865
-732897
-732981
-732891
-732861
-732706
-732764
-732897
-732813
-732897
-732847
-732777
-732755
-732633
-732651
-732629
-732546
-732576
-732482
-732529
-732528
-732508
-732390
-732263
-732114
-731957
-732075
-732078
-731888
-732011
-731863
-731769
-731717
-731617
-731539
-731471
-731193
-731285
-731250
-731152
-731029
-730965
-730962
-730919
-731081
-731099
-731100
-731038
-730938
-730937
-730921
-731026
-731103
-731115
-731170
-731204
-731258
-731282
-731281
-731282
-731262
-731235
-731522
-731531
-731719
-731865
-731923
-731944
-731950
-732085
-732186
-732234
-732269
-732314
-732495
-732519
-732667
-732617
-732532
-732694
-732728
-732747
-732889
-733018
-733124
-733169
-733627
-733390
-733346
-733247
-733422
-733499
-733677
-733687
-733900
-734074
-734075
-734090
-734124
-734176
-734208
-734387
-734537
-734648
-734878
-734869
-735013
-734916
-735020
-735101
-735107
-735179
-735407
-735305
-735654
-735743
-735891
-735926
-735968
-736026
-736176
-736131
-736429
-736506
-736436
-736667
-736813
-736770
-736788
-736857
-736969
-737045
-737119
-737219
-737460
-737564
-737528
-737676
-737613
-737687
-737749
-737864
-738010
-737958
-738131
-738199
-738323
-738279
-738322
-738332
-738355
-738467
-738573
-738635
-738747
-738801
-738806
-738908
-738870
-738811
-738917
-738922
-739111
-739144
-739216
-739352
-739341
-739363
-739289
-739299
-739425
-739565
-739731
-739724
-739907
-739975
-740027
-740023
-740025
-740056
-740184
-740222
-740327
-740303
-740615
-740703
-740748
-740777
-740678
-740739
-740788
-740845
-740888
-740758
-740791
-740757
-740457
-740330
-739970
-739672
-739256
-738767
-738612
-738255
-737959
-737449
-736938
-736444
-735966
-735340
-734891
-734461
-734036
-733506
-733146
-732767
-732327
-731883
-731421
-730929
-730492
-730182
-729911
-729571
-729331
-729105
-728851
-728648
-728388
-728088
-727937
-727692
-727690
-727618
-727565
-727476
-727321
-727348
-727256
-727150
-727167
-727177
-727174
-727242
-727335
-727400
-727569
-727531
-727470
-727563
-727735
-727875
-728029
-727906
-728341
-728583
-728668
-728723
-728851
-728880
-729056
-729154
-729475
-729572
-729792
-729925
-730023
-730108
-730138
-730277
-730447
-730502
-730693
-730790
-731082
-731113
-731298
-731284
-731346
-731361
-731473
-731651
-731786
-731744
-731956
-732067
-732107
-732208
-732154
-732137
-732178
-732284
-732446
-732573
-732639
-732746
-732851
-732903
-732881
-732841
-732904
-733056
-733186
-733206
-733424
-733445
-733504
-733746
-733662
-733717
-733789
-733964
-734101
-734171
-734434
-734517
-734582
-734498
-734519
-734581
-734749
-734920
-734896
-735002
-735144
-735169
-735180
-735055
-735090
-735108
-735156
-735083
-735173
-735323
-735379
-735227
-735279
-735211
-735163
-735105
-735152
-735107
-735097
-735169
-735099
-735070
-735013
-734970
-734905
-734841
-734848
-734777
-734815
-734857
-734826
-734713
-734660
-734543
-734487
-734469
-734489
-734442
-734492
-734445
-734426
-734377
-734433
-734343
-734277
-734241
-734238
-734336
-734345
-734352
-734411
-734513
-734496
-734348
-734424
-734327
-734421
-734892
-734562
-734674
-734712
-734787
-734741
-734639
-734742
-734722
-734801
-734984
-735024
-735127
-735115
-735264
-735282
-735241
-735245
-735420
-735455
-735633
-735657
-735874
-735984
-735985
-736022
-735907
-735994
-736189
-736246
-736288
-736460
-736560
-736640
-736662
-736590
-736696
-736915
-736957
-737164
-737160
-737350
-737346
-737434
-737432
-737472
-737473
-737573
-737613
-737848
-737793
-738078
-738234
-738186
-738267
-738149
-738197
-738291
-738426
-738553
-738534
-738784
-738882
-738948
-738994
-738938
-738987
-739043
-739155
-739221
-739247
-739451
-739518
-739601
-739647
-739511
-739580
-739737
-739842
-739950
-739987
-740132
-740184
-740293
-740307
-740278
-740383
-740401
-740490
-740690
-740694
-740911
-741026
-741050
-740946
-740885
-740986
-741052
-741189
-741375
-741530
-741546
-741638
-741580
-741638
-741704
-741779
-741577
-741823
-741982
-741922
-742213
-742237
-742195
-742240
-742263
-742323
-742296
-742110
-742471
-742451
-742653
-742767
-742848
-742926
-742872
-742704
-742804
-742936
-742987
-743025
-743137
-743300
-743214
-743196
-743260
-743303
-743286
-743358
-743457
-743461
-743604
-743637
-743664
-743608
-743322
-743555
-743567
-743735
-743777
-743807
-743905
-743814
-743776
-743741
-743576
-743484
-743405
-743222
-743042
-742828
-742571
-742257
-741830
-741425
-740827
-740353
-739882
-739403
-738912
-738366
-737958
-737446
-736940
-736476
-735899
-735296
-734864
-734353
-733964
-733553
-733196
-732811
-732419
-732009
-731590
-731209
-730958
-730739
-730559
-730306
-730113
-729910
-729697
-729481
-729271
-729029
-728951
-729039
-728942
-728801
-728837
-728899
-728907
-728865
-728804
-728785
-728758
-728861
-728997
-729067
-729192
-729206
-729314
-729436
-729431
-729449
-729609
-729789
-730021
-730066
-730207
-730431
-730509
-730541
-730575
-730655
-730594
-730834
-731063
-731209
-731423
-731556
-731630
-731750
-731861
-732005
-732042
-732207
-732396
-732416
-732658
-732768
-732793
-732920
-732978
-732989
-733176
-733414
-733576
-733714
-733825
-733566
-733920
-734191
-734202
-734157
-734209
-734387
-734489
-734559
-734849
-734907
-735046
-735095
-735243
-735289
-735349
-735492
-735792
-735783
-735948
-736148
-736197
-736212
-736350
-736337
-736475
-736559
-736876
-736986
-737243
-737332
-737251
-737403
-737537
-737574
-737563
-737580
-737729
-737719
-737810
-737945
-737927
-737894
-737972
-737939
-737984
-737980
-738025
-738096
-738183
-738179
-738099
-738187
-738034
-738093
-738112
-738051
-738142
-738166
-738248
-738148
-738150
-737975
-738016
-737963
-737944
-737937
-737955
-737948
-738001
-737941
-737909
-737905
-737813
-737689
-737773
-737699
-737827
-737699
-737773
-737735
-737752
-737744
-737650
-737557
-737456
-737536
-737628
-737522
-737638
-737658
-737694
-737643
-737523
-737602
-737585
-737695
-737793
-737743
-737933
-737746
-737996
-738004
-737964
-737975
-737937
-738117
-738269
-738299
-738427
-738561
-738471
-738468
-738525
-738442
-738621
-738692
-738787
-738772
-738965
-738954
-738970
-739079
-739024
-739014
-739131
-739098
-739196
-739253
-739341
-739444
-739813
-739696
-739610
-739482
-739625
-739712
-739813
-739826
-740099
-740111
-740122
-740223
-740156
-740198
-740164
-740335
-740342
-740428
-740544
-740575
-740755
-740739
-740741
-740732
-740783
-740863
-740985
-741038
-741209
-741202
-741200
-741277
-741308
-741316
-741355
-741360
-741429
-741503
-741701
-741834
-741863
-741875
-741823
-741943
-742010
-742125
-742224
-742311
-742497
-742498
-742568
-742612
-742616
-742609
-742572
-742732
-742760
-742903
-743176
-743282
-743244
-743285
-743270
-743256
-743386
-743527
-743860
-743878
-743908
-743910
-743907
-743990
-744029
-743902
-744110
-744477
-744506
-744468
-744559
-744471
-744516
-744497
-744689
-744831
-744902
-745040
-745085
-745182
-745170
-745121
-745120
-745161
-745147
-745217
-745347
-745464
-745584
-745518
-745401
-745301
-745290
-745249
-745744
-745219
-744840
-744880
-744680
-744495
-744125
-743688
-743246
-742897
-742487
-742155
-741572
-741161
-740757
-740180
-739715
-739175
-738641
-738094
-737681
-737307
-736765
-736620
-736118
-735738
-735284
-734786
-734421
-733918
-733631
-733374
-733050
-732795
-732633
-732519
-732200
-731996
-731739
-731505
-731461
-731341
-731281
-731264
-731162
-731082
-730926
-730832
-730735
-730739
-730830
-730859
-730821
-730914
-730926
-731008
-731036
-731158
-731243
-731271
-731404
-731454
-731514
-731706
-731923
-731944
-732033
-732012
-732125
-732117
-732288
-732589
-732729
-732955
-733014
-733141
-733255
-733202
-733335
-733332
-733597
-733751
-733858
-734026
-734197
-734255
-734401
-734359
-734511
-734622
-734817
-734935
-735076
-735225
-735351
-735564
-735464
-735408
-735521
-735641
-735839
-736016
-736118
-736336
-736435
-736496
-736634
-736626
-736747
-736854
-737032
-737174
-737283
-737427
-737587
-737768
-737887
-737859
-738046
-738111
-738187
-738417
-738542
-738739
-738514
-738824
-738988
-738951
-739025
-739039
-739143
-739275
-739423
-739572
-739514
-739540
-739547
-739514
-739378
-739500
-739628
-739697
-739677
-739723
-739736
-739663
-739559
-739456
-739594
-739456
-739702
-739578
-739377
-739476
-739473
-739310
-739202
-739008
-738996
-738913
-738863
-738860
-738725
-738848
-738813
-738687
-738625
-738496
-738320
-738240
-738315
-738646
-738425
-738308
-738194
-738246
-738256
-738155
-738154
-738140
-738138
-738157
-738140
-738015
-738164
-738221
-738320
-738217
-738166
-738256
-738320
-738374
-738394
-738603
-738642
-738675
-738611
-738555
-738612
-738767
-738829
-738900
-738938
-739144
-739177
-739279
-739205
-739234
-739277
-739336
-739421
-739467
-739497
-739683
-739781
-739755
-739724
-739774
-739739
-739822
-739824
-740013
-740000
-740181
-740209
-740202
-740262
-740118
-740164
-740171
-740258
-740304
-740300
-740473
-740490
-740532
-740525
-740531
-740552
-740527
-740595
-740628
-740774
-740923
-740866
-741036
-741042
-740954
-741003
-741100
-741077
-741184
-741226
-741435
-741482
-741442
-741587
-741529
-741276
-741240
-741543
-741681
-741703
-741826
-741950
-741937
-742075
-742002
-742121
-742264
-742501
-742674
-742771
-742963
-742981
-743118
-743160
-743014
-743084
-743168
-743057
-743188
-743205
-743318
-743464
-743483
-743580
-743637
-743720
-743846
-743903
-743984
-744120
-744205
-744240
-744287
-744310
-744217
-744227
-744251
-744309
-744296
-744307
-744475
-744385
-744563
-744867
-744877
-744921
-744929
-744988
-745069
-745097
-745096
-745093
-745041
-744901
-744802
-744716
-744615
-744634
-744509
-744383
-744206
-743918
-743614
-743239
-742798
-742219
-741756
-741243
-740645
-740258
-739818
-739332
-738772
-738304
-737727
-737166
-736454
-736166
-735619
-735278
-735059
-734714
-734419
-734058
-733212
-733209
-733014
-732746
-732466
-732272
-732057
-731795
-731624
-731318
-731014
-730860
-730682
-730489
-730430
-730286
-730300
-730202
-730217
-730126
-730037
-729958
-729963
-729863
-729935
-729930
-730061
-730164
-730091
-730272
-730210
-730221
-730367
-730431
-730498
-730589
-730817
-730848
-730654
-730833
-730895
-731035
-731064
-731204
-731275
-731441
-731558
-731795
-731891
-731882
-731899
-731908
-732007
-732260
-732359
-732420
-732565
-732716
-732723
-732911
-732848
-732888
-732985
-733145
-733241
-733323
-733436
-733559
-733649
-733725
-733793
-733870
-733946
-733991
-734111
-734235
-734462
-734597
-734686
-734752
-734820
-734893
-734997
-735181
-735316
-735492
-735666
-735763
-736018
-736107
-736016
-736239
-736344
-736551
-736755
-736833
-736969
-737155
-737141
-737196
-737281
-737346
-737391
-737461
-737624
-737603
-737739
-737869
-737824
-737794
-737778
-737804
