PPG
-488812
-488870
-488889
-488897
-488944
-488932
-489016
-488981
-489080
-489094
-489092
-489102
-489137
-489208
-489296
-489394
-489343
-489371
-489442
-489498
-489559
-489564
-489657
-489703
-489820
-489857
-489866
-489903
-489958
-490462
-490259
-490222
-490283
-490346
-490406
-490457
-490412
-490499
-490630
-490570
-490672
-490755
-490690
-490730
-490742
-490808
-490731
-490719
-490630
-490454
-490296
-490191
-489911
-489650
-489316
-488928
-488512
-488115
-487789
-487216
-486737
-486174
-485646
-485158
-484605
-484081
-483502
-482969
-482430
-481881
-481426
-480917
-480417
-479924
-479499
-479042
-478531
-478020
-477630
-477276
-476913
-476495
-476137
-475964
-475607
-475329
-474997
-474747
-474548
-474350
-474269
-474060
-473801
-473771
-473686
-473639
-473541
-473313
-473382
-473429
-473525
-473563
-473491
-473561
-473605
-473743
-473787
-473862
-473882
-474050
-474187
-474253
-474303
-474422
-474624
-474786
-474842
-474969
-475119
-475312
-475501
-475509
-475722
-475864
-476043
-476178
-476221
-476358
-476406
-476598
-476733
-476922
-476974
-477073
-477261
-477159
-477290
-477428
-477571
-477681
-477782
-477846
-477918
-477920
-477995
-478045
-478080
-477986
-478143
-478216
-478268
-478293
-478347
-478381
-478400
-478428
-478747
-478515
-478435
-478574
-478620
-478607
-478683
-478770
-478825
-478829
-478857
-478890
-479037
-479177
-479260
-479300
-479373
-479420
-479569
-479562
-479707
-479756
-479877
-479937
-480060
-479963
-480064
-480226
-480269
-480292
-480313
-480290
-480331
-480335
-480388
-480413
-480424
-480454
-480431
-480469
-480392
-480384
-480462
-480373
-480397
-480228
-480243
-480319
-480284
-480326
-480186
-480143
-480145
-480089
-480083
-480042
-479928
-479852
-479746
-479645
-479663
-479510
-479487
-479457
-479397
-479396
-479429
-479332
-479328
-479214
-479181
-479160
-479254
-479188
-479077
-479070
-479065
-478904
-478953
-478950
-478952
-478895
-478963
-478973
-478890
-478911
-478941
-478865
-479025
-479031
-479039
-479102
-479161
-479230
-479272
-479358
-479424
-479580
-479640
-479707
-479747
-479859
-479927
-480050
-480111
-480185
-480204
-480432
-480474
-480542
-480594
-480690
-480840
-480868
-480737
-480980
-481081
-481171
-481283
-481356
-481409
-481501
-481555
-481609
-481665
-481765
-481851
-481810
-481930
-481944
-481994
-482032
-482146
-482226
-482282
-482442
-482515
-482865
-482710
-482651
-482739
-482842
-482885
-482861
-482858
-483166
-483210
-483183
-483250
-483382
-483427
-483497
-483523
-483586
-483747
-483743
-483826
-483829
-483696
-483848
-483983
-484084
-484100
-484102
-484216
-484263
-484344
-484280
-484299
-484418
-484436
-484579
-484520
-484646
-484669
-484703
-484826
-484798
-484946
-485020
-485103
-485025
-485176
-485168
-485374
-485405
-485471
-485456
-485439
-485562
-485722
-486078
-485930
-485863
-485934
-485948
-486083
-486046
-486150
-486166
-486247
-486251
-486354
-486346
-486439
-486410
-486510
-486459
-486446
-486499
-486504
-486612
-486670
-486611
-486768
-486743
-486748
-486700
-486670
-486817
-486907
-486990
-486994
-486893
-486947
-487068
-487105
-487077
-487114
-487180
-487244
-487281
-487265
-487316
-487315
-487374
-487378
-487364
-487384
-487528
-487447
-487530
-487565
-487509
-487535
-487616
-487614
-487622
-487702
-487715
-487754
-487839
-487897
-487862
-487950
-487890
-487944
-488065
-488007
-488057
-488090
-488152
-488137
-488178
-488240
-488368
-488326
-488368
-488418
-488484
-488550
-488621
-488573
-488618
-488676
-488719
-488733
-488724
-488716
-488765
-488850
-488825
-488778
-488724
-488687
-488612
-488546
-488325
-488084
-487826
-487658
-487344
-487017
-486522
-486122
-485689
-485223
-484605
-484133
-483604
-483145
-482561
-481936
-481378
-480865
-480259
-479775
-479252
-478611
-478189
-477587
-477050
-476671
-476048
-475685
-475243
-474747
-474342
-473915
-473525
-473151
-472846
-472711
-472231
-471078
-470845
-470771
-470628
-470385
-470308
-470188
-470147
-470046
-470044
-470022
-469945
-469962
-470060
-470146
-470132
-470013
-470201
-470272
-470387
-470217
-470382
-470561
-470680
-470877
-470950
-471040
-471205
-471283
-471423
-471364
-471535
-471730
-471891
-472010
-472171
-472071
-472335
-472506
-472677
-472724
-472762
-472885
-473001
-473033
-473170
-473224
-473302
-473374
-473389
-473472
-473478
-473560
-473586
-473578
-473618
-473608
-473606
-473673
-473832
-473641
-473625
-473674
-473647
-473624
-473614
-473588
-473637
-473662
-473617
-473623
-473674
-473633
-473741
-473794
-473714
-473836
-473847
-473911
-473890
-473970
-474030
-474118
-474215
-474292
-474346
-474391
-474393
-474634
-474714
-474800
-474844
-474935
-475051
-475112
-475158
-475178
-475325
-475421
-475430
-475498
-475511
-475601
-475647
-475671
-475740
-475634
-475767
-475778
-475789
-475790
-475730
-475853
-475823
-475800
-475743
-475787
-475772
-475774
-475730
-475674
-475686
-475620
-475567
-475608
-475533
-475425
-475420
-475392
-475345
-475161
-475168
-475134
-475049
-474966
-474872
-474777
-474747
-474698
-474681
-474665
-474559
-474576
-474521
-474564
-474496
-474457
-474528
-474484
-474482
-474405
-474414
-474435
-474491
-474478
-474544
-474496
-474560
-474600
-474687
-474726
-474777
-474781
-474869
-474948
-475055
-475032
-475084
-475212
-475314
-475432
-475401
-475476
-475558
-475699
-475763
-475732
-475929
-475949
-476077
-476115
-476170
-476296
-476387
-476400
-476462
-476498
-476585
-476749
-476808
-476880
-476898
-476993
-477163
-477191
-477260
-477294
-477484
-477525
-477572
-477638
-477706
-477828
-477959
-477935
-477979
-478061
-478156
-478246
-478270
-478358
-478404
-478503
-478620
-478677
-478675
-478768
-478861
-478966
-478902
-479048
-479037
-479125
-479173
-479215
-479240
-479224
-479303
-479388
-479468
-479459
-479385
-479519
-479530
-479647
-479535
-479568
-479726
-479782
-479873
-479769
-479823
-479978
-479925
-480043
-480144
-480114
-480212
-480259
-480297
-480279
-480316
-480409
-480505
-480533
-480667
-480650
-480726
-480718
-480830
-480873
-480716
-480900
-481036
-481095
-481064
-481107
-481180
-481300
-481353
-481329
-481427
-481521
-481549
-481550
-481567
-481632
-481654
-481744
-481751
-481805
-481791
-481867
-481951
-481958
-481974
-482066
-482079
-482208
-482279
-482342
-482349
-482379
-482422
-482449
-482522
-482559
-482505
-482569
-482647
-482743
-482684
-482635
-482708
-482786
-482818
-482828
-482923
-482957
-482931
-483051
-483079
-483118
-483170
-483242
-483335
-483329
-483297
-483437
-483506
-483579
-483671
-483713
-483759
-483767
-483813
-483918
-483867
-484000
-484054
-484124
-484176
-484202
-484332
-484337
-484339
-484438
-484493
-484553
-484568
-484714
-484728
-484679
-484772
-484730
-484764
-484745
-484602
-484613
-484459
-484382
-484106
-483935
-483702
-483420
-482988
-482692
-482194
-481799
-481319
-480811
-480318
-479684
-479246
-478742
-478139
-477598
-476961
-476404
-475904
-475273
-474738
-474122
-473673
-473195
-472684
-472104
-471581
-471177
-470700
-470267
-469875
-469432
-469140
-468742
-468376
-468131
-467802
-467564
-467324
-467166
-466929
-466770
-466598
-466563
-466472
-466320
-466228
-466174
-466127
-466138
-466090
-466019
-466121
-466224
-466212
-466326
-466381
-466512
-466567
-466694
-466781
-466832
-467037
-467211
-467291
-467420
-467458
-467646
-467749
-467887
-467981
-468121
-468259
-468378
-468538
-468644
-468702
-468920
-469019
-469124
-469245
-469315
-469481
-469523
-469625
-469677
-469732
-469863
-469911
-470023
-470003
-470030
-470098
-470218
-470246
-470238
-470220
-470250
-470319
-470315
-470350
-470243
-470339
-470297
-470316
-470287
-470186
-470272
-470259
-470304
-470297
-470265
-470269
-470366
-470354
-470353
-470325
-470372
-470386
-470530
-470546
-470678
-470800
-470826
-470948
-470980
-471024
-471211
-471303
-471450
-471535
-471582
-471753
-471775
-471929
-472024
-472052
-472115
-472229
-472334
-472320
-472394
-472488
-472505
-472474
-472558
-472517
-472528
-472591
-472710
-472697
-472637
-472629
-472688
-472631
-472574
-472556
-472578
-472539
-472494
-472448
-472367
-472279
-472242
-472213
-472078
-472000
-471902
-471858
-471907
-471795
-471714
-471694
-471627
-471679
-471597
-471499
-471422
-471429
-471465
-471426
-471402
-471405
-471366
-471319
-471336
-471307
-471257
-471370
-471337
-471287
-471260
-471382
-471408
-471475
-471438
-471463
-471505
-471478
-471539
-471554
-471548
-471586
-471768
-471738
-471805
-471795
-472000
-472070
-471991
-472142
-472222
-472298
-472265
-472455
-472565
-472575
-472622
-472752
-472857
-472889
-472933
-473085
-473183
-473279
-473317
-473456
-473526
-473630
-473733
-473759
-473857
-473919
-473963
-474034
-474156
-474115
-474241
-474103
-474295
-474342
-474381
-474463
-474521
-474617
-474684
-474676
-474679
-474853
-474942
-475007
-475004
-475023
-475102
-475180
-475261
-475311
-475374
-475425
-475380
-475518
-475519
-475606
-475759
-475826
-475873
-475821
-475903
-475877
-475972
-476064
-476077
-476217
-476343
-476317
-476394
-476756
-476623
-476572
-476668
-476716
-476777
-476832
-476893
-476943
-477014
-476960
-477047
-477027
-477141
-477214
-477234
-477325
-477392
-477391
-477414
-477380
-477517
-477536
-477624
-477603
-477668
-477732
-477707
-477763
-477741
-477828
-477928
-478083
-478018
-478009
-478137
-478160
-478310
-478358
-478357
-478401
-478419
-478510
-478535
-478629
-478645
-478731
-478730
-478791
-478788
-478869
-479049
-479095
-479189
-479370
-479261
-479287
-479356
-479415
-479360
-479394
-479524
-479791
-479555
-479538
-479581
-479521
-479495
-479511
-479586
-479613
-479641
-479652
-479656
-479754
-479821
-479904
-479937
-479863
-479890
-479901
-480059
-480097
-480148
-480228
-480272
-480260
-480330
-480391
-480394
-480486
-480818
-480687
-480610
-480690
-480793
-480830
-480907
-480868
-481020
-481065
-481160
-481200
-481267
-481122
-481268
-481427
-481426
-481420
-481457
-481523
-481561
-481551
-481465
-481477
-481322
-481171
-481011
-480762
-480559
-480265
-479937
-479555
-479100
-478658
-478207
-477695
-477227
-476699
-476157
-475689
-475354
-474601
-474051
-473535
-473048
-472446
-471882
-471356
-470904
-470383
-469791
-469363
-468839
-468391
-467968
-467500
-467133
-466672
-466431
-465987
-465762
-465394
-465114
-464864
-464607
-464478
-464152
-463986
-463864
-463731
-463613
-463586
-463442
-463371
-463389
-463340
-463173
-463216
-463300
-463413
-463796
-463681
-463622
-463687
-463799
-463916
-463969
-464071
-464266
-464347
-464483
-464534
-464653
-464811
-464971
-465090
-465194
-465286
-465473
-465620
-465662
-465826
-465868
-466043
-466128
-466242
-466303
-466370
-466549
-466616
-466747
-466799
-466838
-466891
-466980
-466981
-467075
-467036
-467125
-467203
-467250
-467280
-467320
-467382
-467331
-467372
-467341
-467367
-467376
-467351
-467412
-467396
-467410
-467451
-467467
-467556
-467560
-467512
-467657
-467696
-467754
-467792
-467846
-467909
-467912
-467973
-468077
-468186
-468234
-468395
-468442
-468549
-468613
-468612
-468802
-468847
-468916
-468935
-469080
-469145
-469167
-469381
-469465
-469446
-469464
-469548
-469570
-469745
-469665
-469597
-469677
-469618
-469543
-469603
-469639
-469653
-469639
-469638
-469663
-469537
-469532
-469480
-469424
-469401
-469316
-469269
-469231
-469230
-469110
-469089
-468957
-468850
-468828
-468891
-468725
-468771
-468721
-468613
-468584
-468540
-468453
-468455
-468357
-468297
-468310
-468350
-468272
-468280
-468316
-468231
-468260
-468319
-468239
-468317
-468150
-468280
-468319
-468387
-468358
-468322
-468454
-468445
-468527
-468596
-468657
-468732
-468816
-468929
-469094
-469072
-469152
-469252
-469292
-469345
-469442
-469503
-469655
-469690
-469766
-469860
-469950
-469959
-470179
-470301
-470311
-470419
-470467
-470672
-470684
-470752
-470845
-470895
-470947
-471106
-471119
-471287
-471284
-471392
-471552
-471503
-471627
-471619
-471680
-471788
-471805
-471954
-471972
-472106
-472192
-472199
-472321
-472347
-472336
-472415
-472480
-472533
-472693
-472752
-472735
-472743
-472805
-472904
-473017
-473093
-473025
-473157
-473226
-473247
-473370
-473360
-473459
-473539
-473592
-473628
-473641
-473759
-473823
-473885
-473946
-473970
-473987
-474130
-474145
-474227
-474214
-474333
-474376
-474486
-474595
-474576
-474622
-474685
-474817
-474812
-474845
-474900
-474833
-475031
-475074
-475128
-475092
-475193
-475164
-475213
-475245
-475248
-475632
-475473
-475482
-475474
-475446
-475473
-475574
-475544
-475527
-475563
-475603
-475609
-475761
-475773
-475817
-475784
-475949
-475972
-475934
-476048
-476019
-476096
-476115
-476147
-476282
-476304
-476282
-476342
-476309
-476453
-476485
-476519
-476551
-476532
-476539
-476679
-476580
-476699
-476770
-476790
-476851
-476927
-476978
-476967
-477028
-477118
-477155
-477210
-477293
-477352
-477435
-477486
-477502
-477486
-477631
-477679
-477730
-477760
-477799
-477878
-477895
-477945
-477925
-478009
-478106
-478146
-478185
-478235
-478246
-478273
-478261
-478285
-478287
-478176
-478508
-478183
-477910
-477694
-477403
-477207
-476966
-476528
-476197
-475846
-475433
-474849
-474433
-473943
-473487
-472952
-472455
-471986
-471459
-470873
-470354
-469915
-469407
-469229
-468656
-467935
-467422
-466978
-466527
-466072
-465636
-465247
-464806
-464498
-464110
-463820
-463533
-463274
-463005
-462691
-462554
-462338
-462120
-462011
-461929
-461764
-461723
-461719
-461672
-461593
-461617
-461668
-461746
-461716
-461821
-461841
-461976
-462055
-462103
-462177
-462296
-462444
-462596
-462758
-462840
-462985
-463149
-463623
-463454
-463521
-463696
-463782
-463955
-464046
-464104
-464291
-464697
-464966
-464639
-464729
-464860
-465007
-465141
-465182
-465240
-465394
-465472
-465521
-465612
-465623
-465777
-465929
-465949
-465960
-465982
-466039
-466008
-466103
-466090
-466164
-466132
-466209
-466161
-466062
-466175
-466208
-466251
-466284
-466099
-466284
-466285
-466377
-466359
-466444
-466508
-466644
-466625
-466756
-466765
-466903
-467005
-467117
-467133
-467281
-467427
-467557
-467668
-467760
-467832
-467969
-468110
-468239
-468403
-468386
-468462
-468503
-468612
-468661
-468741
-468754
-468862
-468942
-469272
-469068
-469122
-469114
-469224
-469190
-469153
-469173
-469253
-469250
-469312
-469186
-469263
-469278
-469212
-469235
-469112
-469125
-469131
-469065
-469037
-468926
-468964
-468914
-468887
-468902
-468821
-468810
-469236
-468795
-468710
-468606
-468567
-468574
-468540
-468443
-468405
-468408
-468367
-468343
-468392
-468307
-468258
-468189
-468246
-468240
-468254
-468332
-468352
-468300
-468328
-468482
-468553
-468549
-468610
-468675
-468804
-468789
-468959
-468974
-469097
-469212
-469192
-469198
-469383
-469476
-469605
-469616
-469829
-469843
-469976
-470061
-470023
-470161
-470278
-470269
-470376
-470448
-470513
-470576
-470678
-470802
-470867
-470847
-470984
-471095
-471110
-471107
-471212
-471294
-471328
-471429
-471503
-471553
-471649
-471791
-471836
-471768
-471902
-471996
-472088
-472266
-472222
-472412
-472469
-472611
-472638
-472615
-472679
-472688
-472833
-472847
-472867
-473087
-473149
-473174
-473184
-473177
-473250
-473296
-473339
-473369
-473223
-473351
-473423
-473491
-473572
-473519
-473617
-473645
-473799
-473814
-473876
-473815
-474030
-474001
-474102
-474055
-474196
-474202
-474222
-474369
-474393
-474545
-474595
-474607
-474631
-474536
-474639
-474724
-474692
-474781
-474793
-474875
-474928
-474910
-474917
-474947
-475007
-475052
-475056
-475093
-475117
-475166
-475168
-475137
-475224
-475213
-475311
-475307
-475413
-475380
-475390
-475409
-475381
-475459
-475454
-475458
-475575
-475537
-475533
-475656
-475654
-475653
-475617
-475754
-475768
-475744
-475779
-475799
-475883
-475870
-475777
-475834
-475905
-475985
-475878
-475869
-475925
-475938
-475998
-475968
-476029
-476107
-476133
-476183
-476239
-476175
-476242
-476225
-476287
-476364
-476314
-476370
-476419
-476501
-476548
-476603
-476617
-476659
-476706
-476784
-476835
-476982
-477014
-477059
-477047
-477158
-477174
-477261
-477262
-477280
-477378
-477433
-477492
-477604
-477601
-477649
-477641
-477671
-477575
-477543
-477502
-477413
-477290
-477171
-476864
-476705
-476483
-476177
-475830
-475483
-475020
-474640
-474269
-473815
-473328
-472888
-472285
-471809
-471356
-470809
-470322
-469909
-469333
-468832
-468252
-467862
-467345
-466882
-466424
-465886
-465517
-465104
-464728
-464284
-463963
-463669
-463343
-463066
-462793
-462550
-462348
-462086
-461941
-461798
-461536
-461464
-461308
-461220
-461179
-461091
-461053
-461041
-461057
-461094
-461038
-461167
-461231
-461289
-461373
-461479
-461548
-461600
-461680
-461908
-461944
-462137
-462240
-462421
-462553
-462625
-462766
-462959
-463032
-463174
-463265
-463393
-463540
-463698
-463806
-463939
-464061
-464103
-464214
-464200
-464329
-464544
-464584
-464650
-464771
-464828
-464961
-465019
-465136
-465188
-465330
-465380
-465404
-465789
-465612
-465545
-465594
-465681
-465643
-465748
-465674
-465672
-465726
-465825
-465840
-465835
-465913
-465960
-465988
-466071
-465985
-466175
-466308
-466356
-466482
-466543
-466673
-466763
-466862
-466924
-467025
-467127
-467092
-467263
-467379
-467431
-467520
-467589
-467658
-467870
-467772
-467779
-467899
-467917
-467970
-467935
-468047
-468048
-468043
-468062
-468058
-468051
-468075
-468061
-468034
-468024
-467977
-467786
-467813
-467769
-467711
-467684
-467678
-467548
-467582
-467359
-467352
-467234
-466996
-467026
-466902
-466910
-466854
-466867
-466786
-466568
-466557
-466750
-466430
-466347
-466241
-466185
-466183
-466042
-466069
-465946
-465971
-465951
-465681
-465823
-465903
-465909
-465906
-465904
-465917
-465933
-465937
-465964
-465945
-465993
-466013
-466051
-466140
-466082
-466215
-466305
-466383
-466499
-466616
-466682
-466788
-466833
-467004
-467025
-467149
-467428
-467664
-467577
-467516
-467539
-467749
-467771
-467958
-468077
-468134
-468184
-468334
-468420
-468548
-468549
-468679
-468646
-469175
-469032
-469059
-469113
-469250
-469379
-469425
-469509
-469656
-469791
-469868
-469952
-469933
-470008
-470130
-470054
-470695
-470350
-470415
-470448
-470578
-470563
-470576
-470661
-470744
-470778
-470876
-470898
-470929
-470988
-471068
-471152
-471120
-471250
-471328
-471413
-471687
-471552
-471553
-471550
-471604
-471653
-471713
-471821
-471830
-471850
-471907
-471876
-471986
-472019
-472038
-472079
-472080
-472177
-472228
-472283
-472310
-472316
-472345
-472441
-472401
-472463
-472537
-472545
-472627
-472760
-472765
-472700
-472784
-472880
-472922
-472941
-472994
-472890
-472936
-473118
-473433
-473239
-473357
-473373
-473424
-473486
-473435
-473557
-473525
-473589
-473627
-473588
-473804
-473735
-473847
-473884
-473837
-473870
-473906
-473925
-474013
-473903
-474339
-474157
-474117
-474125
-474072
-474101
-474113
-474102
-474159
-474135
-474092
-474110
-474402
-474213
-473951
-474083
-474139
-474218
-474244
-474166
-474137
-474195
-474212
-474230
-474266
-474277
-474289
-474144
-474180
-474231
-474405
-474412
-474406
-474456
-474463
-474500
-474964
-474709
-474648
-474530
-474666
-474545
-474812
-474875
-474826
-475011
-474997
-475089
-475176
-475224
-475282
-475308
-475371
-475398
-475463
-475465
-475446
-475449
-475431
-475318
-475162
-474917
-474779
-474604
-474333
-474006
-473696
-473331
-472888
-472403
-471973
-471446
-470904
-470666
-469994
-469396
-468809
-468308
-467772
-467177
-466515
-466016
-465506
-465029
-464454
-463944
-463458
-462930
-462470
-462257
-461599
-461117
-460665
-460261
-459931
-459608
-459269
-458959
-458691
-458403
-458249
-458115
-457945
-457822
-457606
-457593
-457585
-457432
-457418
-457378
-457453
-457462
-457540
-457591
-457652
-457693
-457826
-457872
-458088
-458109
-458207
-458474
-458516
-458666
-458762
-458930
-459039
-459055
-459186
-459291
-459448
-459568
-459708
-459739
-459790
-459912
-459961
-460051
-460155
-460243
-460399
-460474
-460568
-460513
-460541
-460682
-460625
-460664
-460619
-460634
-460522
-460520
-460443
-460378
-460337
-460280
-460238
-460166
-460172
-460190
-460114
-460098
-460050
-460009
-460000
-459977
-460053
-460019
-460060
-460111
-460102
-460170
-460314
-460337
-460453
-460505
-460659
-460834
-461019
-461180
-461298
-461461
-461628
-461798
-461931
-462083
-462245
-462417
-462577
-462678
-462724
-462830
-462909
-463114
-463251
-463206
-463411
-463446
-463558
-463682
-463762
-463874
-463889
-463969
-464025
-463999
-464063
-464153
-464179
-464206
-464213
-464250
-464258
-464230
-464212
-464188
-464234
-464153
-464163
-464198
-464110
-464065
-463990
-464018
-463961
-463874
-463837
-463848
-463800
-463755
-463677
-463732
-463634
-463583
-463614
-463525
-463533
-463558
-463462
-463522
-463449
-463390
-463436
-463447
-463374
-463283
-463345
-463358
-463359
-463404
-463350
-463401
-463461
-463526
-463461
-463504
-463582
-463622
-463697
-463785
-463813
-463898
-463987
-464017
-464073
-464130
-464243
-464417
-464547
-464604
-464711
-464863
-464903
-465004
-465087
-465174
-465325
-465440
-465604
-465783
-465750
-465877
-466035
-465980
-466147
-466159
-466308
-466392
-466418
-466579
-466629
-466697
-466888
-466933
-467008
-467079
-467148
-467206
-467295
-467355
-467468
-467589
-467670
-467703
-467791
-467799
-467891
-467919
-467984
-468165
-468145
-468260
-468325
-468354
-468442
-468510
-468633
-468598
-468657
-468741
-468760
-468832
-468856
-468900
-468990
-469000
-469123
-469225
-469322
-469411
-469441
-469549
-469633
-469837
-469824
-469922
-470041
-470149
-470187
-470206
-470257
-470349
-470383
-470456
-470486
-470530
-470640
-470701
-470780
-470798
-470875
-470978
-470943
-471031
-471040
-471181
-471172
-471225
-471346
-471266
-471355
-471379
-471490
-471477
-471557
-471580
-471665
-471785
-471848
-471819
-471897
-471999
-471973
-472012
-472043
-472059
-472144
-472151
-472243
-472268
-472253
-472322
-472354
-472382
-472363
-472359
-472421
-472363
-472414
-472367
-472414
-472488
-472415
-472460
-472496
-472542
-472577
-472607
-472635
-472689
-472702
-472690
-472799
-472748
-472833
-472876
-472945
-473064
-472976
-473083
-473150
-473152
-473240
-473211
-473289
-473345
-473447
-473533
-473549
-473595
-473659
-473744
-473869
-473839
-473829
-473849
-473963
-473975
-473993
-473992
-473929
-473850
-473783
-473617
-473407
-473209
-472926
-472641
-472287
-471980
-471655
-471191
-470721
-470215
-469734
-469263
-468682
-468246
-467629
-467109
-466553
-466041
-465518
-464923
-464473
-463913
-463383
-462888
-462364
-461981
-461496
-461049
-460599
-460159
-459832
-459482
-459151
-458873
-458531
-458324
-458034
-457831
-457642
-457424
-457354
-457157
-457098
-457011
-456866
-456894
-456814
-456811
-456828
-456794
-456825
-456865
-456903
-457003
-457014
-457097
-457232
-457299
-457425
-457502
-457625
-457686
-457891
-458036
-458051
-458210
-458415
-458528
-458607
-458743
-458840
-458970
-459053
-459281
-459307
-459388
-459521
-459540
-459775
-459846
-459966
-460040
-460081
-460033
-460142
-460175
-460249
-460243
-460263
-460175
-460231
-460215
-460188
-460197
-460271
-460292
-460255
-460217
-460079
-460094
-460065
-460022
-459995
-460007
-460029
-459992
-459940
-459906
-459975
-459903
-459900
-459889
-459995
-460015
-460101
-460165
-460250
-460323
-460358
-460454
-460571
-460637
-460773
-460827
-460960
-461066
-461231
-461323
-461340
-461592
-461716
-461838
-461874
-462011
-462118
-462311
-462326
-462397
-462575
-462601
-462678
-462762
-462856
-462869
-463012
-463059
-463096
-463167
-463152
-463251
-463325
-463401
-463420
-463417
-463481
-463341
-463338
-463410
-463295
-463389
-463315
-463333
-463273
-463151
-463170
-463155
-463088
-463052
-462971
-462991
-463011
-462966
-462996
-462903
-462928
-462869
-462818
-462820
-462715
-462729
-462748
-462813
-462882
-462783
-462901
-462895
-462838
-462877
-462869
-462872
-462948
-463027
-463095
-463086
-463063
-463233
-463273
-463327
-463352
-463511
-463561
-463675
-463781
-463779
-463867
-463887
-463905
-464024
-463981
-463986
-464001
-464114
-464223
-464214
-464270
-464309
-464376
-464454
-464445
-464614
-464652
-464755
-464887
-464987
-465033
-465206
-465356
-465402
-465470
-465639
-465700
-465770
-465896
-465936
-466045
-466173
-466195
-466372
-466391
-466496
-466549
-466640
-466768
-466816
-466913
-467036
-467179
-467269
-467231
-467329
-467455
-467517
-467567
-467667
-467717
-467785
-467804
-467862
-467875
-467974
-467988
-468077
-468117
-468128
-468152
-468270
-468269
-468323
-468315
-468471
-468483
-468542
-468521
-468584
-468647
-468700
-468730
-468742
-468854
-468908
-468929
-469004
-469058
-469034
-469152
-469187
-469288
-469302
-469406
-469488
-469582
-469603
-469605
-469687
-469718
-469914
-469931
-469972
-469999
-470080
-470049
-470171
-470210
-470253
-470291
-470303
-470400
-470454
-470530
-470649
-470644
-470675
-470680
-470812
-470832
-470918
-471000
-470997
-471102
-471163
-471125
-471211
-471238
-471287
-471291
-471449
-471480
-471498
-471563
-471562
-471653
-471801
-471744
-471814
-471850
-471939
-472006
-471995
-472051
-472056
-472179
-472146
-472162
-472257
-472317
-472387
-472412
-472384
-472581
-472590
-472637
-472678
-472676
-472731
-472758
-472819
-472878
-472847
-472967
-472963
-473074
-473119
-473063
-473170
-473234
-473313
-473482
-473490
-473576
-473577
-473633
-473692
-473755
-473857
-473939
-473918
-474011
-473983
-474004
-474071
-474020
-474034
-473992
-473888
-473750
-473645
-473485
-473263
-473013
-472724
-472452
-472096
-471728
-471370
-470920
-470432
-469993
-469435
-469054
-468561
-468054
-467563
-466954
-466476
-465937
-465425
-464951
-464346
-463907
-463424
-463050
-462511
-461993
-461639
-461193
-460804
-460416
-460066
-459763
-459498
-459215
-458970
-458712
-458511
-458275
-458175
-458069
-457891
-457805
-457757
-457753
-457699
-457642
-457628
-457742
-457755
-457790
-457840
-457949
-458026
-458194
-458328
-458373
-458508
-458616
-458781
-458895
-458966
-459195
-459386
-459507
-459575
-459739
-459961
-460023
-460125
-460258
-460431
-460537
-460657
-460726
-460865
-460915
-461075
-461161
-461237
-461207
-461241
-461332
-461385
-461410
-461385
-461402
-461392
-461381
-461358
-461382
-461422
-461327
-461318
-461333
-461271
-461320
-461213
-461262
-461277
-461199
-461191
-461165
-461166
-461168
-461160
-461117
-461210
-461238
-461352
-461286
-461366
-461428
-461533
-461658
-461696
-461848
-461956
-461999
-462098
-462146
-462270
-462459
-462632
-462762
-462817
-462954
-463157
-463326
-463458
-463465
-463635
-463800
-463923
-463986
-464108
-464308
-464246
-464454
-464529
-464597
-464769
-464738
-464725
-464949
-464980
-465036
-465080
-465124
-465164
-465228
-465216
-465267
-465265
-465373
-465297
-465275
-465298
-465282
-465331
-465170
-465129
-465116
-465197
-465104
-465091
-465043
-465052
-464987
-464997
-464899
-464905
-464927
-464929
-464863
-464902
-464919
-464851
-464839
-464853
-464788
-464793
-464971
-464995
-464959
-464908
-465079
-465137
-465087
-465170
-465241
-465267
-465337
-465341
-465536
-465595
-465669
-465746
-465819
-465882
-465863
-465951
-466077
-466151
-466292
-466298
-466420
-466513
-466611
-466748
-466812
-466939
-467117
-467180
-467181
-467359
-467451
-467556
-467691
-467824
-467854
-467937
-468098
-468170
-468301
-468281
-468426
-468576
-468728
-468816
-468802
-468940
-469065
-469147
-469255
-469324
-469396
-469556
-469684
-469697
-469767
-469836
-470007
-470024
-470101
-470181
-470285
-470404
-470459
-470555
-470578
-470708
-470840
-470920
-470948
-470905
-470926
-471082
-471073
-471144
-471170
-471272
-471335
-471222
-471416
-471439
-471515
-471614
-471631
-471694
-471782
-471804
-471815
-471871
-472014
-472051
-472120
-472156
-472244
-472320
-472351
-472378
-472453
-472490
-472519
-472665
-472697
-472741
-472866
-472881
-472894
-472926
-473024
-473117
-473198
-473218
-473326
-473349
-473360
-473475
-473425
-473533
-473631
-473682
-473771
-473767
-473757
-473885
-473964
-474003
-474015
-473981
-474020
-474152
-474201
-474187
-474237
-474322
-474360
-474345
-474298
-474365
-474423
-474477
-474513
-474515
-474614
-474617
-474706
-474821
-474844
-474827
-474978
-474987
-475062
-475097
-475093
-475193
-475308
-475362
-475391
-475466
-475584
-475536
-475660
-475669
-475724
-475812
-475891
-475937
-476011
-476009
-476086
-476191
-476258
-476186
-476307
-476360
-476478
-476516
-476568
-476624
-476753
-476817
-476837
-476919
-476906
-477097
-477076
-477133
-477176
-477275
-477284
-477378
-477431
-477477
-477593
-477638
-477691
-477813
-477828
-477932
-478092
-478112
-478163
-478239
-478293
-478292
-478371
-478327
-478428
-478360
-478400
-478399
-478227
-478176
-478074
-477963
-477806
-477546
-477264
-476980
-476720
-476365
-475990
-475575
-475217
-474809
-474376
-473980
-473463
-473050
-472590
-472193
-471729
-471228
-470741
-470339
-469826
-469464
-468969
-468511
-468113
-467677
-467271
-466942
-466606
-466309
-466032
-465779
-465479
-465238
-465036
-464871
-464683
-464441
-464331
-464158
-464052
-464090
-463919
-463859
-463904
-463896
-463965
-463990
-463981
-464027
-464086
-464176
-464170
-464245
-464347
-464499
-464618
-464699
-464848
-464961
-465116
-465273
-465354
-465488
-465657
-465781
-465947
-466038
-466184
-466313
-466452
-466562
-466663
-466806
-466936
-467055
-467147
-467199
-467361
-467446
-467605
-467698
-467694
-467711
-467855
-467859
-467967
-467931
-467919
-468002
-468044
-468113
-468061
-468062
-468134
-468116
-468138
-468163
-468183
-468164
-468155
-468196
-468167
-468115
-468172
-468293
-468283
-468324
-468274
-468341
-468453
-468426
-468802
-468543
-468631
-468638
-468990
-469157
-469232
-469257
-469340
-469468
-469599
-469741
-469841
-469964
-470075
-470198
-470303
-470324
-470462
-470799
-470773
-470757
-471052
-470869
-471013
-471068
-471180
-471247
-471211
-471353
-471409
-471437
-471460
-471436
-471457
-471427
-471522
-471463
-471422
-471423
-471443
-471457
-471403
-471362
-471376
-471268
-471257
-471207
-471174
-471185
-471210
-471174
-471156
-471143
-471150
-471099
-471063
-471052
-471112
-470966
-471022
-471117
-471135
-471158
-471178
-471208
-471263
-471300
-471297
-471405
-471502
-471519
-471650
-471686
-471785
-471881
-471918
-471953
-472078
-472170
-472229
-472300
-472385
-472498
-472567
-472710
-472676
-472832
-473008
-473088
-473215
-473250
-473334
-473416
-473567
-473700
-473883
-473857
-473957
-474102
-474180
-474347
-474328
-474453
-474627
-474749
-474822
-474868
-474961
-475041
-475102
-475139
-475219
-475278
-475414
-475482
-475494
-475557
-475671
-475750
-475932
-475965
-475967
-476141
-476170
-476314
-476304
-476369
-476392
-476484
-476514
-476586
-476609
-476800
-476850
-476941
-476950
-477001
-477090
-477186
-477308
-477315
-477358
-477555
-477634
-477656
-477687
-477735
-477877
-477926
-478046
-478061
-478145
-478200
-478307
-478386
-478344
-478337
-478794
-478711
-478719
-478740
-479058
-478952
-478807
-478983
-479076
-479022
-479176
-479256
-479340
-479391
-479469
-479470
-479605
-479688
-479869
-479787
-479922
-480026
-480063
-480467
-480316
-480333
-480361
-480464
-480505
-480570
-480620
-480720
-480825
-480855
-480892
-480946
-480998
-481160
-481130
-481134
-481286
-481312
-481374
-481479
-481591
-481532
-481658
-481666
-481873
-481926
-481993
-482104
-482170
-482240
-482282
-482377
-482460
-482499
-482652
-482664
-482830
-482868
-482938
-483005
-482950
-483067
-483139
-483176
-483251
-483238
-483394
-483476
-483469
-483563
-483606
-483656
-483716
-483738
-483671
-483727
-483869
-483909
-483956
-483995
-484043
-484080
-484103
-484201
-484230
-484288
-484324
-484409
-484423
-484529
-484551
-484697
-484786
-484817
-484865
-484848
-484926
-485058
-485067
-485183
-485157
-485219
-485332
-485430
-485377
-485394
-485473
-485651
-485645
-485727
-485806
-485931
-485957
-486009
-486037
-486124
-486265
-486287
-486434
-486489
-486516
-486603
-486588
-486615
-486557
-486491
-486410
-486311
-486080
-485966
-485660
-485501
-485245
-484893
-484543
-484169
-483717
-483322
-482962
-482456
-481921
-481469
-480976
-480542
-479981
-479505
-478993
-478519
-478100
-477585
-477095
-476663
-476170
-475686
-475219
-474801
-474413
-474091
-473735
-473379
-473028
-472795
-472634
-472397
-472120
-471888
-471724
-471604
-471536
-471364
-471311
-471330
-471236
-471262
-471268
-471262
-471326
-471291
-471459
-471578
-471562
-471681
-471713
-471886
-471922
-472007
-472226
-472373
-472319
-472564
-472666
-472810
-472932
-473087
-473223
-473287
-473502
-473604
-473715
-473782
-473903
-474027
-474070
-474045
-474222
-474255
-474379
-474408
-474428
-474561
-474518
-474618
-474623
-474647
-474734
-474706
-474717
-474783
-474757
-474712
-474725
-474731
-474757
-474779
-475037
-474861
-474793
-474800
-474810
-474873
-474861
-474924
-474904
-475038
-474981
-475049
-475110
-475267
-475283
-475310
-475427
-475525
-475561
-475631
-475742
-475760
-475958
-476060
-476174
-476278
-476352
-476414
-476535
-476627
-476791
-476799
-476935
-477025
-477106
-477128
-477182
-477289
-477412
-477456
-477579
-477570
-477620
-477695
-477768
-477811
-477742
-477694
-477986
-477946
-477948
-477916
-478005
-477921
-478025
-478032
-478025
-477995
-478005
-478028
-477894
-477913
-477896
-477921
-477861
-477803
-477730
-477692
-477721
-477724
-477626
-477519
-477533
-477498
-477528
-477531
-477396
-477443
-477405
-477478
-477450
-477345
-477404
-477395
-477415
-477492
-477418
-477490
-477522
-477505
-477585
-477577
-477656
-477630
-477689
-477694
-477676
-477765
-477812
-477888
-477927
-477846
-477922
-477973
-478140
-478189
-478250
-478269
-478377
-478393
-478347
-478777
-478648
-478608
-478644
-478685
-478811
-478866
-478958
-479027
-478993
-479152
-479181
-479082
-479196
-479307
-479484
-479518
-479541
-479633
-479722
-479838
-479911
-480032
-480091
-480066
-480156
-480207
-480304
-480443
-480405
-480422
-480704
-480693
-480851
-480903
-480977
-481043
-481219
-481241
-481215
-481331
-481455
-481524
-481612
-481661
-481748
-481754
-481856
-481906
-481936
-482102
-482343
-482265
-482274
-482350
-482420
-482462
-482559
-482489
-482589
-482633
-482656
-482810
-482758
-482822
-482810
-482908
-483027
-483082
-483182
-483263
-483284
-483271
-483255
-483249
-483440
-483523
-483765
-483790
-483862
-483797
-483885
-484011
-483970
-484054
-484105
-484085
-484160
-484226
-484214
-484345
-484423
-484428
-484441
-484541
-484490
-484541
-484549
-484559
-484612
-484620
-484692
-484706
-484751
-484809
-484790
-484841
-484896
-484962
-484970
-484994
-485095
-485136
-485131
-485115
-485242
-485265
-485302
-485368
-485366
-485437
-485466
-485525
-485550
-485641
-485590
-485664
-485733
-485827
-485880
-485852
-485867
-485878
-485923
-485886
-485954
-485968
-485997
-486101
-486064
-486131
-486124
-486255
-486241
-486250
-486290
-486206
-486320
-486407
-486437
-486572
-486573
-486584
-486643
-486753
-486696
-486736
-486731
-486858
-486845
-487161
-486940
-487081
-487151
-487190
-487161
-487597
-487365
-487380
-487464
-487476
-487565
-487661
-487656
-487644
-487602
-487681
-487687
-487600
-487527
-487376
-487315
-487173
-486968
-486716
-486424
-486192
-485861
-485554
-485227
-484821
-484479
-484057
-483625
-483118
-482650
-482259
-481723
-481313
-480825
-480285
-479897
-479456
-478961
-478635
-478093
-477718
-477277
-476918
-476529
-476109
-475791
-475417
-475147
-474801
-474484
-474296
-474124
-473990
-473770
-473628
-473459
-473448
-473279
-473334
-473217
-473258
-473264
-473234
-473259
-473258
-473395
-473374
-473511
-473459
-473645
-473656
-473870
-473957
-474112
-474267
-474410
-474562
-474708
-474779
-474962
-475115
-475248
-475383
-475613
-475666
-476102
-476027
-476130
-476151
-476364
-476421
-476563
-476690
-476637
-476780
-476803
-476891
-476949
-477028
-477087
-477195
-477206
-477302
-477315
-477324
-477415
-477425
-477471
-477346
-477573
-477582
-477608
-477614
-477642
-477655
-477638
-477585
-477563
-477614
-477648
-477631
-477703
-477733
-477813
-477763
-477917
-478035
-478087
-478182
-478221
-478291
-478320
-478356
-478480
-478586
-478658
-478713
-478770
-478859
-478932
-478996
-479126
-479224
-479299
-479355
-479395
-479524
-479498
-479585
-479746
-479747
-479816
-479789
-479914
-479802
-479911
-479978
-480006
-480099
-480039
-480084
-480028
-480032
-480122
-480111
-480092
-480116
-480051
-480141
-480063
-480097
-480033
-480236
-480054
-479938
-479843
-479834
-479706
-479662
-479723
-479653
-479689
-479578
-479638
-479567
-479602
-479454
-479456
-479443
-479480
-479553
-479430
-479503
-479495
-479503
-479536
-479572
-479631
-479769
-479731
-479747
-479791
-479821
-479872
-479999
-480038
-480089
-480204
-480289
-480437
-480522
-480533
-480657
-480788
-480855
-480931
-480902
-481038
-481131
-481191
-481283
-481674
-481833
-482012
-482071
-482246
-482320
-482462
-482597
-482679
-482902
-482943
-483060
-483136
-483276
-483355
-483454
-483674
-483727
-483746
-483831
-483988
-484159
-484217
-484313
-484338
-484365
-484535
-484490
-484622
-484760
-484835
-484887
-485021
-485113
-485186
-485175
-485314
-485330
-485464
-485547
-485497
-485615
-485705
-485728
-485862
-485898
-485977
-486044
-486108
-486197
-486184
-486226
-486340
-486405
-486455
-486522
-486573
-486628
-486673
-486767
-486763
-486842
-486904
-487039
-487007
-487061
-487096
-487181
-487225
-487236
-487244
-487324
-487428
-487517
-487613
-487531
-487556
-487600
-487693
-487804
-487766
-487848
-487922
-487886
-487931
-487932
-488017
-488106
-488152
-488206
-488186
-488264
-488308
-488386
-488470
-488460
-488494
-488548
-488636
-488717
-488676
-488731
-488853
-488866
-488738
-488917
-489006
-489110
-489175
-489123
-489164
-489244
-489133
-489325
-489304
-489406
-489469
-489516
-489508
-489510
-489618
-489662
-489648
-489754
-489763
-489823
-489850
-489949
-490038
-490036
-490133
-490110
-490218
-490228
-490310
-490482
-490450
-490552
-490568
-490649
-490773
-490822
-490948
-490958
-490995
-491098
-491175
-491244
-491424
-491430
-491478
-491574
-491580
-491594
-491667
-491765
-491846
-491917
-491999
-491939
-492068
-492130
-492119
-492092
-492055
-492104
-492190
-492182
-492092
-491990
-491988
-491930
-491754
-491646
-491363
-491167
-490954
-490575
-490284
-489888
-489523
-489152
-488739
-488279
-487860
-487387
-486954
-486427
-485963
-485531
-485096
-484631
-484250
-483768
-483263
-482892
-482401
-482375
-481733
-481247
-480927
-480516
-480236
-479928
-479528
-479306
-479056
-478828
-478572
-478255
-478163
-478065
-477890
-477725
-477628
-477598
-477376
-477498
-477462
-477386
-477478
-477455
-477560
-477640
-477661
-477771
-477870
-477937
-478061
-478071
-478290
-478416
-478570
-478682
-478717
-478953
-479017
-479111
-479263
-479358
-479457
-479585
-479741
-479799
-479900
-479940
-480095
-480162
-480294
-480312
-480415
-480512
-480546
-480716
-480622
-480741
-480783
-480819
-480869
-480842
-480933
-480991
-481019
-481069
-480991
-480965
-480984
-480948
-480890
-480847
-480809
-480771
-480849
-480915
-480850
-480772
-480864
-480861
-480732
-480842
-480890
-480974
-481008
-481060
-481123
-481169
-481234
-481402
-481425
-481529
-481653
-481780
-481864
-482042
-482110
-482141
-482257
-482454
-482551
-482610
-482822
-483411
-483177
-483155
-483276
-483389
-483419
-483509
-483593
-483679
-483602
-483704
-483832
-483995
-483997
-483974
-484111
-484118
-484126
-484085
-484124
-484108
-484118
-484095
-483967
-484052
-483911
-483937
-483889
-483788
-483802
-483803
-483670
-483638
-483558
-483517
-483487
-483549
-483468
-483389
-483425
-483403
-483321
-483356
-483348
-483291
-483309
-483296
-483324
-483380
-483352
-483399
-483901
-483594
-483466
-483487
-483515
-483602
-483691
-483683
-483763
-483826
-483886
-483909
-483957
-484030
-484132
-484201
-484270
-484250
-484441
-484520
-484563
-484711
-484738
-484800
-484951
-485081
-485158
-485172
-485348
-485451
-485606
-485653
-485670
-485801
-485899
-485959
-486016
-486088
-486187
-486319
-486420
-486887
-486468
-486683
-486649
-486825
-486943
-486970
-487091
-487077
-487160
-487301
-487383
-487526
-487592
-487671
-487773
-487851
-487896
-487975
-488019
-488113
-488048
-488233
-488288
-488330
-488490
-488434
-488548
-488580
-488734
-488804
-488812
-488953
-489017
-489104
-489117
-489119
-489204
-489377
-489524
-489450
-489683
-489526
-489601
-489672
-489785
-489745
-489871
-489872
-489847
-489926
-489867
-489940
-489903
-490064
-490163
-490099
-490148
-490157
-490200
-490261
-490328
-490380
-490479
-490531
-490625
-490644
-490727
-490772
-490807
-490867
-490949
-491013
-491079
-491070
-491615
-491382
-491415
-491395
-491385
-491505
-491488
-491678
-491779
-491793
-491850
-491928
-492012
-492061
-492172
-492256
-492069
-492255
-492327
-492540
-492656
-492551
-492648
-492628
-492775
-492791
-492731
-492825
-492885
-492865
-492906
-492923
-492966
-492956
-492962
-492976
-492981
-493016
-493103
-493154
-493130
-493175
-493264
-493266
-493414
-493449
-493417
-493425
-493466
-493621
-493716
-493646
-493742
-493678
-493782
-493849
-493937
-493961
-494108
-494160
-494222
-494267
-494346
-494437
-494558
-494645
-494642
-494693
-494745
-494931
-495032
-495049
-495078
-495133
-495172
-495157
-495244
-495342
-495371
-495410
-495431
-495566
-495637
-495513
-495575
-495589
-495603
-495628
-495583
-495478
-495343
-495225
-495117
-494952
-494679
-494320
-493997
-493691
-493376
-493034
-492600
-492229
-491838
-491327
-490959
-490453
-490074
-489549
-489186
-488726
-488211
-487825
-487410
-486967
-486579
-486036
-485780
-485394
-484920
-484630
-484394
-484014
-483643
-483385
-483179
-482865
-482624
-482385
-482284
-482091
-481959
-481830
-481737
-481507
-481504
-481477
-481471
-481545
-481569
-481481
-481579
-481598
-481672
-481691
-481781
-481857
-482053
-481972
-482148
-482230
-482380
-482485
-482617
-482657
-482747
-482809
-482930
-482957
-483121
-483375
-483431
-483508
-483633
-483647
-483797
-483931
-484017
-484069
-484100
-484186
-484276
-484325
-484455
-484398
-484537
-484656
-484620
-484594
-484613
-484695
-484688
-484738
-484840
-484724
-484774
-484781
-484692
-484660
-484592
-484651
-484594
-484518
-484549
-484338
-484432
-484286
-484371
-484447
-484378
-484418
-484417
-484515
-484530
-484443
-484501
-484551
-484705
-484725
-484671
-484827
-484910
-484967
-484995
-485124
-485216
-485301
-485425
-485642
-485637
-485732
-485818
-485900
-485961
-486036
-486153
-486256
-486330
-486395
-486496
-486562
-486628
-486682
-486643
-486727
-486750
-486808
-486846
-486793
-486786
-486854
-486837
-486795
-486711
-486646
-486785
-486750
-486700
-486549
-486524
-486526
-486417
-486438
-486345
-486162
-486185
-486208
-486172
-486089
-485987
-485950
-485918
-485914
-485881
-485809
-485812
-485852
-485708
-485748
-485726
-485701
-485670
-485577
-485611
-485705
-485724
-485733
-485653
-485716
-485771
-485794
-485858
-485838
-485892
-485999
-485952
-486033
-486101
-486135
-486156
-486277
-486363
-486369
-486538
-486569
-486610
-486745
-486815
-486887
-486965
-487053
-487087
-487130
-487545
-487479
-487476
-487511
-487554
-487677
-487822
-487842
-487896
-487930
-488057
-488120
-488442
-488338
-488321
-488444
-488537
-488638
-488761
-488746
-488859
-488957
-489121
-489169
-489222
-489284
-489393
-489414
-489480
-489501
-489630
-489661
-489762
-489831
-489883
-489962
-489940
-490123
-490112
-490158
-490269
-490308
-490318
-490430
-490335
-490539
-490575
-490678
-490780
-490788
-490811
-490871
-490869
-490919
-491031
-491173
-491244
-491327
-491362
-491405
-491520
-491538
-491609
-491605
-491690
-491745
-491821
-491848
-491953
-491985
-492087
-492129
-492216
-492290
-492343
-492393
-492514
-492471
-492594
-492687
-492744
-492722
-492787
-492916
-492948
-492938
-492927
-493226
-493094
-493131
-493161
-493125
-493147
-493153
-493219
-493226
-493159
-493229
-493204
-493233
-493223
-493264
-493423
-493362
-493364
-493445
-493397
-493403
-493572
-493613
-493636
-493689
-493731
-493810
-493938
-493945
-493880
-493946
-494091
-494112
-494273
-494192
-494270
-494236
-494301
-494380
-494385
-494379
-494407
-494522
-494558
-494549
-494626
-494639
-494713
-494631
-494677
-494720
-494901
-494954
-494998
-495026
-495070
-495179
-495236
-495300
-495712
-495469
-495416
-495375
-495644
-495743
-495668
-495594
-495820
-495947
-495881
-496009
-496023
-496083
-496146
-496143
-496149
-496110
-496030
-496117
-496011
-495867
-495849
-495726
-495518
-495237
-494959
-494769
-494501
-494085
-493788
-493304
-492864
-492503
-492117
-491735
-491140
-490763
-490331
-489866
-489435
-488863
-488441
-487975
-487574
-487138
-486650
-486205
-485850
-485473
-485140
-484712
-484378
-484076
-483796
-483462
-483135
-482951
-482794
-482568
-482412
-482155
-482033
-481848
-481746
-481643
-481589
-481473
-481507
-481476
-481508
-481496
-481542
-481558
-481636
-481643
-481709
-481867
-481885
-481984
-482172
-482226
-482352
-482514
-482632
-482790
-482889
-482926
-483008
-483085
-483268
-483340
-483408
-483505
-483637
-483668
-483676
-483719
-483865
-483887
-483980
-484038
-484157
-484175
-484252
-484251
-484244
-484317
-484406
-484416
-484494
-484460
-484548
-484555
-484514
-484557
-484484
-484524
-484496
-484531
-484438
-484412
-484373
-484321
-484371
-484284
-484297
-484336
-484284
-484282
-484261
-484298
-484354
-484339
-484663
-484553
-484496
-484506
-484685
-484772
-484793
-484836
-484990
-485089
-485177
-485275
-485612
-485552
-485637
-485493
-485772
-485878
-485943
-486071
-486080
-486100
-486199
-486267
-486341
-486344
-486375
-486488
-486463
-486545
-486537
-486498
-486594
-486629
-486628
-486625
-486569
-486622
-486701
-486735
-486595
-486582
-486584
-486648
-486585
-486493
-486523
-486442
-486408
-486370
-486277
-486249
-486199
-486163
-485976
-485801
-485957
-485955
-485898
-485892
-485798
-485803
-485784
-485792
-485740
-485632
-485675
-485755
-485644
-485757
-485688
-485701
-485766
-485764
-485747
-485720
-485797
-485780
-485863
-485947
-485967
-485995
-486028
-486131
-486185
-486254
-486336
-486339
-486429
-486505
-486474
-486648
-486707
-486761
-486805
-486771
-486882
-487026
-487095
-487253
-487230
-487319
-487398
-487502
-487572
-487639
-487643
-487694
-487880
-487980
-487928
-487971
-488139
-488183
-488229
-488217
-488234
-488595
-488483
-488423
-488507
-488569
-488675
-488713
-488840
-488833
-488876
-488983
-488980
-489114
-489055
-489039
-489046
-489182
-489176
-489320
-489350
-489414
-489398
-489446
-489486
-489540
-489633
-489695
-489619
-489627
-489698
-489772
-489942
-489943
-489932
-489725
-489927
-490061
-490161
-490144
-490125
-490193
-490088
-489992
-490500
-490082
-490199
-490194
-490466
-490310
-490254
-490215
-490361
-490299
-490284
-490308
-490348
-490345
-490406
-490420
-490433
-490542
-490503
-490551
-490556
-490486
-490487
-490515
-490502
-490548
-490538
-490655
-490616
-490652
-490621
-490916
-490770
-490730
-490752
-490769
-490781
-490855
-490817
-490917
-490884
-490895
-490951
-490994
-491080
-490943
-490868
-491005
-491199
-491225
-491219
-491255
-491334
-491394
-491492
-491508
-491463
-491553
-491593
-491500
-491980
-491794
-491803
-491753
-491801
-491765
-491833
-491904
-491895
-491957
-491925
-491980
-492055
-492067
-492229
-492116
-492139
-492163
-492244
-492287
-492280
-492249
-492300
-492409
-492416
-492496
-492502
-492570
-492555
-492677
-492679
-492694
-492773
-492910
-492993
-492962
-492973
-493098
-493132
-493151
-493068
-493134
-493216
-493206
-493350
-493375
-493413
-493432
-493434
-493430
-493502
-493525
-493523
-493613
-493689
-493724
-493721
-493796
-493859
-493953
-493840
-493841
-494001
-494098
-494069
-494109
-494040
-494018
-494003
-494070
-494073
-493935
-494004
-493938
-493864
-493723
-493460
-493277
-493089
-492777
-492509
-492110
-491813
-491445
-491049
-490560
-490163
-489695
-489203
-488800
-488256
-487676
-487174
-486666
-486293
-485754
-485260
-484720
-482562
-482124
-481753
-481291
-480921
-480698
-480327
-480034
-479759
-479457
-479253
-479095
-478842
-478618
-478456
-478455
-478276
-478181
-478094
-478016
-478071
-478031
-478032
-478025
-478122
-478191
-478221
-478315
-478309
-478372
-478488
-478572
-478657
-478809
-478815
-478985
-479072
-479248
-479234
-479390
-479490
-479594
-479727
-479737
-479868
-479964
-480029
-480043
-480126
-480170
-480249
-480414
-480488
-480508
-480432
-480539
-480546
-480610
-480586
-480526
-480603
-480703
-480687
-480595
-480630
-480593
-480585
-480647
-480543
-480503
-480495
-480453
-480543
-480436
-480322
-480344
-480369
-480360
-480249
-480255
-480140
-480161
-480182
-480138
-480131
-480224
-480219
-480242
-480150
-480278
-480202
-480425
-480524
-480505
-480453
-480582
-480736
-480860
-480927
-480942
-481038
-481100
-481179
-481279
-481307
-481428
-481509
-481654
-481649
-481733
-481822
-481926
-481938
-482001
-481996
-482103
-482143
-482122
-482232
-482233
-482238
-482322
-482298
-482364
-482271
-482450
-482341
-482247
-482194
-482141
-482197
-482149
-482179
-482150
-482088
-481924
-481927
-481922
-481855
-481842
-481780
-481756
-481776
-481726
-481565
-481608
-481478
-481470
-481388
-481372
-481345
-481261
-481317
-481239
-481192
-481238
-481158
-481238
-481173
-481142
-481188
-481123
-481151
-481172
-481157
-481255
-481257
-481264
-481337
-481335
-481404
-481360
-481447
-481436
-481517
-481609
-481599
-481695
-481720
-481670
-481869
-481813
-481978
-482063
-482055
-482166
-482273
-482311
-482396
-482432
-482564
-482581
-482623
-482636
-482746
-482839
-482876
-482954
-483070
-482948
-483102
-483190
-483319
-483432
-483480
-483596
-483654
-483767
-483861
-483778
-483970
-484019
-484014
-484153
-484108
-484154
-484261
-484290
-484388
-484396
-484451
-484477
-484528
-484557
-484528
-484501
-484584
-484723
-484765
-484771
-484838
-484884
-484934
-484942
-484951
-485019
-485001
-485053
-485179
-485141
-485217
-485221
-485272
-485351
-485229
-485283
-485438
-485515
-485552
-485486
-485608
-485687
-485691
-485737
-485779
-485828
-485912
-485985
-486015
-486047
-486074
-486221
-486257
-486287
-486285
-486369
-486447
-486451
-486513
-486541
-486565
-486674
-486670
-486700
-486733
-486800
-486824
-486915
-486977
-486935
-487002
-487014
-487096
-487115
-487407
-487247
-487177
-487249
-487238
-487216
-487203
-487217
-487257
-487295
-487306
-487317
-487442
-487430
-487492
-487488
-487500
-487802
-487468
-487631
-487551
-487642
-487693
-487666
-487756
-487736
-487725
-487840
-487896
-487874
-487914
-488014
-488093
-488134
-488217
-488248
-488329
-488377
-488333
-488443
-488405
-488458
-488562
-488637
-488652
-488576
-488665
-488659
-488635
-488744
-488672
-488825
-488863
-488878
-488819
-488829
-488871
-488877
-488967
-488990
-488985
-489055
-489018
-489093
-489116
-489110
-489132
-489177
-489204
-489247
-489281
-489331
-489359
-489440
-489493
-489384
-489474
-489534
-489571
-489732
-489693
-489746
-489823
-489860
-489843
-489934
-489980
-489841
-489977
-490073
-490124
-490165
-490103
-490093
-490007
-489922
-489875
-489736
-489555
-489424
-489065
-488776
-488468
-488102
-487705
-487305
-486944
-486471
-485963
-485465
-484912
-484467
-483839
-483240
-482846
-482245
-481787
-481258
-480667
-480238
-479794
-479300
-478807
-478449
-477934
-477502
-477123
-476804
-476487
-476175
-475861
-475632
-475344
-475108
-474909
-474654
-474557
-474439
-474296
-474227
-474168
-474123
-474017
-473958
-473992
-473973
-474088
-474177
-474254
-474218
-474231
-474366
-474411
-474539
-474675
-474750
-474861
-474972
-475067
-475182
-475230
-475344
-475420
-475609
-475645
-475745
-475829
-475953
-476044
-476083
-476014
-476234
-476254
-476345
-476344
-476458
-476492
-476579
-476643
-476677
-476651
-476653
-476664
-476628
-476663
-476720
-476701
-476612
-476696
-476806
-476750
-476774
-476713
-476697
-476713
-476614
-476627
-476706
-476634
-476612
-476561
-476573
-476600
-476483
-476567
-476428
-476479
-476482
-476523
-476595
-476552
-476670
-476642
-476720
-476782
-476807
-476939
-476968
-477016
-477111
-477137
-477251
-477353
-477459
-477496
-477573
-477651
-477753
-477735
-477781
-477774
-477923
-477941
-477980
-478093
-478016
-478160
-478099
-478167
-478237
-478201
-478309
-478287
-478304
-478375
-478314
-478317
-478306
-478366
-478340
-478311
-478323
-478296
-478300
-478254
-478230
-478222
-478181
-478149
-478152
-478029
-478066
-478059
-478006
-477924
-477871
-477842
-477779
-477741
-477587
-477594
-477600
-477506
-477433
-477315
-477371
-477298
-477309
-477303
-477213
-477205
-477233
-477166
-477218
-477125
-477192
-477260
-477296
-477262
-477269
-477627
-477499
-477488
-477528
-477516
-477607
-477610
-477621
-477691
-477774
-477790
-477867
-477934
-478069
-478011
-478130
-478245
-478327
-478393
-478324
-478500
-478440
-478565
-478677
-478725
-478808
-478921
-478953
-479046
-479053
-479188
-479279
-479321
-479336
-479276
-479449
-479454
-479547
-479618
-479633
-479681
-479776
-479837
-479907
-479840
-479992
-480034
-480117
-480190
-480232
-480379
-480392
-480486
-480524
-480626
-480719
-480779
-480839
-480953
-480844
-481009
-481395
-481226
-481213
-481154
-481254
-481344
-481300
-481335
-481360
-481414
-481403
-481424
-481504
-481564
-481595
-481687
-481700
-481721
-481763
-481859
-481845
-481881
-481967
-481995
-482042
-482093
-482073
-482087
-482060
-482148
-482203
-482146
-482190
-482108
-482107
-482249
-482131
-482229
-482136
-482206
-482280
-482278
-482317
-482370
-482347
-482374
-482423
-482434
-482487
-482495
-482476
-482602
-482572
-482548
-482596
-482679
-482716
-482619
-482685
-482732
-482746
-482725
-482654
-482713
-482721
-482713
-483026
-482798
-482762
-482785
-482822
-482883
-482857
-482907
-482823
-482941
-482899
-482865
-482962
-482861
-483007
-483091
-483081
-483135
-483130
-483165
-483187
-483222
-483278
-483355
-483372
-483360
-483444
-483476
-483603
-483595
-483641
-483693
-483701
-483803
-483833
-483909
-483848
-483895
-483945
-483956
-484004
-484012
-484116
-484173
-484263
-484207
-484282
-484428
-484427
-484570
-484643
-484645
-484731
-484839
-484879
-485036
-485047
-485183
-485281
-485350
-485370
-485442
-485455
-485443
-485456
-485585
-485524
-485644
-485611
-485474
-485486
-485354
-485223
-485020
-483869
-483501
-483129
-482670
-482240
-481793
-481338
-480782
-480268
-479816
-479262
-478766
-478267
-477705
-477274
-476846
-476262
-475813
-475322
-474844
-474403
-473950
-473513
-473100
-472768
-472472
-472041
-471776
-471421
-471163
-470967
-470688
-470491
-470381
-470248
-470133
-469926
-470189
-469851
-469869
-469818
-469852
-469804
-469791
-469843
-469926
-470082
-470115
-470117
-470279
-470439
-470564
-470691
-470698
-470882
-470980
-471123
-471230
-471328
-471480
-471672
-471745
-471909
-471975
-472090
-472222
-472266
-472378
-472469
-472614
-472728
-472862
-472907
-473004
-473079
-473127
-473215
-473308
-473357
-473455
-473546
-473607
-473742
-473610
-473639
-473721
-473769
-473801
-473698
-473784
-473762
-473745
-473692
-473668
-473746
-473661
-473690
-473695
-473588
-473614
-473590
-473572
-473660
-473575
-473615
-473629
-473747
-473742
-473752
-473922
-473976
-474048
-474119
-474109
-474278
-474338
-474494
-474605
-474651
-474646
-474867
-474925
-475088
-475123
-475183
-475227
-475222
-475299
-475381
-475371
-475453
-475545
-475532
-475465
-475603
-475675
-475636
-475649
-475617
-475707
-475652
-475711
-475702
-475625
-475706
-475740
-475672
-475662
-475646
-475636
-475662
-475638
-475588
-475597
-475556
-475471
-475506
-475387
-475386
-475391
-475345
-475352
-475339
-475245
-475264
-475222
-475208
-475235
-475222
-475227
-475232
-475247
-475164
-475113
-475185
-475265
-475299
-475282
-475302
-475341
-475414
-475442
-475460
-475427
-475557
-475606
-475552
-475671
-475694
-475654
-475823
-475900
-475922
-475993
-476036
-476096
-476131
-476244
-476339
-476360
-476337
-476345
-476524
-476539
-476626
-476681
-476779
-476942
-476883
-476965
-477143
-477265
-477318
-477363
-477568
-477702
-477821
-477850
-477954
-478025
-478130
-478197
-478339
-478369
-478423
-478538
-478621
-478766
-478855
-479027
-479014
-479186
-479273
-479313
-479340
-479519
-479510
-479656
-479739
-479808
-479908
-480004
-480012
-480041
-480203
-480265
-480262
-480319
-480301
-480419
-480524
-480618
-480636
-480625
-480681
-480782
-480821
-480954
-480965
-481087
-481099
-481138
-481183
-481233
-481257
-481375
-481430
-481359
-481442
-481599
-481610
-481667
-481712
-481785
-481838
-481914
-481931
-481922
-482061
-482080
-482122
-482207
-482274
-482322
-482414
-482505
-482525
-482605
-482644
-482698
-482743
-482791
-482890
-482952
-482960
-483037
-483003
-483127
-483151
-483182
-483238
-483310
-483366
-483424
-483395
-483498
-483569
-483692
-483747
-483799
-483882
-483910
-483922
-484021
-483971
-484065
-484087
-484195
-484160
-484231
-484255
-484222
-484310
-484354
-484332
-484415
-484430
-484409
-484555
-484578
-484672
-484582
-484713
-484849
-484802
-484827
-484890
-485005
-485105
-485142
-485210
-485221
-485304
-485294
-485407
-485486
-485416
-485582
-485644
-485716
-485814
-485729
-485842
-485897
-485969
-486072
-486110
-486289
-486400
-486465
-486542
-486562
-486691
-486747
-486797
-486884
-486990
-487094
-487153
-487175
-487228
-487163
-487238
-487375
-487336
-487365
-487363
-487432
-487442
-487395
-487249
-487246
-487205
-487121
-486927
-486784
-486532
-486245
-486073
-485685
-485446
-485035
-484699
-484308
-483853
-483423
-482940
-482401
-482087
-481692
-481213
-480801
-480456
-479991
-479473
-479107
-478601
-478369
-477954
-477531
-477241
-476876
-476585
-476276
-475966
-475729
-475466
-475285
-475166
-474958
-474742
-474579
-474491
-474357
-474261
-474095
-474033
-474081
-474002
-474001
-474109
-474023
-474152
-474201
-474239
-474393
-474399
-474418
-474571
-474744
-474821
-474923
-475071
-475124
-475164
-475333
-475485
-475505
-475562
-475642
-475785
-475915
-475993
-476131
-476260
-476341
-476411
-476580
-476544
-476629
-476595
-476718
-476789
-476820
-476867
-476847
-476936
-476919
-476921
-476944
-476911
-476863
-476907
-476883
-476855
-476821
-476807
-476849
-476792
-476830
-476763
-476822
-476611
-476743
-476740
-476672
-476683
-476710
-476753
-476664
-476658
-476717
-476780
-476812
-476714
-476771
-476887
-476951
-477005
-477115
-477176
-477267
-477403
-477588
-477659
-477702
-477849
-478043
-478225
-478333
-478406
-478554
-478769
-478791
-478901
-479030
-479106
-479256
-479426
-479549
-479601
-479663
-479772
-479900
-479971
-480000
-480060
-480155
-480160
-480183
-480169
-480168
-480189
-480237
-480117
-480145
-480113
-480107
-480146
-480091
-480076
-480014
-480053
-480009
-479889
-479897
-479922
-479900
-479852
-480196
-479889
-479893
-479904
-479817
-479737
-479724
-479821
-479816
-479740
-479750
-479767
-479690
-479814
-479882
-479824
-479891
-479919
-480048
-480092
-480129
-480126
-480207
-480252
-480254
-480278
-480409
-480522
-480560
-480653
-480660
-480757
-480817
-480940
-480979
-480955
-481057
-481179
-481314
-481268
-481317
-481484
-481548
-481583
-481908
-481786
-481867
-481913
-482024
-482187
-482163
-482169
-482294
-482382
-482528
-482495
-482609
-482752
-482814
-482896
-482937
-483073
-483088
-483139
-483306
-483287
-483310
-483427
-483528
-483611
-483596
-483768
-483827
-483919
-483958
-484039
-484138
-484205
-484417
-484477
-484456
-484543
-484482
-484724
-484871
-484759
-484959
-485061
-485156
-485227
-485237
-485326
-485493
-485439
-485542
-485568
-485698
-485759
-485834
-485941
-485954
-486020
-486123
-486196
-486186
-486145
-486334
-486387
-486390
-486442
-486444
-486483
-486509
-486641
-486693
-486670
-486748
-486778
-486872
-486965
-486937
-486997
-487008
-487126
-487170
-487219
-487327
-487384
-487453
-487562
-487589
-487672
-487705
-487857
-487856
-487948
-487972
-488041
-488185
-488311
-488245
-488415
-488418
-488516
-488636
-488645
-488732
-488840
-488836
-488956
-488918
-489064
-489079
-489127
-489224
-489167
-489223
-489252
-489331
-489400
-489386
-489600
-489613
-489604
-489605
-489662
-489721
-489729
-489824
-490195
-490005
-489966
-490005
-490097
-490108
-490128
-490223
-490283
-490346
-490470
-490271
-490463
-490643
-490661
-490680
-490753
-490810
-490890
-490925
-490954
-490992
-491071
-491097
-491203
-491337
-491358
-491412
-491419
-491539
-491559
-491597
-491733
-491800
-491814
-491930
-492036
-492029
-492187
-492205
-492277
-492340
-492408
-492538
-492615
-492731
-492814
-492770
-492841
-492929
-492984
-492915
-492954
-492991
-492933
-492821
-492658
-492628
-492539
-492273
-492088
-491818
-491489
-491225
-490974
-490584
-490152
-489867
-489532
-489071
-488721
-488311
-487827
-487554
-487174
-486743
-486400
-486053
-485724
-485367
-484998
-484533
-484185
-483996
-483709
-483461
-483162
-482896
-482508
-482382
-482189
-482325
-481917
-481761
-481668
-481518
-481358
-481309
-481287
-481307
-481304
-481310
-481342
-481398
-481510
-481500
-481565
-481650
-481735
-481865
-482006
-482232
-482159
-482205
-482281
-482378
-482434
-482495
-482559
-482736
-482842
-482939
-483026
-483153
-483236
-483318
-483338
-483355
-483459
-483600
-483661
-483736
-483695
-483785
-483762
-483779
-483762
-483773
-483841
-483885
-483812
-483800
-483802
-483809
-483535
-483770
-483711
-483747
-483739
-483706
-483675
-483692
-483698
-483747
-483676
-483690
-483631
-483671
-483650
-483637
-483595
-483646
-483657
-483660
-483682
-483632
-483629
-483704
-483748
-483841
-483865
-483977
-484097
-484109
-484200
-484257
-484330
-484479
-484611
-484745
-484743
-484855
-484957
-485050
-485153
-485254
-485309
-485468
-485554
-485635
-485693
-485788
-485970
-485988
-486085
-486071
-486152
-486191
-486277
-486381
-486430
-486541
-486769
-486746
-486797
-486746
-486759
-486811
-486859
-486743
-486701
-486694
-486677
-486715
-486699
-486617
-486605
-486687
-486658
-486632
-486532
-486530
-486515
-486542
-486451
-486279
-486423
-486388
-486500
-486497
-486526
-486566
-486583
-486586
-486615
-487058
-486857
-486782
-486908
-487026
-487088
-487118
-487113
-487174
-487370
-487429
-487480
-487515
-487632
-487691
-487762
-487843
-487910
-488002
-488093
-488257
-488335
-488419
-488544
-488557
-488548
-488729
-488872
-489182
-489296
-489274
-489376
-489498
-489528
-489558
-489594
-489650
-489736
-489873
-489954
-490042
-490091
-490245
-490267
-490447
-490539
-490595
-490723
-490712
-490780
-490942
-490978
-491065
-491113
-491274
-491359
-491718
-491621
-491669
-491663
-491719
-491749
-491853
-491932
-492164
-492266
-492244
-492291
-492329
-492349
-492487
-492460
-492517
-492577
-492677
-492660
-492747
-492718
-492771
-492835
-492876
-492855
-492964
-492944
-493027
-493048
-493083
-493120
-493072
-493244
-493276
-493330
-493424
-493564
-493541
-493638
-493621
-493713
-493738
-493880
-493892
-493857
-493891
-493950
-494003
-494035
-494123
-494160
-494194
-494245
-494064
-494224
-494390
-494469
-494530
-494594
-494642
-494737
-494754
-494806
-494788
-494884
-494946
-495028
-495156
-495119
-495165
-495256
-495251
-495426
-495421
-495410
-495361
-495490
-495561
-495560
-495587
-495594
-495679
-495695
-495738
-495761
-495888
-495740
-495894
-495984
-495969
-496047
-496207
-496213
-496223
-496238
-496366
-496392
-496435
-496437
-496447
-496549
-496629
-496693
-496648
-496629
-496711
-496779
-496877
-496810
-496780
-496874
-496901
-496939
-496929
-496895
-496958
-497151
-497045
-497037
-497082
-497099
-497171
-497228
-497193
-497180
-497272
-497311
-497340
-497444
-497597
-497662
-497663
-497750
-497835
-497908
-497959
-497937
-498128
-498202
-498303
-498332
-498316
-498410
-498509
-498549
-498512
-498511
-498670
-498747
-498766
-498850
-498825
-498915
-498984
-499026
-498979
-499036
-499074
-499183
-499120
-499200
-499129
-499109
-499082
-498987
-498854
-498716
-498096
-497842
-497477
-497225
-496908
-496573
-496167
-495707
-495341
-494984
-494545
-494108
-493671
-493210
-492839
-492524
-492071
-491685
-491234
-490901
-489734
-489457
-489185
-488934
-488693
-488421
-488218
-488066
-487783
-487560
-487408
-487275
-487140
-487050
-486811
-486804
-486807
-486783
-486760
-486678
-486606
-486608
-486658
-486738
-486770
-486702
-486862
-486960
-486998
-487113
-487117
-487289
-487346
-487441
-487468
-487604
-487708
-487852
-487856
-487963
-488063
-488190
-488221
-488319
-488394
-488470
-488622
-488690
-488768
-488815
-488936
-489039
-489099
-489193
-489228
-489193
-489292
-489357
-489394
-489357
-489305
-489443
-489401
-489411
-489326
-489296
-489353
-489340
-489176
-489242
-489282
-489347
-489370
-489248
-489199
-489162
-489212
-489152
-489137
-489034
-489073
-489064
-489118
-489119
-489205
-489190
-489265
-489286
-489298
-489325
-489372
-489443
-489591
-489715
-489732
-489831
-489961
-489958
-489871
-490031
-490198
-490356
-490365
-490472
-490543
-490592
-490749
-490802
-490837
-490860
-490967
-491038
-491158
-491192
-491187
-491186
-491205
-491315
-491333
-491259
-491389
-491408
-491470
-491382
-491376
-491400
-491231
-491317
-491284
-491184
-491201
-491182
-491111
-491117
-491056
-491028
-490964
-490919
-490794
-490675
-490720
-490766
-490652
-490608
-490516
-490523
-490487
-490531
-490547
-490446
-490504
-490489
-490450
-490404
-490323
-490896
-490673
-490596
-490522
-490468
-490551
-490603
-490612
-490982
-490741
-490778
-490806
-490793
-490844
-490982
-490948
-491076
-491187
-491264
-491277
-491429
-491473
-491568
-491693
-491761
-491833
-491888
-492026
-492003
-492160
-492280
-492322
-492407
-492477
-492505
-492658
-492724
-492774
-492814
-492862
-492942
-493055
-493176
-493230
-493259
-493374
-493426
-493472
-493530
-493576
-493616
-493740
-493795
-493861
-493898
-493986
-494133
-494141
-494048
-494243
-494363
-494374
-494522
-494543
-494522
-494619
-494749
-494767
-494778
-494785
-494910
-494995
-494929
-494988
-495025
-495082
-495145
-495110
-495199
-495268
-495368
-495389
-495436
-495479
-495577
-495668
-495741
-495778
-495825
-495804
-495907
-495973
-496044
-496132
-496122
-496217
-496250
-496354
-496255
-496414
-496440
-496469
-496461
-496579
-496678
-497008
-496880
-496892
-496906
-496913
-496954
-497042
-497116
-497169
-497212
-497290
-497321
-497413
-497470
-497495
-497557
-497667
-497721
-497717
-497756
-497744
-497868
-497907
-497957
-497997
-498052
-498092
-498158
-498110
-498235
-498314
-498318
-498387
-498409
-498491
-498580
-498643
-498661
-498712
-498706
-498745
-498835
-498763
-498781
-498832
-498888
-498963
-498980
-498924
-498963
-499061
-499063
-499053
-499110
-499169
-499260
-499290
-499400
-499404
-499495
-499551
-499625
-499718
-499635
-499733
-499803
-499822
-499874
-499910
-500002
-500089
-500112
-500115
-500132
-500278
-500355
-500335
-500445
-500435
-500635
-500666
-500771
-500805
-500809
-500696
-501207
-501099
-501093
-501071
-501185
-501307
-501349
-501343
-501538
-501591
-501613
-501752
-501746
-501732
-501718
-501843
-501893
-501989
-501936
-501948
-501970
-502062
-502044
-502039
-502115
-502157
-502208
-502187
-502239
-502303
-502354
-502361
-502347
-502307
-502402
-502456
-502487
-502484
-502394
-502337
-502293
-502228
-502067
-501855
-501758
-501583
-501357
-501063
-500760
-500550
-500267
-499889
-499470
-499088
-498820
-498389
-498039
-497704
-497213
-496891
-496540
-496160
-495754
-495264
-494950
-494617
-494283
-493905
-493622
-493277
-492938
-492710
-492350
-492018
-491834
-491499
-491414
-491256
-491001
-490933
-490768
-490722
-490621
-490527
-490513
-490505
-490471
-490475
-490491
-490598
-490620
-490658
-490729
-490677
-490794
-490916
-491004
-491139
-491204
-491405
-491446
-491545
-491660
-491667
-491866
-492006
-492104
-492191
-492202
-492399
-492424
-492509
-492620
-492642
-492776
-492870
-492854
-492946
-492876
-492967
-493040
-493082
-493035
-492940
-493091
-493117
-493103
-493153
-493073
-493027
-493001
-493005
-493051
-493001
-492970
-492975
-492958
-492919
-492818
-492814
-492792
-492758
-492756
-492742
-492708
-492687
-492681
-492673
-492524
-492603
-492621
-492682
-492700
-492730
-492845
-492850
-492860
-492988
-493022
-493112
-493272
-493411
-493462
-493491
-493653
-493716
-493803
-493889
-493927
-494100
-494660
-494725
-494855
-494888
-494903
-495049
-495015
-495155
-495212
-495302
-495300
-495389
-495445
-495384
-495435
-495403
-495474
-495520
-495422
-495444
-495460
-495319
-495318
-495317
-495187
-495116
-495127
-495141
-495090
-495019
-495069
-494910
-494963
-494881
-494803
-494783
-494723
-494667
-494701
-494634
-494651
-494633
-494569
-494658
-494789
-494751
-494758
-494693
-494733
-494714
-494820
-494865
-494997
-494949
-495053
-495094
-495129
-495158
-495258
-495244
-495412
-495483
-495473
-495524
-495583
-495661
-495762
-495827
-495912
-495940
-496090
-496113
-496448
-496264
-496355
-496425
-496451
-496513
-496579
-496651
-496774
-496843
-496897
-497007
-497112
-497153
-497121
-497289
-497371
-497488
-497516
-497590
-497694
-497657
-497878
-497905
-497990
-498077
-498133
-498250
-498294
-498306
-498509
-498525
-498568
-498595
-498741
-498759
-498826
-498874
-498963
-498939
-499079
-499131
-499138
-499153
-499181
-499201
-499296
-499358
-499447
-499406
-499457
-499492
-499608
-499673
-499711
-499752
-499823
-499841
-499954
-499932
-500078
-500107
-500223
-500233
-500140
-500272
-500325
-500363
-500343
-500340
-500447
-500452
-500604
-500607
-500588
-500630
-500748
-500760
-500897
-500799
-500879
-500913
-500886
-501049
-501021
-501050
-501177
-501249
-501277
-501309
-501281
-501401
-501505
-501410
-501412
-501555
-501567
-501603
-501698
-501712
-501838
-501815
-501902
-501924
-501896
-502010
-502027
-502113
-502200
-502156
-502260
-502258
-502341
-502436
-502372
-502469
-502525
-502537
-502587
-502646
-502676
-502797
-502884
-502947
-502878
-503016
-503150
-503143
-503226
-503248
-503396
-503317
-503332
-503715
-503522
-503470
-503505
-503606
-503668
-503578
-503707
-503715
-503750
-503861
-503789
-503797
-503898
-503878
-503928
-503864
-503894
-503923
-503797
-503943
-503973
-504007
-504094
-504114
-504128
-504136
-504188
-504227
-504176
-504258
-504301
-504297
-504358
-504393
-504463
-504488
-504474
-504547
-504582
-504665
-504610
-504761
-504745
-504783
-504828
-504808
-504870
-505010
-505098
-505102
-505126
-505035
-505228
-505312
-505308
-505380
-505474
-505488
-505569
-505588
-505552
-505684
-505699
-505664
-505693
-505718
-505866
-505881
-505835
-505945
-505929
-505939
-505992
-506041
-506129
-506036
-506143
-506200
-506249
-506194
-506012
-506057
-506196
-506249
-506259
-506224
-506235
-506249
-506099
-506054
-505847
-505757
-505606
-505422
-505145
-504761
-504551
-504239
-503841
-503580
-502958
-502773
-502398
-502009
-501522
-501134
-500720
-500283
-499932
-499440
-499009
-498659
-498288
-497807
-497522
-497117
-496764
-496397
-496075
-495781
-495428
-495181
-494988
-494797
-494553
-494323
-494144
-494030
-493946
-493836
-493648
-493608
-493512
-493440
-493525
-493424
-493495
-493454
-493555
-493639
-493613
-493669
-493857
-493879
-493895
-493957
-494122
-494205
-494297
-494442
-494552
-494648
-494789
-494858
-494952
-495049
-495209
-495236
-495320
-495411
-495444
-495589
-495575
-495619
-495624
-495537
-495580
-495638
-495595
-495657
-495619
-495668
-495641
-495805
-495621
-495499
-495583
-495489
-495499
-495482
-495404
-495351
-495355
-495275
-495290
-495188
-495176
-495181
-495081
-494943
-494900
-494918
-494892
-494910
-494822
-494818
-494788
-494796
-494807
-494754
-494699
-494764
-494766
-494780
-494897
-494926
-494990
-495060
-495098
-495163
-495245
-495406
-495440
-495601
-495677
-495736
-495761
-495844
-496003
-496068
-496201
-496234
-496323
-496351
-496399
-496431
-496572
-496563
-496735
-496709
-496723
-496823
-496932
-496943
-497003
-496935
-496985
-497079
-497041
-497073
-497028
-497061
-497059
-497006
-496953
-496981
-496983
-496939
-496886
-496853
-496820
-496738
-496754
-496685
-496510
-496565
-496521
-496474
-496426
-496416
-496408
-496386
-496316
-496257
-496155
-496245
-496173
-496146
-496139
-496177
-496116
-496190
-496189
-496175
-496147
-496169
-496130
-496146
-496160
-496150
-496459
-496284
-496185
-496284
-496236
-496351
-496327
-496379
-496407
-496460
-496490
-496643
-496668
-496646
-496626
-496693
-496699
-496792
-496886
-496878
-496989
-497035
-497130
-497134
-497219
-497359
-497428
-497446
-497587
-497576
-497600
-497713
-497755
-497913
-497925
-497992
-498008
-498110
-498185
-498145
-498284
-498334
-498333
-498381
-498447
-498544
-498624
-498675
-498750
-498760
-498809
-498793
-498896
-499050
-498947
-498941
-499013
-499031
-499130
-499146
-499115
-499090
-499171
-499191
-499165
-499270
-499289
-499337
-499311
-499161
-499388
-499472
-499492
-499555
-499621
-499604
-499694
-499632
-499749
-499734
-499748
-499781
-499856
-499912
-499993
-500043
-500096
-500093
-500151
-500110
-500141
-500222
-500284
-500324
-500257
-500323
-500312
-500341
-500385
-500348
-500478
-500495
-500523
-500478
-500523
-500560
-500654
-500665
-500633
-500598
-500694
-500744
-500767
-500736
-500768
-500848
-500794
-500878
-500707
-500767
-500830
-500870
-500947
-501026
-500938
-500979
-501134
-501076
-501070
-501128
-501202
-501223
-501638
-501421
-501273
-501325
-501282
-501323
-501316
-501259
-501334
-501387
-501364
-501377
-501339
-501639
-501530
-501523
-501520
-501466
-501526
-501536
-501538
-501677
-501657
-501813
-501842
-501933
-501804
-501744
-501819
-501872
-501961
-501987
-501988
-502089
-502065
-502159
-502135
-502464
-502294
-502244
-502247
-502237
-502178
-502331
-502316
-502302
-502346
-502234
-502327
-502290
-502376
-502362
-502342
-502383
-502380
-502366
-502422
-502453
-502451
-502482
-502490
-502521
-502648
-502615
-502664
-502750
-502730
-502763
-502845
-502921
-502990
-503023
-503007
-503128
-503131
-503090
-503185
-503622
-503452
-503276
-503442
-503331
-503501
-503637
-503611
-503660
-503579
-503617
-503566
-503516
-503543
-503474
-503360
-503175
-502972
-502805
-502572
-502311
-502001
-501735
-501405
-500962
-500608
-500256
-499731
-499419
-498977
-498509
-498079
-497722
-497313
-496847
-496430
-496078
-495649
-495273
-494731
-494332
-493993
-493683
-493330
-492929
-492592
-492246
-491963
-491714
-491505
-491282
-491115
-490947
-490634
-490531
-490406
-490291
-490209
-490096
-489942
-489921
-489933
-489877
-489876
-489909
-489978
-489887
-490012
-490097
-490060
-490149
-490231
-490328
-490481
-490469
-490425
-490557
-490722
-491227
-490950
-490991
-491050
-491170
-491230
-491274
-491335
-491425
-491524
-491604
-491610
-491692
-491697
-491741
-491841
-491795
-491874
-491954
-491889
-491939
-491815
-491908
-491938
-491966
-491959
-491855
-491857
-491896
-491870
-491810
-491707
-491635
-491610
-491578
-491543
-491503
-491425
-491366
-491294
-491278
-491200
-491256
-491249
-491229
-491180
-491209
-491244
-491334
-491375
-491459
-491485
-491464
-491576
-491634
-491834
-491841
-491965
-491915
-492067
-492099
-492138
-492305
-492449
-492541
-492524
-492558
-492728
-492786
-492812
-492871
-492916
-493020
-492990
-493013
-493053
-493135
-493177
-493198
-493223
-493267
-493299
-493279
-493287
-493284
-493323
-493356
-493283
-493261
-493256
-493228
-493282
-493293
-493316
-493260
-493245
-493192
-493143
-493018
-493045
-493060
-492904
-492953
-492950
-492876
-492833
-492738
-492779
-492731
-492680
-492660
-492531
-492626
-492662
-492600
-492598
-492569
-492595
-492632
-492628
-492668
-492623
-492665
-492734
-493059
-492898
-492882
-492820
-492879
-492889
-493095
-492990
-493039
-493125
-493218
-493251
-493331
-493450
-493602
-493665
-493780
-493815
-493850
-494022
-494050
-494132
-494154
-494288
-494315
-494388
-494577
-494563
-494663
-494795
-494792
-494855
-494952
-495034
-495116
-495185
-495247
-495318
-495396
-495507
-495538
-495604
-495659
-495810
-495843
-495862
-495985
-495993
-496017
-496161
-496174
-496276
-496268
-496407
-496515
-496605
-496611
-496577
-496680
-496697
-496818
-496875
-496900
-497016
-497094
-497059
-497143
-497179
-497191
-497240
-497350
-497322
-497375
-497380
-497485
-497538
-497580
-497640
-497691
-497503
-497683
-497734
-497842
-497907
-497868
-497947
-498065
-498075
-498054
-498037
-498100
-498028
-498097
-498177
-498251
-498166
-498256
-498491
-498314
-498318
-498316
-498321
-498430
-498448
-498431
-498464
-498475
-498449
-498489
-498526
-498553
-498645
-498671
-498629
-498549
-498668
-498655
-498709
-498615
-498719
-498750
-498699
-498714
-498724
-498726
-498694
-498721
-498726
-498745
-498653
-498692
-498668
-498528
-498611
-498618
-498705
-498652
-498607
-498632
-498606
-498618
-498588
-498600
-498654
-498662
-498688
-498724
-498656
-498710
-498728
-498774
-498705
-498736
-498627
-498732
-498785
-498773
-498802
-498809
-498847
-498895
-498926
-498936
-498951
-498915
-498958
-499045
-498958
-499015
-498996
-499069
-499084
-499064
-499154
-499193
-499251
-499297
-499168
-499328
-499422
-499379
-499495
-499504
-499604
-499645
-499705
-499743
-499824
-499933
-499932
-500012
-500088
-500118
-500301
-500307
-500255
-500515
-500596
-500692
-500782
-500849
-500990
-500986
-501050
-501163
-501245
-501305
-501297
-501498
-501595
-501615
-501666
-501706
-501828
-501924
-501884
-501904
-501880
-501879
-501893
-501860
-501771
-501645
-501511
-501377
-501247
-500997
-500668
-500422
-500125
-499815
-499438
-498972
-498679
-498255
-497854
-497437
-496936
-496501
-496077
-495671
-495318
-494785
-494403
-493982
-493650
-493271
-492843
-492552
-492079
-491785
-491443
-491118
-490855
-490596
-490342
-490108
-489919
-489669
-489601
-489418
-489379
-489240
-489171
-489165
-489051
-489100
-489080
-489072
-489004
-489106
-489157
-489126
-489212
-489301
-489392
-489536
-489565
-489728
-489813
-489876
-490055
-490074
-490275
-490343
-490479
-490613
-490646
-490781
-490940
-490982
-491109
-491083
-491198
-491178
-491386
-491391
-491453
-491474
-491611
-491636
-491615
-491646
-491722
-491670
-491649
-491636
-491703
-491701
-491616
-491677
-491641
-491598
-491590
-491575
-491971
-491655
-491524
-491516
-491468
-491526
-491421
-491404
-491337
-491301
-491358
-491430
-491452
-491379
-491403
-491295
-491336
-491304
-491393
-491423
-491461
-491446
-491504
-491549
-491708
-491658
-491807
-491832
-491976
-491990
-492177
-492202
-492221
-492367
-492440
-492522
-492684
-492740
-492867
-492955
-493023
-493119
-493092
-492982
-493184
-493318
-493333
-493374
-493407
-493503
-493521
-493627
-493552
-493671
-493768
-493833
-493774
-493820
-493850
-493824
-493944
-493962
-493945
-493977
-494050
-494024
-494017
-493916
-493960
-493990
-493862
-493872
-493953
-493966
-494002
-494031
-494053
-493939
-493943
-493892
-493973
-493916
-493930
-493875
-494136
-493904
-493839
-493757
-493808
-493697
-493731
-493757
-493739
-493768
-493830
-493806
-493923
-493922
-493991
-494047
-494116
-494181
-494223
-494338
-494424
-494481
-494540
-494571
-494696
-494836
-494890
-495021
-495081
-495184
-495293
-495388
-495454
-495569
-495637
-495773
-495880
-495927
-496060
-496120
-496311
-496383
-496518
-496508
-496554
-496690
-496788
-496929
-497052
-497108
-497171
-497277
-497428
-497403
-497567
-497697
-497786
-497891
-497873
-497918
-498089
-498142
-498203
-498253
-498424
-498426
-498511
-498631
-498607
-498691
-498749
-498746
-498884
-498893
-498992
-499083
-499099
-499192
-499168
-499259
-499277
-499301
-499332
-499269
-499466
-499499
-499562
-499692
-499642
-499717
-499816
-499821
-499906
-500006
-500039
-500178
-500171
-500292
-500275
-500364
-500488
-500633
-500683
-500602
-500740
-500772
-500926
-500989
-500996
-501024
-501074
-501138
-501185
-501165
-501245
-501296
-501336
-501399
-501475
-501504
-501540
-501695
-501562
-501663
-501674
-501780
-501849
-501868
-501899
-502017
-502003
-502100
-502003
-502092
-502140
-502206
-502211
-502208
-502279
-502295
-502362
-502424
-502443
-502483
-502499
-502539
-502637
-502584
-502715
-502781
-502760
-502785
-502871
-502909
-503010
-503053
-503122
-503171
-503277
-503305
-503203
-503320
-503348
-503487
-503495
-503559
-503589
-503580
-503700
-503717
-503793
-503855
-503936
-504001
-504073
-504078
-504081
-504119
-504106
-504187
-504276
-504328
-504325
-504394
-504432
-504493
-504542
-504534
-504621
-504660
-504729
-504754
-504764
-504854
-504900
-504939
-505023
-505007
-505122
-505216
-505142
-505181
-505250
-505258
-505245
-505291
-505338
-505371
-505451
-505388
-505482
-505529
-505479
-505572
-505666
-505671
-505736
-505692
-505738
-505841
-505957
-505960
-505917
-505943
-505968
-506051
-505931
-505924
-505811
-505685
-505597
-505344
-505197
-505008
-504713
-504411
-504158
-503805
-503470
-503094
-502817
-502414
-501958
-501657
-501303
-500966
-500552
-500145
-499763
-499438
-499105
-498727
-498370
-498092
-497771
-497525
-497262
-496894
-496619
-496405
-496283
-496015
-495786
-495641
-495529
-495373
-495280
-495223
-495244
-495166
-495111
-495173
-495108
-495066
-495134
-495132
-495177
-495231
-495263
-495345
-495492
-495567
-495641
-495622
-495743
-495768
-495896
-495924
-496049
-496106
-496220
-496319
-496315
-496376
-496456
-496477
-496509
-496600
-496613
-496572
-496602
-496696
-496681
-496661
-496711
-496694
-496678
-496707
-496673
-496626
-496615
-496592
-496589
-496563
-496475
-496509
-496423
-496378
-496321
-496378
-496240
-496212
-496134
-496077
-495943
-495974
-495966
-495901
-495788
-495808
-495739
-495773
-495699
-495642
-495650
-495684
-495620
-495573
-495608
-495656
-495645
-495779
-495659
-495816
-495939
-495999
-496068
-496179
-496251
-496338
-496427
-496510
-496617
-496741
-496862
-496976
-497128
-497163
-497257
-497340
-497549
-497616
-497755
-497796
-497946
-498031
-498091
-498145
-498243
-498285
-498302
-498397
-498371
-498400
-498507
-498528
-498594
-498511
-498524
-498435
-498461
-498348
-498358
-498325
-498318
-498320
-498221
-498149
-498080
-497975
-498015
-497931
-497845
-497854
-497860
-497724
-497671
-497617
-497588
-497580
-497585
-497500
-497447
-497451
-497487
-497554
-497519
-497482
-497548
-497610
-497591
-497579
-497697
-497673
-497809
-497755
-497793
-497760
-497771
-497908
-497991
-498032
-497964
-498015
-498110
-498211
-498295
-498302
-498282
-498358
-498467
-498440
-498501
-498482
-498641
-498683
-498744
-498728
-498835
-498900
-498944
-498985
-499009
-499051
-499106
-499240
-499300
-499277
-499343
-499423
-499565
-499635
-499696
-499629
-499680
-499819
-499920
-499939
-500048
-500086
-500130
-500278
-500301
-500320
-500426
-500521
-500611
-500556
-500671
-500714
-500771
-500811
-500792
-500906
-500933
-501017
-501023
-501040
-501054
-501154
-501162
-501251
-501264
-501340
-501361
-501353
-501426
-501447
-501533
-501559
-501580
-501597
-501599
-501627
-501749
-501869
-501887
-501854
-501908
-501975
-502052
-502085
-502107
-502168
-502205
-502238
-502266
-502305
-502365
-502389
-502428
-502459
-502522
-502352
-502510
-502567
-502675
-502719
-502818
-502834
-502856
-502949
-503458
-503144
-503108
-503133
-503184
-503136
-503149
-503164
-503227
-503262
-503190
-503208
-503239
-503284
-503295
-503118
-503174
-503264
-503230
-503269
-503354
-503414
-503518
-503552
-503534
-503671
-503754
-503714
-503796
-503877
-503932
-503941
-504028
-504103
-504193
-504266
-504267
-504344
-504442
-504483
-504508
-504393
-504607
-504730
-504798
-504801
-504933
-505086
-505124
-505111
-505245
-505265
-505366
-505398
-505645
-505720
-505776
-505786
-505853
-506415
-506129
-506066
-506111
-506117
-506160
-506303
-506399
-506350
-506476
-506630
-506622
-506639
-506708
-506756
-506846
-507067
-507069
-507098
-507220
-507346
-507417
-507441
-507569
-507617
-507661
-507826
-507904
-507829
-507948
-507967
-508088
-508198
-508195
-508484
-508306
-508281
-508368
-508378
-508334
-508310
-508368
-508257
-508176
-508571
-508127
-508015
-507821
-507609
-507522
-507324
-507089
-506820
-506501
-506233
-505998
-505682
-505328
-504965
-504518
-504124
-503853
-503390
-503012
-502656
-502231
-501837
-501367
-501033
-500712
-500331
-500053
-499638
-499110
-498969
-498640
-498505
-498235
-497988
-497725
-497666
-497582
-497300
-497187
-497128
-497047
-496912
-496862
-496818
-496822
-496891
-496899
-496884
-496916
-497057
-497118
-497258
-497280
-497412
-497565
-497671
-497828
-497860
-498037
-498199
-498293
-498461
-498659
-498700
-498829
-498946
-499106
-499101
-499232
-499319
-499362
-499440
-499423
-499487
-499613
-499701
-499697
-499723
-499661
-499767
-499863
-499817
-499820
-499713
-499581
-499703
-499653
-499578
-499511
-499439
-499474
-499334
-499285
-499233
-499129
-498962
-498879
-498788
-498711
-498659
-498669
-498518
-498492
-498446
-498323
-498256
-498276
-498191
-498126
-498016
-497996
-497919
-497888
-497945
-498239
-498156
-498024
-498057
-498161
-498300
-498361
-498505
-498596
-498571
-498789
-498894
-499045
-499101
-499291
-499506
-499501
-499587
-499647
-499826
-499845
-499987
-500043
-500041
-500183
-500261
-500313
-500387
-500389
-500515
-500606
-500651
-500584
-500620
-500735
-500729
-500720
-500688
-500687
-500740
-500695
-500728
-500740
-500677
-500701
-500592
-500562
-500547
-500638
-500557
-500594
-500547
-500513
-500531
-500461
-500424
-500410
-500380
-500345
-500381
-500441
-500331
-500289
-500348
-500406
-500344
-500432
-500471
-500439
-500433
-500528
-500539
-500537
-500591
-500558
-500632
-500645
-500588
-500616
-500760
-500745
-500866
-500842
-500872
-500901
-500966
-501049
-501048
-501106
-501167
-501357
-501376
-501446
-501549
-501609
-501739
-501873
-501946
-502010
-502075
-502147
-502337
-502448
-502534
-502670
-502776
-502921
-503020
-503096
-503156
-503220
-503404
-503483
-503492
-503647
-503828
-503918
-503988
-504010
-504062
-504101
-504248
-504293
-504356
-504449
-504505
-504521
-504558
-504600
-504594
-504709
-504701
-504783
-504736
-504831
-504925
-504921
-504933
-504880
-505008
-505118
-505052
-505097
-505239
-505352
-505403
-505486
-505515
-505625
-505762
-505990
-505911
-505938
-505994
-506045
-506094
-506173
-506177
-506322
-506351
-506418
-506466
-506471
-506512
-506589
-506587
-506594
-506589
-506637
-506766
-506756
-506713
-506737
-506761
-506798
-506906
-506923
-506929
-506947
-507065
-507017
-507056
-507110
-507122
-507156
-507190
-507151
-507191
-507322
-507266
-507362
-507391
-507394
-507512
-507532
-507597
-507650
-507681
-507758
-507740
-507816
-507895
-507904
-507976
-508043
-508121
-508125
-508191
-508158
-508161
-508281
-508356
-508328
-508415
-508440
-508542
-508561
-508541
-508767
-508760
-508875
-508883
-508977
-509068
-509164
-509179
-509237
-509315
-509338
-509464
-509472
-509527
-509551
-509715
-509700
-509794
-509820
-509865
-509896
-509982
-510091
-510044
-510059
-510141
-510269
-510317
-510247
-510272
-510334
-510375
-510394
-510470
-510492
-510592
-510561
-510705
-510701
-510708
-510814
-510810
-510946
-510955
-510999
-510995
-511117
-511250
-511234
-511217
-511280
-511388
-511429
-511490
-511504
-511491
-511510
-511537
-511504
-511573
-511595
-511641
-511694
-511684
-511696
-511800
-511836
-511859
-511928
-511956
-512052
-512102
-512299
-512270
-512286
-512374
-512460
-512521
-512518
-512459
-512638
-512661
-512668
-512626
-512566
-512508
-512519
-512449
-512328
-512104
-511978
-511773
-511491
-511220
-510900
-510601
-510346
-510003
-509677
-509284
-508916
-508601
-508183
-507756
-507391
-507072
-506726
-506393
-506005
-505686
-505327
-505008
-504799
-504677
-504075
-503809
-503492
-503211
-502973
-502767
-502593
-502393
-502299
-502087
-501884
-501897
-501803
-501731
-501595
-501571
-501628
-501569
-501626
-501577
-501643
-501725
-501794
-501908
-501946
-501990
-502015
-502146
-502240
-502275
-502331
-502393
-502476
-502595
-502625
-502718
-502880
-502924
-502964
-503022
-503040
-503091
-503231
-503341
-503354
-503373
-503425
-503426
-503430
-503451
-503426
-503487
-503426
-503444
-503419
-503270
-503288
-503263
-503183
-503132
-503140
-503165
-503122
-503046
-503014
-502951
-502976
-502941
-502930
-502821
-502846
-502800
-502764
-502807
-502795
-502764
-502759
-502773
-502765
-502731
-502656
-502720
-502691
-502768
-502835
-502820
-502872
-502917
-502959
-503002
-503050
-503173
-503219
-503360
-503427
-503565
-503635
-503776
-503954
-504091
-504113
-504152
-504297
-504436
-504576
-504579
-504720
-504805
-504892
-505088
-505118
-505380
-505432
-505440
-505433
-505589
-505531
-505587
-505670
-505655
-505669
-505701
-505604
-505580
-505503
-505487
-505397
-505419
-505332
-505249
-505299
-505183
-505149
-505058
-505024
-504989
-504969
-504892
-504889
-504814
-504867
-504807
-504902
-504819
-504836
-504783
-504842
-504819
-504796
-504716
-504765
-504799
-504860
-504698
-504781
-504910
-504942
-505007
-504989
-504893
-505143
-505159
-505264
-505403
-505438
-505520
-505652
-505752
-505737
-505862
-505928
-505984
-506110
-506198
-506185
-506199
-506366
-506323
-506401
-506445
-506596
-506653
-506725
-506690
-506869
-506912
-507073
-507129
-507219
-507209
-507237
-507428
-507495
-507483
-507582
-507738
-507800
-507880
-507963
-507868
-508003
-508229
-508283
-508368
-508369
-508442
-508520
-508594
-508662
-508705
-508890
-508918
-508978
-509057
-509080
-509127
-509243
-509295
-509287
-509309
-509432
-509495
-509593
-509660
-509711
-509805
-509849
-509897
-509941
-509933
-509941
-510064
-510129
-510162
-510282
-510385
-510522
-510511
-510609
-510622
-510705
-510804
-510861
-510860
-510882
-511035
-511058
-511183
-511143
-511166
-511282
-511324
-511326
-511317
-511322
-511404
-511419
-511571
-511553
-511705
-511784
-511813
-511885
-511878
-511951
-512041
-512114
-512216
-512286
-512329
-512449
-512481
-512557
-512529
-512627
-512613
-512729
-512712
-512705
-512779
-512769
-512873
-512969
-512971
-513044
-513056
-513203
-513279
-513265
-513400
-513474
-513594
-513650
-513681
-513797
-513892
-513979
-513967
-514131
-514115
-514154
-514258
-514237
-514277
-514251
-514356
-514390
-514368
-514585
-514540
-514676
-514750
-514751
-514908
-514856
-514924
-515046
-515189
-515277
-515206
-515356
-515431
-515445
-515562
-515599
-515642
-515743
-515806
-515688
-515761
-515894
-515929
-515963
-515985
-515993
-516112
-516117
-516118
-516160
-516152
-516251
-516305
-516274
-516273
-516225
-516343
-516447
-516462
-516531
-516598
-516731
-516767
-516886
-516715
-516863
-516964
-517080
-517132
-517106
-517124
-517240
-517356
-517324
-517354
-517376
-517900
-517621
-517617
-517620
-517639
-517735
-517759
-517908
-517975
-518000
-518120
-518247
-518372
-518462
-518505
-518566
-518672
-518799
-518760
-518781
-518898
-518983
-519089
-519169
-519150
-519200
-519205
-519305
-519404
-519346
-519377
-519424
-519421
-519513
-519593
-519607
-519482
-519613
-519590
-519591
-519540
-519418
-519387
-519248
-518925
-518793
-518560
-518354
-518048
-517676
-517796
-517072
-516627
-516256
-515688
-515392
-514910
-514596
-514137
-513713
-513323
-512972
-512584
-512273
-511915
-511573
-511349
-510984
-510648
-510285
-510057
-509855
-509682
-509422
-509281
-509123
-508879
-508803
-508494
-508414
-508293
-508185
-508094
-508046
-508057
-508011
-508046
-508043
-508075
-508083
-508155
-508211
-508312
-508503
-508471
-508637
-508692
-508695
-508816
-508997
-509120
-509210
-509395
-509496
-509546
-509734
-509858
-509874
-509958
-510022
-510240
-510339
-510383
-510535
-510482
-510538
-510602
-510620
-510778
-510719
-510763
-510854
-510916
-510892
-510812
-510778
-510846
-510840
-510877
-510780
-510811
-510874
-510806
-510732
-510681
-510648
-510616
-510556
-510493
-510360
-510306
-510343
-510283
-510302
-510186
-510144
-510172
-510162
-510110
-510329
-510190
-510239
-510223
-510228
-510160
-510214
-510341
-510326
-510485
-510441
-510627
-510668
-510701
-510792
-510774
-510940
-511082
-511127
-511217
-511274
-511375
-511358
-511516
-511563
-511598
-511665
-511702
-511750
-511794
-511887
-511927
-511912
-512042
-512075
-512033
-512182
-512185
-512183
-512133
-512159
-512209
-512223
-512203
-512220
-512148
-512087
-512020
-512021
-511988
-511997
-512028
-511916
-511990
-511887
-511817
-511761
-511777
-511741
-511666
-511616
-511546
-511547
-511506
-511462
-511324
-511342
-511335
-511326
-511631
-511200
-511217
-511211
-511213
-511277
-511183
-511248
-511272
-511263
-511202
-511257
-511330
-511378
-511389
-511468
-511456
-511518
-511571
-511615
-511617
-511560
-511665
-511738
-511804
-511879
-511778
-511972
-512019
-512058
-512032
-512059
-512144
-512237
-512308
-512353
-512372
-512477
-512514
-512584
-512599
-512655
-512743
-512740
-512850
-512872
-512928
-513021
-513089
-513174
-513234
-513222
-513253
-513306
-513371
-513448
-513526
-513524
-513556
-513594
-513625
-513643
-513823
-513701
-513916
-513961
-513947
-513937
-513991
-514065
-514170
-514153
-514204
-514249
-514368
-514423
-514322
-514367
-514390
-514427
-514551
-514503
-514557
-514404
-514611
-514724
-514716
-514744
-514755
-514767
-514855
-514888
-514921
-514974
-514968
-514988
-515016
-515083
-515102
-515114
-514989
-515080
-515207
-515197
-515180
-515163
-515293
-515246
-515298
-515322
-515350
-515478
-515535
-515516
-515545
-515564
-515620
-515624
-515662
-515679
-515721
-515769
-515723
-515788
-515910
-515850
-515946
-515993
-516056
-515972
-516065
-516095
-516185
-516216
-516306
-516212
-516292
-516287
-516428
-516402
-516369
-516435
-516453
-516541
-516636
-516535
-516650
-516712
-516750
-516801
-516699
-516844
-516833
-516836
-516961
-516972
-517015
-517039
-517110
-517068
-517153
-517191
-517187
-517238
-517352
-517383
-517422
-517462
-517415
-517442
-517499
-517528
-517599
-517611
-517475
-517580
-517673
-517706
-517950
-517793
-517821
-517798
-517865
-517923
-517904
-517944
-517969
-517971
-518071
-518160
-518086
-518119
-518206
-518302
-518342
-518351
-518732
-518475
-518448
-518487
-518384
-518478
-518551
-518581
-518642
-518607
-518711
-518662
-518787
-518806
-518736
-518780
-518872
-518948
-519027
-519022
-519063
-519194
-519265
-519290
-519353
-519444
-519521
-519643
-519707
-519699
-519809
-519813
-519905
-520030
-519971
-520039
-520136
-520239
-520208
-520214
-520364
-520324
-520338
-520360
-520312
-520290
-520235
-520178
-520102
-520009
-519933
-519681
-519523
-519385
-519128
-518965
-518590
-518400
-518076
-517635
-517338
-516964
-516653
-516178
-515788
-515430
-515075
-514688
-514336
-513965
-513599
-513222
-512825
-512489
-512186
-511910
-511640
-511284
-510967
-510650
-510461
-510196
-510020
-509890
-509713
-509583
-509428
-509324
-509282
-509184
-509172
-509139
-509115
-509056
-509031
-509081
-509111
-509208
-509260
-509318
-509372
-509423
-509484
-509620
-509710
-509821
-509839
-509953
-510077
-510105
-510273
-510335
-510415
-510608
-510583
-510719
-510778
-510889
-510933
-511025
-511097
-511182
-511224
-511286
-511318
-511364
-511395
-511487
-511523
-511573
-511615
-511540
-511633
-511621
-511564
-511671
-511724
-511668
-511756
-511727
-511708
-511734
-511693
-511662
-511603
-511661
-511630
-511640
-511631
-511518
-511599
-511555
-511568
-511544
-511486
-511492
-511542
-511525
-511479
-511454
-511474
-511562
-511687
-511671
-511708
-511729
-511823
-511896
-511986
-512047
-512113
-512155
-512161
-512244
-512387
-512407
-512509
-512593
-512687
-512648
-512809
-512754
-512766
-512855
-512756
-512852
-512970
-513023
-512964
-512975
-513002
-513016
-513048
-513027
-512994
-513067
-513015
-512994
-512900
-512843
-512887
-512838
-512780
-512773
-512790
-512780
-512720
-512652
-512677
-512615
-512593
-512532
-512528
-512475
-512443
-512408
-512469
-512369
-512417
-512278
-512332
-512277
-512269
-512209
-512216
-512208
-512244
-512282
-512212
-512235
-512367
-512404
-512257
-512400
-512363
-512460
-512452
-512472
-512569
-512512
-512586
-512666
-512672
-512649
-512653
-512702
-512784
-512821
-512815
-512892
-512940
-513045
-513121
-513232
-513195
-513377
-513396
-513488
-513610
-513683
-513800
-513922
-513939
-513937
-514071
-514095
-514223
-514254
-514358
-514438
-514500
-514616
-514649
-514712
-514790
-514780
-514900
-514790
-514982
-515027
-515108
-515231
-515244
-515318
-515407
-515451
-515459
-515458
-515885
-515649
-515694
-515647
-515645
-515744
-515774
-515835
-515823
-515825
-515925
-515975
-516023
-516026
-516095
-516098
-516141
-516267
-516255
-516321
-516359
-516343
-516475
-516502
-516830
-516620
-516648
-516741
-516768
-516751
-516837
-516871
-516896
-516951
-517058
-517122
-517168
-517164
-517114
-517175
-517257
-517242
-517271
-517329
-517386
-517421
-517474
-517490
-517550
-517609
-517674
-517703
-517765
-517680
-517673
-517778
-517783
-517805
-517769
-517839
-517893
-517987
-518080
-518027
-518129
-518213
-518193
-518231
-518237
-518280
-518339
-518344
-518367
-518389
-518399
-518513
-518523
-518529
-518548
-518497
-518603
-518685
-518686
-518779
-518776
-518828
-518829
-518941
-518914
-518980
-519049
-519050
-519112
-519130
-519266
-519275
-519340
-519355
-519414
-519488
-519485
-519553
-519527
-519634
-519804
-519667
-519692
-519731
-519855
-519861
-519887
-519971
-520057
-520123
-520219
-520177
-520298
-520277
-520396
-520423
-520457
-520501
-520530
-520548
-520621
-520638
-520676
-520681
-520744
-520741
-520734
-520815
-520785
-520828
-520899
-520845
-520909
-520927
-520975
-520992
-520963
-520929
-520996
-521064
-521098
-521090
-521101
-521184
-521204
-521255
-521211
-521279
-521358
-521395
-521430
-521450
-521457
-521505
-521544
-521608
-521506
-521584
-521639
-521573
-521739
-521727
-521840
-521883
-521972
-522045
-522053
-522120
-522118
-522209
-522335
-522330
-522484
-522468
-522511
-522543
-522547
-522603
-522622
-522613
-522527
-522327
-522347
-522140
-521849
-521683
-521374
-521078
-520642
-520408
-520170
-519758
-519354
-519015
-518581
-518172
-517741
-517340
-516961
-516522
-516146
-515677
-515338
-514889
-514451
-514064
-513596
-513265
-512934
-512627
-512259
-511899
-511651
-511325
-511023
-510837
-510515
-510334
-510170
-510024
-509889
-509734
-509620
-509469
-509415
-509424
-509270
-509320
-509334
-509364
-509344
-509321
-509374
-509401
-509466
-509554
-509641
-509684
-509824
-509940
-510052
-510075
-510182
-510334
-510455
-510546
-510576
-510725
-510787
-510829
-510907
-510954
-511046
-511160
-511217
-511287
-511333
-511343
-511408
-511405
-511427
-511470
-511565
-511522
-511500
-511561
-511475
-511494
-511457
-511444
-511422
-511313
-511273
-511304
-511286
-511217
-511115
-511090
-511002
-510938
-510940
-510815
-510813
-510783
-510653
-510656
-510449
-510500
-510402
-510381
-510371
-510322
-510364
-510261
-510240
-510279
-510231
-510316
-510327
-510371
-510429
-510363
-510448
-510565
-510579
-510763
-510718
-510904
-510957
-511066
-511184
-511262
-511306
-511428
-511508
-511676
-511725
-511787
-511881
-511960
-512041
-512099
-512103
-512121
-512264
-512275
-512288
-512376
-512384
-512390
-512424
-512427
-512478
-512321
-512330
-512428
-512358
-512271
-512290
-512201
-512159
-512161
-512021
-511926
-511882
-511895
-511840
-511768
-511695
-511717
-511607
-511626
-511604
-511516
-511541
-511806
-511494
-511479
-511390
-511405
-511281
-511300
-511336
-511388
-511352
-511256
-511291
-511329
-511385
-511368
-511322
-511965
-511604
-511533
-511527
-511518
-511623
-511637
-511634
-511741
-511739
-511772
-511848
-511916
-511945
-511960
-512015
-512070
-512179
-512281
-512329
-512433
-512422
-512520
-512610
-512661
-512781
-512879
-512913
-512964
-513028
-513110
-513217
-513269
-513351
-513357
-513435
-513527
-513627
-513741
-513778
-513746
-513761
-513834
-513886
-513917
-513980
-514069
-514141
-514183
-514189
-514244
-514357
-514391
-514392
-514480
-514544
-514561
-514675
-514769
-514764
-514888
-514925
-515042
-515018
-514998
-515059
-515100
-515175
-515221
-515254
-515311
-515209
-515386
-515452
-515470
-515481
-515572
-515611
-515615
-515607
-515721
-515812
-515875
-515945
-515907
-516065
-516016
-516107
-516098
-516102
-516208
-516231
-516275
-516278
-516272
-516386
-516385
-516379
-516533
-516492
-516592
-516527
-516597
-516647
-516627
-516758
-516785
-516825
-516867
-516877
-516876
-516988
-516976
-517395
-517215
-517169
-517174
-517172
-517283
-517270
-517346
-517406
-517392
-517267
-517445
-517552
-517650
-517725
-517761
-517810
-517888
-517927
-517875
-518062
-518069
-518177
-518195
-518257
-518258
-518285
-518317
-518377
-518393
-518446
-518865
-518655
-518533
-518687
-518637
-518652
-518722
-518755
-518786
-518821
-518787
-518830
-518914
-518943
-518956
-518933
-519029
-519121
-519137
-519115
-519186
-519216
-519285
-519335
-519338
-519334
-519382
-519471
-519496
-519383
-519463
-519540
-519572
-519710
-519690
-519762
-519850
-519897
-519998
-519953
-519929
-520015
-520074
-520170
-520218
-520187
-520256
-520236
-520363
-520408
-520385
-520462
-520429
-520543
-520603
-520561
-520591
-520582
-520629
-520637
-520578
-520745
-520761
-520806
-520895
-520885
-520977
-520943
-520987
-521006
-520994
-521119
-521177
-521124
-521252
-521084
-521314
-521331
-521465
-521427
-521465
-521524
-521615
-521711
-521729
-521692
-521805
-521941
-522022
-522011
-522063
-522091
-522204
-522330
-522314
-522389
-522327
-522450
-522502
-522460
-522433
-522493
-522547
-522489
-522415
-522370
-522436
-522338
-522267
-522138
-521938
-521761
-521492
-521192
-520932
-520576
-520244
-519796
-519474
-519045
-518611
-518141
-517676
-517205
-516799
-516252
-515821
-515323
-514896
-514411
-513902
-513553
-513166
-512702
-512310
-511799
-511495
-511162
-510758
-510364
-509991
-509810
-509541
-509251
-508952
-508611
-508496
-508296
-508121
-508201
-507872
-507702
-507588
-507543
-507508
-507409
-507662
-507329
-507333
-507258
-507278
-507430
-507470
-507519
-507615
-507656
-507721
-507810
-507840
-507928
-507946
-508101
-508153
-508266
-508383
-508458
-508491
-508579
-508635
-508672
-508780
-508804
-508959
-508997
-509063
-509113
-509516
-509329
-509262
-509199
-509304
-509286
-509291
-509327
-509226
-509351
-509306
-509344
-509333
-509302
-509355
-509307
-509216
-509272
-509176
-509175
-509030
-508951
-508917
-508848
-508841
-508792
-508736
-508654
-508520
-508533
-508483
-508455
-508481
-508454
-508413
-508431
-508340
-508382
-508268
-508339
-508334
-508311
-508308
-508334
-508378
-508480
-508494
-508571
-508520
-508658
-508739
-508826
-508873
-508912
-508988
-509070
-509160
-509219
-509208
-509341
-509352
-509412
-509512
-509499
-509488
-509515
-509432
-509523
-509508
-509595
-509670
-509713
-509656
-509600
-509594
-509538
-509634
-509562
-509521
-509484
-509461
-509409
-509442
-509318
-509245
-509262
-509180
-509039
-508991
-508935
-508897
-508825
-508732
-508639
-508578
-508560
-508469
-508390
-508309
-508327
-508299
-508293
-508155
-508191
-508210
-508167
-508163
-508145
-508122
-508178
-508162
-508116
-508162
-508186
-508264
-508245
-508241
-508216
-508244
-508299
-508244
-508322
-508305
-508361
-508448
-508466
-508508
-508522
-508535
-508703
-508733
-508783
-508823
-508869
-509008
-509081
-509128
-509206
-509285
-509309
-509442
-509486
-509480
-509521
-509615
-509673
-509743
-509667
-509706
-509730
-509834
-509880
-509914
-509943
-510057
-510077
-510126
-510128
-510288
-510362
-510462
-510463
-510471
-510617
-510596
-510699
-510758
-510813
-510792
-510845
-510926
-510870
-510989
-511035
-511025
-511065
-511130
-510998
-511078
-511105
-511227
-511179
-511164
-511257
-511183
-511277
-511353
-511313
-511449
-511484
-511485
-511584
-511514
-511622
-511637
-511643
-511710
-511731
-511697
-511764
-511765
-511817
-511824
-511953
-511913
-511898
-511990
-511932
-511994
-511932
-511968
-511988
-511909
-512005
-512024
-512071
-512124
-512097
-512159
-512136
-512217
-512199
-512275
-512217
-512258
-512335
-512427
-512398
-512412
-512558
-512519
-512576
-512583
-512704
-512756
-512705
-512736
-512729
-512772
-512843
-512964
-512978
-512963
-513022
-512922
-512977
-513113
-513101
-513132
-513182
-513254
-513241
-513295
-513233
-513567
-513470
-513456
-513338
-513349
-513321
-513402
-513520
-513481
-513499
-513557
-513615
-513609
-513623
-513689
-513691
-513688
-513744
-513857
-513865
-513907
-513918
-513896
-513862
-513971
-514032
-514054
-514156
-514096
-514064
-514186
-514122
-514248
-514249
-514185
-514241
-514287
-514306
-514354
-514381
-514421
-514533
-514504
-514605
-514585
-514653
-514732
-514725
-514822
-514904
-514886
-514984
-514978
-515083
-515085
-515170
-515138
-515144
-515294
-515295
-515346
-515369
-515352
-515523
-515558
-515577
-515648
-515702
-515795
-515813
-515819
-515731
-515780
-515717
-515726
-515603
-515519
-515377
-515257
-515019
-514827
-514622
-514377
-513960
-513655
-513279
-512947
-512566
-512143
-511948
-511406
-510856
-510432
-509934
-509455
-508978
-508503
-508128
-507649
-507133
-506727
-506293
-505874
-505503
-505123
-504671
-504173
-503923
-503565
-503255
-502951
-502570
-502282
-502061
-501845
-501599
-501362
-501183
-501173
-501025
-500877
-500804
-500716
-500594
-500549
-500614
-500471
-500528
-500590
-500508
-500528
-500545
-500619
-500673
-500760
-500833
-500829
-500905
-501043
-501085
-501256
-501298
-501408
-501524
-501570
-501701
-501898
-501978
-501990
-502113
-502152
-502246
-502359
-502379
-502460
-502483
-502596
-502580
-502631
-502665
-502675
-502733
-502782
-502781
-502833
-502721
-502743
-502807
-502780
-502792
-502680
-502782
-502761
-502654
-502727
-502582
-502615
-502603
-502579
-502521
-502480
-502427
-502430
-502486
-502524
-502449
-502473
-502459
-502532
-502586
-502518
-502522
-502558
-502691
-502770
-502773
-502810
-502816
-502898
-503063
-503158
-503231
-503262
-503446
-503557
-503603
-503626
-503686
-503772
-503821
-503908
-503992
-504021
-504072
-504148
-504052
-504187
-504299
-504246
-504263
-504256
-504356
-504395
-504346
-504429
-504369
-504440
-504379
-504442
-504457
-504394
-504377
-504371
-504346
-504242
-504190
-504176
-504177
-504081
-504028
-504009
-503951
-503902
-503860
-503779
-503698
-503646
-503672
-503558
-503599
-503438
-503466
-503375
-503400
-503319
-503293
-503294
-503267
-503263
-503300
-503295
-503310
-503341
-503390
-503474
-503442
-503441
-503459
-503490
-503577
-503582
-503725
-503665
-503776
-503808
-503748
-503813
-503944
-504019
-504137
-504091
-504208
-504314
-504387
-504464
-504435
-504561
-504604
-504729
-504739
-504848
-504994
-504879
-505039
-505115
-505104
-505163
-505283
-505345
-505473
-505435
-505538
-505671
-505758
-505813
-505796
-505914
-505965
-506016
-506116
-506099
-506220
-506356
-506338
-506405
-506432
-506606
-506610
-506689
-506816
-506842
-506863
-506940
-507034
-507061
-507014
-507202
-507317
-507279
-507319
-507291
-507434
-507479
-507456
-507524
-507473
-507550
-507648
-507810
-508139
-507870
-507889
-507891
-507923
-507922
-507904
-508076
-508036
-508199
-508261
-508175
-508326
-508353
-508355
-508451
-508490
-508500
-508673
-508660
-508674
-508740
-508824
-508807
-508874
-509071
-508995
-509081
-509099
-509135
-509305
-509200
-509341
-509421
-509340
-509467
-509440
-509507
-509601
-509665
-509764
-509739
-509796
-509863
-509904
-510023
-510033
-510117
-510108
-510191
-510288
-510301
-510334
-510331
-510342
-510415
-510462
-510402
-510324
-510486
-510614
-510616
-510740
-510609
-510567
-510765
-510803
-510891
-510855
-510910
-510948
-510922
-511052
-511085
-511008
-511062
-511093
-511099
-511102
-511088
-511188
-511151
-511206
-511200
-511314
-511301
-511222
-511355
-511373
-511287
-511349
-511385
-511455
-511715
-511565
-511598
-511587
-511634
-511520
-511617
-511690
-511721
-511565
-511729
-511714
-511763
-511706
-511784
-511770
-511819
-511817
-511792
-511638
-511853
-511851
-511852
-511886
-511898
-511931
-511961
-512001
-512005
-512103
-512245
-512284
-512217
-512323
-512396
-512530
-512528
-512578
-512659
-512690
-512788
-512775
-512742
-512813
-512987
-513015
-513164
-513203
-513312
-513427
-513400
-513565
-513526
-513502
-513558
-513353
-513235
-512926
-512636
-512399
-512083
-511934
-511405
-510914
-510426
-509954
-509532
-508997
-508454
-507912
-507331
-506801
-506254
-505654
-505124
-504544
-504116
-503621
-503174
-502668
-502234
-501634
-501468
-501292
-500543
-500125
-499663
-499302
-498944
-498579
-498239
-497961
-497610
-497440
-497115
-496879
-496744
-496533
-496380
-496239
-496140
-496081
-496004
-495918
-495877
-495883
-495962
-495843
-495943
-495984
-496037
-496053
-496088
-496163
-496277
-496428
-496579
-496686
-496817
-497038
-497037
-497231
-497288
-497357
-497465
-497460
-497589
-497619
-497792
-497878
-498295
