PPG
-414744
-414891
-414960
-415074
-414797
-414837
-414996
-415130
-415165
-414915
-414991
-415084
-415194
-415270
-415120
-415155
-415296
-415307
-415382
-415181
-415123
-415258
-415301
-415237
-415008
-415045
-414999
-414998
-414881
-414538
-414274
-414281
-414155
-413987
-413578
-413309
-413248
-413079
-412936
-412429
-412152
-412015
-411903
-411780
-411349
-411124
-411050
-410859
-410793
-410425
-410152
-410231
-410032
-410069
-409711
-409477
-409598
-409493
-409525
-409261
-409069
-409242
-409206
-409230
-409231
-408911
-409009
-409050
-409058
-408876
-408829
-408958
-409093
-409137
-408930
-408883
-409048
-409113
-409190
-409112
-408968
-409218
-409245
-409365
-409219
-409114
-409332
-409380
-409471
-409369
-409202
-409368
-409436
-409587
-409335
-409257
-409475
-409484
-409492
-409408
-409242
-409380
-409466
-409553
-409391
-409312
-409411
-409406
-409512
-409329
-409197
-409308
-409350
-409361
-409199
-409001
-409249
-409315
-409416
-409160
-409047
-409242
-409316
-409442
-409333
-409194
-409422
-409492
-409587
-409486
-409324
-409496
-409623
-409744
-409680
-409517
-409776
-409820
-409934
-409890
-409820
-410059
-410169
-410325
-410212
-410182
-410418
-410400
-410555
-410542
-410393
-410655
-410741
-410825
-410694
-410588
-410843
-410783
-410969
-410923
-410743
-410926
-410977
-411009
-410875
-410735
-410849
-410776
-410943
-410801
-410555
-410662
-410713
-410785
-410550
-410394
-410827
-410663
-410746
-410598
-410417
-410582
-410701
-410770
-410687
-410486
-410656
-410749
-410872
-410790
-410673
-410869
-410938
-411072
-411046
-410959
-411104
-411220
-411350
-411419
-411220
-411420
-411620
-411712
-411637
-411541
-411825
-411843
-412055
-411964
-411825
-411918
-412095
-412289
-412195
-412072
-412278
-412350
-412515
-412500
-412258
-412479
-412571
-412636
-412662
-412457
-412741
-412796
-412923
-412949
-412766
-412976
-413012
-413197
-413183
-413022
-413191
-413307
-413395
-413416
-413272
-413475
-413526
-413685
-413578
-413439
-413570
-413660
-413762
-413660
-413450
-413603
-413581
-413659
-413572
-413310
-413487
-413549
-413646
-413519
-413308
-413403
-413456
-413495
-413459
-413301
-413392
-413487
-413496
-413544
-413388
-413545
-413605
-413615
-413633
-413480
-413565
-413577
-413587
-413646
-413378
-413568
-413613
-413673
-413420
-413558
-413626
-413766
-413760
-413503
-413779
-413809
-413908
-413971
-413784
-413912
-413855
-413976
-413983
-413745
-413975
-414073
-414090
-414129
-413894
-414086
-414145
-414238
-414271
-414094
-414260
-414388
-414432
-414531
-414359
-414604
-414835
-414813
-414580
-414806
-414718
-414861
-414561
-414784
-414882
-414914
-414946
-414681
-414811
-414877
-414888
-414947
-414894
-414972
-414892
-414837
-414872
-414820
-414854
-414695
-414786
-414779
-414801
-414837
-414584
-414769
-414877
-414895
-414953
-414722
-414988
-415020
-415134
-415230
-414933
-415083
-415153
-415140
-415291
-415148
-415298
-415365
-415482
-415506
-415295
-415497
-415552
-415648
-415669
-415417
-415694
-415695
-415653
-415695
-415410
-415513
-415416
-415310
-415208
-414785
-414849
-414731
-414599
-414460
-414044
-414026
-413889
-413788
-413566
-413368
-413211
-413032
-412895
-412867
-412359
-412449
-412241
-412115
-412062
-411715
-411797
-411753
-411757
-411661
-411400
-411610
-411547
-411570
-411637
-411397
-411669
-411721
-411765
-411899
-411758
-412018
-412180
-412290
-412481
-412268
-412515
-412543
-412630
-412762
-412559
-412783
-412861
-412905
-412943
-412714
-412995
-413081
-413246
-413245
-413085
-413465
-413523
-413648
-413810
-413629
-413921
-414010
-414147
-414333
-414136
-414420
-414555
-414944
-414963
-414709
-414988
-415117
-415263
-415370
-415219
-415431
-415521
-415618
-415732
-415564
-415813
-415873
-415912
-416040
-415763
-415925
-415959
-416032
-416105
-415763
-416122
-416223
-416353
-416510
-416299
-416521
-416660
-416800
-417003
-416950
-417241
-417421
-417604
-417817
-417630
-417931
-418109
-418296
-418475
-418407
-418692
-418836
-418955
-419119
-418943
-419206
-419276
-419420
-419577
-419453
-419698
-419729
-419847
-419885
-419677
-419805
-419926
-419898
-419983
-419715
-419809
-419891
-419841
-419934
-419626
-419848
-419875
-419832
-419923
-419826
-419989
-420050
-420144
-420242
-420005
-420209
-420228
-420326
-420445
-420210
-420404
-420493
-420517
-420527
-420383
-420577
-420584
-420591
-420740
-420438
-420600
-420560
-420582
-420596
-420256
-420494
-420479
-420534
-420608
-420307
-420543
-420552
-420586
-420754
-420532
-420717
-420758
-420787
-420967
-420696
-420904
-420944
-421110
-421229
-421056
-421304
-421369
-421494
-421636
-421494
-421761
-421890
-421952
-422135
-422029
-422273
-422350
-422416
-422555
-422299
-422579
-422627
-422631
-422784
-422553
-422832
-422808
-422868
-422859
-422625
-422719
-422734
-422706
-422881
-422491
-422728
-422866
-422881
-422947
-422686
-422836
-422825
-422782
-422948
-422741
-422996
-423006
-423004
-423123
-422742
-423033
-423067
-423123
-423237
-423047
-423107
-423167
-423184
-423263
-422952
-423081
-423137
-423028
-423117
-422789
-422914
-422911
-422892
-422862
-422612
-422748
-422672
-422696
-422702
-422397
-422564
-422683
-422781
-422769
-422492
-422639
-422711
-422848
-422899
-422629
-422846
-422926
-422965
-423069
-422840
-423062
-423113
-423175
-423296
-423052
-423249
-423208
-423150
-423299
-423129
-423275
-423283
-423386
-423432
-423180
-423309
-423399
-423437
-423461
-423229
-423448
-423498
-423551
-423571
-423325
-423537
-423625
-423748
-423785
-423571
-423798
-423877
-423957
-424084
-423837
-424114
-424180
-424238
-424340
-424194
-424333
-424433
-424500
-424593
-424352
-424508
-424613
-424696
-424771
-424575
-424732
-424737
-424764
-424780
-424594
-424720
-424744
-424798
-424785
-424500
-424682
-424683
-424745
-424779
-424467
-424588
-424702
-424662
-424639
-424317
-424590
-424609
-424657
-424692
-424535
-424719
-424803
-424863
-424897
-424621
-424777
-424880
-424861
-424955
-424737
-424943
-424983
-424994
-425047
-424803
-424904
-424985
-424949
-424848
-424521
-424450
-424409
-424286
-424024
-423980
-423633
-423266
-423010
-422748
-422203
-422054
-421841
-421489
-421252
-420704
-420472
-420329
-420038
-419820
-419342
-419214
-419086
-418867
-418771
-418306
-418264
-418160
-418028
-417985
-417648
-417640
-417693
-417714
-417614
-417319
-417370
-417374
-417451
-417525
-417365
-417352
-417363
-417357
-417305
-417101
-417302
-417343
-417321
-417355
-417139
-417214
-417327
-417321
-417386
-417144
-417257
-417304
-417372
-417362
-417153
-417287
-417379
-417505
-417547
-417373
-417522
-417612
-417709
-417759
-417557
-417738
-417875
-417943
-418018
-417912
-418048
-418215
-418287
-418428
-418227
-418352
-418572
-418635
-418788
-418578
-418696
-418880
-418952
-419038
-418774
-418846
-419320
-419151
-419235
-419003
-419102
-419283
-419411
-419508
-419341
-419426
-419556
-419722
-419841
-419725
-419867
-419989
-420135
-420296
-420118
-420227
-420427
-420591
-420659
-420519
-420647
-420895
-421063
-421130
-420962
-421019
-421198
-421283
-421462
-421231
-421345
-421527
-421587
-421679
-421507
-421500
-421619
-421734
-421723
-421472
-421533
-421629
-421680
-421753
-421547
-421514
-421669
-421706
-421733
-421506
-421482
-421570
-421660
-421758
-421615
-421574
-421678
-421779
-421830
-421626
-421690
-421833
-421837
-421735
-421670
-421635
-421769
-421860
-421980
-421774
-421800
-421998
-422115
-422234
-422113
-422129
-422274
-422349
-422473
-422282
-422235
-422373
-422451
-422499
-422423
-422333
-422503
-422558
-422610
-422523
-422426
-422576
-422778
-422852
-422737
-422750
-422923
-423076
-423187
-423111
-423135
-423372
-423476
-423669
-423559
-423569
-423799
-423988
-424144
-424011
-423929
-424177
-424286
-424446
-424257
-424287
-424546
-424675
-424875
-424742
-424785
-424966
-425084
-425181
-425006
-424958
-425195
-425334
-425421
-425268
-425198
-425442
-425589
-425671
-425586
-425555
-425734
-425818
-425609
-425712
-425749
-426069
-426111
-426268
-426148
-426029
-426309
-426429
-426577
-426448
-426303
-426460
-426485
-426617
-426448
-426345
-426481
-426653
-426682
-426483
-426501
-426625
-426727
-426756
-426661
-426516
-426647
-426658
-426691
-426571
-426371
-426642
-426761
-426810
-426647
-426606
-426844
-426727
-426943
-427026
-427133
-426993
-426941
-427206
-427334
-427444
-427409
-427303
-427533
-427722
-427787
-427742
-427706
-427919
-428112
-428152
-428117
-428110
-428261
-428331
-428546
-428497
-428412
-428645
-428837
-428910
-428914
-428724
-429008
-429056
-429178
-429062
-428958
-429226
-429318
-429405
-429358
-429268
-429539
-429668
-429787
-429756
-429609
-429833
-429981
-430101
-430034
-429883
-430175
-430249
-430340
-430225
-430028
-430350
-430436
-430564
-430501
-430369
-430437
-430545
-430678
-430549
-430236
-430344
-430394
-430350
-430047
-429560
-429467
-429411
-429293
-428867
-428459
-428288
-428052
-427857
-427429
-426879
-426734
-426514
-426368
-426037
-425479
-425471
-425248
-425178
-424862
-424433
-424515
-424375
-424312
-424111
-423826
-423853
-423850
-423883
-423735
-423496
-423628
-423636
-423672
-423588
-423423
-423542
-423976
-423817
-423717
-423594
-423752
-423859
-423942
-423877
-423702
-423957
-423982
-424115
-424063
-423884
-424209
-424227
-424298
-424310
-424102
-424210
-424505
-424610
-424611
-424423
-424733
-424798
-424936
-424967
-424839
-425014
-425132
-425284
-425377
-425172
-425427
-425567
-425665
-425699
-425548
-425762
-425889
-426102
-426082
-425948
-426144
-426262
-426406
-426357
-426216
-426454
-426541
-426665
-426609
-426427
-426619
-426759
-426819
-426860
-426658
-426905
-427025
-427088
-427223
-426946
-427165
-427239
-427373
-427447
-427313
-427555
-427631
-427735
-427745
-427527
-427813
-427927
-428071
-428012
-427837
-428071
-428147
-428241
-428236
-428035
-428190
-428291
-428338
-428337
-428164
-428311
-428306
-428357
-428337
-428164
-428354
-428333
-428407
-428349
-428081
-428292
-428282
-428386
-428427
-428162
-428355
-428346
-428320
-428423
-428122
-428304
-428294
-428440
-428418
-428132
-428291
-428364
-428428
-428375
-428105
-428281
-428405
-428371
-428349
-428196
-428300
-428393
-428395
-428482
-428181
-428482
-428437
-428493
-428469
-428144
-428345
-428405
-428415
-428394
-428535
-428546
-428528
-428460
-428519
-428219
-428431
-428446
-428556
-428590
-428368
-428673
-428580
-428764
-428869
-428582
-428817
-428823
-428900
-428982
-428769
-429020
-429111
-429163
-429250
-429025
-429253
-429301
-429357
-429368
-429135
-429386
-429477
-429494
-429608
-429314
-429583
-429556
-429584
-429636
-429408
-429622
-429657
-429757
-429776
-429558
-429773
-429774
-429911
-429998
-429817
-429963
-430032
-430131
-430204
-430063
-430364
-430371
-430431
-430531
-430226
-430477
-430584
-430701
-430789
-430556
-430759
-430831
-430917
-430991
-431096
-431181
-431057
-431157
-431145
-430893
-431109
-431197
-431194
-431263
-431047
-431225
-431275
-431292
-431396
-431086
-431264
-431347
-431335
-431392
-431197
-431369
-431519
-431591
-431638
-431398
-431693
-431711
-431753
-431872
-431635
-431895
-431890
-431957
-432048
-431846
-432065
-432071
-432138
-432144
-431897
-432118
-432130
-432176
-432201
-432047
-432224
-432235
-432196
-432172
-431989
-432091
-432088
-432341
-432066
-431625
-431665
-431447
-431362
-430932
-430586
-430443
-430288
-429962
-429772
-429343
-429196
-428850
-428399
-428276
-427716
-427596
-427343
-427104
-426803
-426284
-426300
-426144
-426003
-425834
-425371
-425422
-425372
-425261
-425184
-424810
-424820
-424860
-424757
-424760
-424486
-424638
-424622
-424598
-424519
-424305
-424505
-424507
-424546
-424652
-424393
-424574
-424627
-424680
-424634
-424473
-424726
-424819
-424880
-424982
-424766
-425011
-424904
-425180
-425268
-424993
-425202
-425339
-425427
-425510
-425303
-425567
-425676
-425722
-426079
-425609
-425884
-425914
-426035
-426164
-425982
-426155
-426223
-426342
-426409
-426124
-426285
-426348
-426402
-426421
-426299
-426451
-426556
-426623
-426610
-426379
-426564
-426673
-426829
-426929
-426686
-426912
-427009
-427148
-427206
-427062
-427198
-427299
-427400
-427521
-427337
-427614
-427650
-427768
-427801
-427630
-427810
-427970
-428004
-428111
-427901
-428160
-428221
-428219
-428229
-428004
-428189
-428234
-428279
-428343
-428157
-428338
-428356
-428389
-428519
-428288
-428399
-428427
-428420
-428576
-428230
-428397
-428432
-428467
-428501
-428229
-428465
-428564
-428510
-428636
-428373
-428482
-428494
-428519
-428618
-428303
-428519
-428610
-428567
-428683
-428348
-428577
-428543
-428562
-428681
-428440
-428584
-428567
-428663
-428700
-428396
-428497
-428484
-428561
-428641
-428251
-428494
-428605
-428654
-428726
-428480
-428669
-428693
-428757
-428819
-428583
-428798
-428849
-428879
-429032
-428794
-428953
-429051
-429134
-429196
-429004
-429207
-429259
-429397
-429440
-429183
-429352
-429522
-429532
-429573
-429337
-429534
-429587
-429620
-429780
-429518
-429761
-429813
-429897
-429923
-429704
-429829
-429923
-429947
-430086
-429844
-430052
-430067
-430102
-430187
-429875
-430117
-430208
-430284
-430367
-430196
-430376
-430412
-430447
-430429
-430301
-430430
-430511
-430570
-430874
-430490
-430562
-430627
-430608
-430700
-430459
-430652
-430711
-430700
-430763
-430516
-430686
-430735
-430734
-430834
-430490
-430728
-430789
-430790
-430841
-430870
-430801
-430825
-430826
-430880
-430693
-430845
-430911
-430982
-431028
-430791
-430933
-431076
-431174
-431178
-431025
-431286
-431331
-431368
-431488
-431308
-431489
-431522
-431672
-431709
-431555
-431676
-431754
-431842
-431901
-431648
-431786
-431857
-431997
-431942
-431665
-431794
-431773
-431657
-431564
-431175
-431177
-431021
-430828
-430582
-430097
-429910
-429720
-429503
-429286
-428661
-428527
-428262
-428076
-427775
-427316
-427264
-427099
-427064
-426739
-426270
-426281
-426101
-426012
-425870
-425477
-425494
-425475
-425371
-425323
-425034
-425096
-425081
-424996
-425052
-424817
-424885
-424912
-425055
-425026
-424835
-424960
-425050
-425085
-425202
-424899
-425079
-425156
-425221
-425250
-425110
-425297
-425735
-425695
-425618
-425481
-425628
-425761
-425832
-425960
-425833
-425950
-426132
-426274
-426336
-426127
-426336
-426513
-426551
-426731
-426529
-426624
-426748
-426904
-427061
-426835
-426920
-427041
-427133
-427222
-427068
-427180
-427272
-427335
-427455
-427300
-427437
-427620
-427694
-427842
-427547
-427725
-427844
-427983
-428143
-427972
-428186
-428264
-428306
-428355
-428274
-428409
-428555
-428539
-428717
-428619
-428735
-428851
-428941
-429047
-428853
-428987
-429071
-429216
-429236
-429138
-429134
-429266
-429339
-429471
-429246
-429297
-429304
-429456
-429567
-429377
-429418
-429557
-429575
-429699
-429444
-429456
-429583
-429716
-429626
-429492
-429611
-429670
-429585
-429699
-429486
-429508
-429720
-429730
-429817
-429525
-429594
-429664
-429655
-429696
-429529
-429526
-429652
-429655
-429717
-429516
-429464
-429604
-429653
-429660
-429372
-429470
-429628
-429670
-429663
-429502
-429498
-429573
-429628
-429658
-429535
-429510
-429690
-429745
-430039
-429653
-429633
-429801
-429836
-429946
-429740
-429726
-429848
-429932
-429988
-429931
-429883
-430043
-430133
-430245
-430012
-430054
-430219
-430314
-430408
-430235
-430307
-430410
-430456
-430551
-430379
-430408
-430559
-430660
-430794
-430607
-430637
-430735
-430778
-430958
-430649
-430715
-430910
-431103
-431199
-431018
-430979
-431246
-431252
-431379
-431149
-431156
-431360
-431409
-431532
-431298
-431308
-431469
-431561
-431687
-431472
-431490
-431686
-431754
-431808
-431562
-431544
-431708
-431887
-431968
-431757
-431690
-431882
-432034
-432132
-431876
-431861
-432025
-432111
-432182
-432059
-432048
-432210
-432240
-432424
-432241
-432184
-432402
-432458
-432604
-432461
-432407
-432676
-432742
-432837
-432592
-432641
-432833
-432923
-433032
-432877
-433027
-433059
-433107
-433184
-433083
-433247
-433148
-433227
-433298
-433061
-432991
-433199
-433277
-433391
-433228
-433161
-433350
-433504
-433512
-433600
-433360
-433537
-433586
-433677
-433500
-433433
-433609
-433686
-433629
-433460
-433330
-433410
-433388
-433364
-432969
-432705
-432606
-432414
-432200
-431832
-431395
-431248
-431023
-430871
-430356
-429864
-429746
-429515
-429357
-428860
-428495
-428381
-428152
-428048
-427759
-427357
-427322
-427199
-427087
-426832
-426532
-426622
-426543
-426565
-426357
-426138
-426290
-426306
-426347
-426094
-426012
-426021
-426256
-426380
-426227
-426127
-426312
-426422
-426474
-426410
-426309
-426572
-426701
-426815
-426760
-426644
-426805
-426927
-427110
-427006
-426963
-427229
-427366
-427541
-427542
-427338
-427519
-427706
-427959
-427864
-427735
-427999
-428139
-428315
-428244
-428127
-428365
-428539
-428716
-428656
-428527
-428751
-428936
-429104
-429067
-428915
-429178
-429332
-429444
-429401
-429193
-429571
-429647
-429801
-429806
-429594
-429890
-430022
-430135
-430163
-429954
-430194
-430303
-430525
-430529
-430397
-430573
-430735
-430821
-430884
-430722
-430955
-430978
-431143
-431103
-430863
-431052
-431163
-431291
-431289
-431418
-431362
-431401
-431480
-431415
-431295
-431379
-431484
-431468
-431449
-431280
-431467
-431480
-431534
-431485
-431330
-431503
-431536
-431561
-431555
-431282
-431474
-431521
-431622
-431589
-431250
-431485
-431476
-431463
-431508
-431274
-431453
-431467
-431521
-431512
-431283
-431428
-431367
-431542
-431506
-431229
-431431
-431422
-431489
-431479
-431220
-431315
-431417
-431442
-431429
-431224
-431305
-431368
-431473
-431469
-431505
-431482
-431266
-431419
-431504
-431588
-431544
-431371
-431579
-431596
-431684
-431696
-431540
-431664
-431747
-431803
-431853
-431644
-431827
-431830
-431974
-432011
-431718
-431931
-432008
-432100
-432087
-431890
-432071
-432180
-432210
-432197
-431955
-432161
-432223
-432286
-432330
-432134
-432320
-432347
-432420
-432416
-432280
-432513
-432529
-432592
-432661
-432447
-432675
-432715
-432831
-432867
-432667
-432865
-432892
-432970
-433007
-432776
-432985
-433117
-433190
-433245
-432907
-433174
-433319
-433379
-433450
-433227
-433506
-433445
-433393
-433492
-433387
-433632
-433614
-433637
-433772
-433581
-433760
-433834
-433897
-433925
-433721
-433960
-433978
-434473
-434268
-433863
-434044
-434116
-434089
-434107
-433888
-434219
-434292
-434304
-434391
-434139
-434332
-434445
-434421
-434516
-434310
-434504
-434536
-434552
-434662
-434518
-434682
-434735
-434781
-434720
-434587
-434788
-434840
-434933
-434940
-434813
-435068
-435023
-435095
-435130
-434974
-435156
-435132
-435267
-435305
-435163
-435283
-435352
-435350
-435326
-434965
-435071
-434997
-434940
-434803
-434277
-434229
-434044
-433832
-433635
-433070
-432900
-432605
-432347
-432093
-431528
-431411
-431060
-430799
-430562
-430048
-429943
-429748
-429567
-429415
-428934
-429044
-428875
-428680
-428539
-428149
-428270
-428129
-428073
-428091
-427718
-427877
-427776
-427851
-427862
-427532
-427651
-427711
-427777
-427756
-427560
-427745
-427799
-427880
-428298
-427822
-428027
-428016
-428122
-428139
-428043
-428260
-428420
-428499
-428580
-428373
-428685
-428684
-428781
-428937
-428731
-428964
-429050
-429073
-429208
-429054
-429321
-429398
-429483
-429535
-429401
-429707
-429749
-429777
-429925
-429730
-429964
-430038
-430130
-430217
-430084
-430277
-430294
-430405
-430532
-430385
-430551
-430674
-430710
-430813
-430614
-430879
-430970
-431128
-431224
-431026
-431232
-431317
-431400
-431474
-431217
-431482
-431572
-431982
-431871
-431542
-431665
-431762
-431758
-432180
-431734
-431918
-431920
-431971
-431871
-431703
-431971
-432017
-432078
-432105
-431804
-432016
-432063
-432178
-432133
-431843
-432037
-432090
-432083
-432205
-431929
-432008
-432035
-432001
-432071
-431841
-431935
-431925
-432005
-432058
-431787
-431951
-431852
-431901
-431863
-431608
-431788
-431783
-431778
-431768
-431462
-431636
-431688
-431723
-431626
-431463
-431652
-431662
-431650
-431585
-431396
-431502
-431544
-431606
-431617
-431334
-431519
-431585
-431631
-431491
-431354
-431660
-431581
-431598
-431717
-431436
-431592
-431687
-431678
-431779
-431585
-431812
-431750
-431911
-431971
-431687
-431897
-431974
-432082
-432130
-431937
-432006
-432160
-432170
-432254
-432083
-432274
-432346
-432446
-432519
-432340
-432455
-432491
-432581
-432766
-432520
-432739
-432724
-432787
-432896
-432614
-432830
-432797
-432899
-432990
-432726
-432997
-433022
-433042
-433159
-432864
-433052
-433095
-433151
-433226
-433052
-433269
-433293
-433361
-433402
-433189
-433379
-433412
-433470
-433493
-433246
-433225
-433474
-433524
-433587
-433367
-433575
-433583
-433601
-433718
-433478
-433649
-433678
-433752
-433890
-433666
-433817
-433871
-433916
-434019
-433799
-433964
-434388
-434202
-434192
-433959
-434184
-434178
-434249
-434363
-434076
-434227
-434339
-434347
-434468
-434196
-434435
-434538
-434558
-434619
-434362
-434496
-434605
-434639
-434724
-434508
-434713
-434784
-434749
-434896
-434639
-434813
-434929
-434975
-434722
-434964
-434954
-434958
-435046
-434842
-434997
-434968
-434974
-434964
-434710
-434860
-434795
-434693
-434613
-434228
-434182
-434045
-433812
-433644
-433178
-433082
-432773
-432566
-432334
-431773
-431614
-431386
-431080
-430906
-430503
-430440
-430192
-429906
-429694
-429164
-429079
-429028
-428879
-428757
-428287
-428212
-428237
-428141
-428000
-427683
-427708
-427766
-427697
-427547
-427301
-427493
-427613
-427651
-427697
-427483
-427664
-427713
-427822
-427940
-427783
-428104
-428115
-428174
-428312
-428153
-428371
-428578
-428674
-428810
-428663
-428895
-428883
-429026
-429185
-429045
-429333
-429394
-429583
-429763
-429505
-429725
-429836
-429910
-429996
-429916
-430100
-430194
-430321
-430465
-430270
-430497
-430628
-430720
-430859
-430760
-430954
-431102
-431204
-431266
-431173
-431382
-431538
-431605
-431977
-432097
-431966
-432173
-432289
-432389
-432469
-432298
-432459
-432421
-432583
-432722
-432537
-432712
-432812
-432873
-432948
-432764
-432915
-433018
-433085
-433047
-432903
-433010
-433037
-433078
-433187
-432890
-433063
-433071
-433227
-433220
-432960
-433054
-433204
-433216
-433371
-433112
-433208
-433296
-433346
-433466
-433201
-433262
-433351
-433396
-433443
-433280
-433326
-433446
-433507
-433527
-433340
-433354
-433396
-433449
-433541
-433274
-433294
-433427
-433387
-433425
-433207
-433136
-433257
-433280
-433291
-433080
-433103
-433217
-433225
-433307
-433115
-433153
-433213
-433332
-433378
-433153
-433133
-433290
-433400
-433415
-433254
-433354
-433472
-433564
-433616
-433406
-433444
-433616
-433666
-433740
-433512
-433600
-433712
-433756
-433801
-433663
-433750
-433843
-433971
-433996
-433860
-433924
-434050
-434109
-434173
-434005
-433957
-434071
-434158
-434265
-434139
-434156
-434283
-434375
-434459
-434294
-434384
-434521
-434605
-434790
-434527
-434585
-434871
-434909
-435027
-434726
-434767
-435073
-435233
-435281
-435189
-435197
-435447
-435550
-435628
-435424
-435505
-435708
-435820
-435835
-435747
-435761
-435936
-436041
-436179
-435912
-435893
-436066
-436195
-436322
-436151
-436080
-436298
-436407
-436528
-436361
-436362
-436521
-436642
-436720
-436547
-436608
-436791
-436876
-436980
-436875
-436857
-437066
-437149
-437313
-437164
-437028
-437283
-437410
-437539
-437397
-437390
-437511
-437570
-437756
-437622
-437517
-437770
-437790
-437906
-437723
-437667
-437860
-437932
-438025
-437776
-437616
-437793
-437783
-437658
-437467
-437255
-437248
-437137
-436895
-436559
-436117
-435994
-435697
-435421
-435036
-434596
-434374
-434166
-433984
-433484
-433092
-432822
-432548
-432087
-431766
-431670
-431486
-431364
-431055
-430835
-430883
-430776
-430627
-430320
-430138
-430250
-430230
-430265
-430039
-429806
-430016
-430055
-430129
-429943
-429783
-429958
-430047
-430061
-429979
-429850
-430091
-430169
-430287
-430109
-430079
-430265
-430359
-430572
-430477
-430377
-430578
-430767
-430825
-430830
-430742
-430973
-431140
-431329
-431145
-431106
-431289
-431481
-431572
-431444
-431378
-431555
-431730
-431851
-431749
-431653
-431849
-431988
-432144
-432098
-432019
-432250
-432292
-432509
-432421
-432166
-432493
-432630
-432734
-432758
-432581
-432832
-432895
-433025
-432987
-432837
-433120
-433207
-433328
-433276
-433106
-433358
-433452
-433565
-433567
-433393
-433606
-433708
-433895
-433758
-433569
-433794
-433928
-434025
-433937
-433736
-433914
-433987
-434076
-433981
-433757
-433945
-434098
-434111
-433981
-433859
-433975
-434101
-434456
-434108
-433822
-433973
-433940
-434023
-433951
-433799
-433912
-433901
-433950
-433829
-433635
-433766
-433698
-433859
-433781
-433501
-433654
-433662
-433686
-433658
-433440
-433655
-433649
-433616
-433527
-433324
-433510
-433502
-433621
-433431
-433114
-433338
-433418
-433433
-433394
-433142
-433359
-433360
-433414
-433379
-433175
-433337
-433364
-433456
-433367
-433216
-433327
-433359
-433452
-433376
-433210
-433385
-433407
-433539
-433375
-433272
-433389
-433487
-433565
-433573
-433326
-433508
-433630
-433682
-433719
-433496
-433664
-433701
-433776
-433754
-433595
-433800
-433833
-433995
-433919
-433712
-433840
-433972
-434036
-434009
-433791
-434070
-434094
-434173
-434112
-433880
-434169
-434185
-434288
-434297
-434067
-434335
-434356
-434492
-434518
-434349
-434491
-434538
-434758
-434777
-434493
-434640
-434822
-434921
-434941
-434702
-434835
-434943
-435094
-435101
-434898
-435095
-435131
-435224
-435269
-435023
-435182
-435327
-435354
-435371
-435165
-435260
-435329
-435429
-435419
-435232
-435390
-435467
-435513
-435471
-435221
-435427
-435414
-435596
-435700
-435372
-435562
-435641
-435681
-435767
-435478
-435692
-435723
-435750
-435764
-435526
-435629
-435677
-435592
-435606
-435188
-435167
-435038
-434903
-434773
-434105
-434028
-433814
-433490
-433202
-432636
-432480
-432064
-431951
-431568
-430932
-430845
-430480
-430267
-430047
-429560
-429475
-429261
-429015
-428719
-428355
-428357
-428223
-428140
-428015
-427590
-427720
-427654
-427589
-427484
-427189
-427305
-427253
-427317
-427327
-427052
-427190
-427176
-427199
-427285
-427002
-427199
-427260
-427389
-427444
-427213
-427592
-427596
-427590
-427644
-427461
-427792
-427803
-427847
-427990
-427768
-428013
-428057
-428129
-428225
-427998
-428270
-428342
-428427
-428462
-428282
-428461
-428582
-428592
-428649
-428556
-428765
-428859
-428914
-428959
-428788
-429040
-429134
-429138
-429272
-429100
-429272
-429348
-429432
-429459
-429244
-429524
-429563
-429665
-429812
-429606
-429870
-429961
-430044
-430111
-429835
-430138
-430237
-430263
-430414
-430223
-430432
-430380
-430543
-430638
-430387
-430543
-430606
-430696
-430788
-430800
-430522
-430765
-430761
-430797
-430780
-430561
-430821
-430828
-430819
-430885
-430596
-430747
-430769
-430757
-430780
-430490
-430564
-430630
-430755
-430786
-430529
-430723
-430630
-430681
-430697
-430407
-430531
-430566
-430590
-430536
-430232
-430441
-430409
-430541
-430368
-430233
-430381
-430388
-430387
-430429
-430126
-430287
-430256
-430353
-430388
-429976
-430213
-430238
-430321
-430334
-430064
-430283
-430237
-430262
-430221
-429985
-430257
-430250
-430262
-430318
-430121
-430410
-430442
-430387
-430542
-430256
-430401
-430453
-430464
-430532
-430302
-430433
-430500
-430619
-430691
-430397
-430644
-430681
-430691
-430857
-430608
-430842
-431218
-430993
-430994
-430759
-430975
-431071
-431110
-431272
-430875
-431043
-431101
-431248
-431299
-431076
-431258
-431286
-431347
-431423
-431152
-431377
-431405
-431391
-431398
-431392
-431617
-431674
-431631
-431571
-431386
-431754
-431786
-431742
-431920
-431542
-431724
-431789
-431870
-431954
-431705
-431870
-431969
-432060
-432059
-431824
-431947
-432017
-432094
-432121
-431925
-432114
-432152
-432261
-432360
-432069
-432304
-432296
-432453
-432486
-432268
-432456
-432451
-432528
-432646
-432240
-432449
-432626
-432679
-432695
-432543
-432707
-432655
-432697
-432687
-432352
-432552
-432535
-432452
-432296
-431975
-431955
-431772
-431542
-431363
-430809
-430709
-430352
-430067
-429866
-429244
-429115
-428765
-428509
-428255
-427668
-427535
-427231
-426985
-426814
-426285
-426172
-426019
-425835
-425716
-425217
-425216
-425103
-424989
-424927
-424541
-424602
-424559
-424552
-424592
-424298
-424315
-424357
-424387
-424413
-424211
-424403
-424417
-424524
-424603
-424344
-424590
-424627
-424658
-424774
-424491
-424772
-424871
-424892
-424958
-424732
-424945
-425066
-425096
-425214
-424985
-425211
-425233
-425312
-425417
-425280
-425509
-425533
-425643
-425709
-425476
-425716
-425747
-425840
-425976
-425753
-425945
-426088
-426093
-426198
-426086
-426241
-426381
-426389
-426448
-426191
-426469
-426525
-426653
-426601
-426518
-426638
-426755
-426822
-426891
-426635
-426854
-426901
-426969
-427017
-426815
-427024
-427081
-427137
-427117
-426991
-427187
-427314
-427334
-427367
-427135
-427279
-427348
-427385
-427467
-427235
-427429
-427508
-427554
-427627
-427376
-427495
-427598
-427632
-427671
-427398
-427608
-427562
-427601
-427574
-427347
-427471
-427454
-427529
-427630
-427197
-427483
-427526
-427641
-427428
-427200
-427283
-427339
-427311
-427302
-427038
-427194
-427171
-427235
-427212
-426929
-427095
-427122
-427110
-427157
-426904
-426976
-427024
-427094
-427122
-426832
-426956
-427008
-427058
-426981
-426657
-426884
-426938
-426905
-427077
-426835
-426930
-427060
-427120
-427191
-426918
-427123
-427195
-427249
-427307
-427048
-427207
-427300
-427321
-427409
-427157
-427299
-427332
-427418
-427459
-427194
-427327
-427486
-427480
-427605
-427399
-427466
-427558
-427655
-427510
-427441
-427662
-427763
-427852
-427913
-427811
-427826
-427871
-427930
-427971
-427793
-427883
-427956
-428087
-428101
-427910
-428027
-428154
-428232
-428294
-428087
-428217
-428293
-428388
-428430
-428200
-428282
-428378
-428500
-428592
-428342
-428452
-428513
-428584
-428695
-428429
-428550
-428594
-428673
-428744
-428487
-428678
-428755
-428733
-428818
-428583
-428716
-428831
-428878
-428917
-428747
-428885
-428874
-428983
-429041
-428862
-428861
-429010
-429139
-429179
-428989
-429023
-429030
-429147
-429160
-429031
-428994
-429194
-429190
-429278
-429009
-429440
-429353
-429382
-429463
-429249
-429280
-429420
-429457
-429545
-429365
-429349
-429460
-429518
-429599
-429306
-429212
-429255
-429262
-429149
-428775
-428669
-428522
-428400
-428249
-427699
-427398
-427214
-426943
-426665
-426184
-425867
-425667
-425337
-425066
-424552
-424231
-424108
-423696
-423497
-423162
-422931
-422769
-422638
-422469
-422077
-422184
-421911
-421688
-421457
-421207
-421167
-421161
-421082
-421115
-420813
-420757
-420846
-420832
-420948
-420684
-420647
-420819
-420829
-420933
-420695
-420756
-420975
-420997
-421093
-420925
-420911
-421176
-421284
-421388
-421205
-421192
-421389
-421491
-421541
-421443
-421478
-421735
-421764
-421887
-421726
-421712
-421922
-422077
-422242
-422038
-422045
-422096
-422220
-422345
-422233
-422232
-422417
-422478
-422576
-422481
-422338
-422587
-422661
-422770
-422842
-422614
-422727
-422815
-422853
-422762
-422681
-422863
-422949
-423033
-422872
-422809
-423054
-423155
-423274
-423138
-422958
-423150
-423226
-423326
-423241
-423100
-423212
-423292
-423405
-423249
-423124
-423186
-423315
-423499
-423328
-423150
-423320
-423335
-423388
-423243
-423190
-423359
-423378
-423483
-423270
-423109
-423308
-423296
-423351
-423132
-422985
-423142
-423411
-423272
-422843
-422796
-423000
-423009
-422990
-422808
-422697
-422751
-422850
-422779
-422681
-422605
-422678
-422694
-422776
-422566
-422425
-422589
-422665
-422747
-422572
-422436
-422633
-422590
-422752
-422607
-422451
-422626
-422636
-422738
-422533
-422402
-422621
-422697
-422717
-422887
-422559
-422720
-422848
-422888
-422787
-422623
-422753
-423157
-423077
-423216
-422766
-422951
-422982
-423082
-422989
-422834
-423039
-423089
-423168
-423040
-422939
-423147
-423176
-423351
-423197
-423068
-423222
-423303
-423403
-423380
-423182
-423373
-423409
-423552
-423442
-423225
-423782
-424010
-423766
-423616
-423434
-423555
-423608
-423752
-423570
-423405
-423678
-423658
-423661
-424079
-424037
-423868
-423788
-423871
-423850
-423577
-423759
-423779
-423881
-423830
-423647
-423872
-423956
-424040
-423903
-424003
-424032
-424010
-424096
-424017
-423804
-424385
-424294
-424243
-424145
-424164
-424160
-424215
-424272
-424224
-424068
-424239
-424294
-424196
-424227
-424059
-424278
-424346
-424455
-424385
-424160
-424334
-424427
-424485
-424436
-424181
-424349
-424368
-424502
-424389
-424197
-424403
-424790
-424660
-424568
-424327
-424469
-424507
-424626
-424554
-424308
-424557
-424556
-424663
-424886
-424434
-424538
-424444
-424675
-424828
-424516
-424691
-424734
-424806
-424808
-424560
-424730
-424801
-424844
-424859
-424734
-424925
-424995
-425016
-424988
-424849
-424959
-425102
-425227
-425557
-425085
-425150
-425271
-425293
-425369
-424961
-425277
-425105
-425010
-424795
-424419
-424380
-424153
-423910
-423619
-423175
-423060
-422763
-422455
-422138
-421598
-421394
-421076
-420690
-420547
-420022
-419810
-419541
-419357
-419072
-418480
-418392
-418197
-418116
-417870
-417401
-417405
-417250
-417153
-417181
-416793
-416821
-416696
-416713
-416644
-416371
-416485
-416493
-416508
-416547
-416283
-416508
-416893
-416718
-416724
-416491
-416718
-416698
-416888
-416990
-416782
-417100
-417225
-417248
-417338
-417171
-417404
-417487
-417564
-417748
-417619
-417710
-417814
-417993
-417985
-417805
-418054
-418113
-418190
-417973
-418272
-418378
-418468
-418237
-418432
-418584
-418592
-418710
-418479
-418622
-418659
-418769
-418879
-418646
-418869
-418895
-418992
-419042
-418850
-419127
-419130
-419141
-419270
-419030
-419350
-419362
-419401
-419459
-419262
-419487
-419544
-419646
-419616
-419460
-419616
-419658
-419693
-419724
-419538
-419690
-419731
-419774
-419744
-419526
-419845
-419837
-419805
-419880
-419623
-419757
-419803
-419934
-419910
-419643
-419859
-419937
-419951
-419887
-419790
-419969
-419938
-419982
-420075
-419755
-419968
-419985
-419994
-420045
-419739
-419912
-419961
-420022
-419986
-419739
-419963
-419945
-419995
-419925
-419728
-419904
-419969
-420024
-420028
-419733
-419949
-419939
-419969
-420034
-419676
-419862
-419886
-419837
-419925
-419643
-419923
-419925
-419903
-419982
-419690
-419874
-419852
-419893
-419986
-419715
-419935
-419956
-419980
-420003
-419825
-419960
-419973
-419980
-420082
-419802
-420051
-420124
-420132
-420172
-419985
-420124
-420223
-420217
-420129
-420028
-420263
-420250
-420294
-420411
-420157
-420355
-420371
-420398
-420420
-420201
-420430
-420498
-420502
-420597
-420382
-420626
-420706
-420663
-420800
-420602
-420836
-420813
-420858
-420945
-420765
-420956
-420995
-421095
-421100
-420921
-421133
-421182
-421194
-421343
-421113
-421382
-421345
-421482
-421447
-421194
-421392
-421480
-421483
-421509
-421320
-421463
-421513
-421594
-421595
-421337
-421538
-421597
-421542
-421603
-421242
-421491
-421521
-421460
-421522
-421297
-421519
-421504
-421568
-421591
-421387
-421573
-421533
-421654
-421652
-421431
-421594
-421599
-421626
-421734
-421419
-421652
-421693
-421683
-421795
-421538
-421672
-421667
-421686
-421705
-421482
-421701
-421723
-421810
-421899
-421610
-421803
-421828
-421819
-421896
-421770
-421993
-422051
-422040
-422169
-421906
-422134
-422167
-422215
-422271
-422083
-422289
-422333
-422297
-422385
-422253
-422393
-422418
-422473
-422533
-422315
-422533
-422544
-422631
-422647
-422493
-422651
-422733
-422704
-422867
-422528
-422636
-422695
-422573
-422581
-422277
-422267
-422138
-421902
-421753
-421271
-421128
-420848
-420583
-420385
-419718
-419570
-419297
-419063
-418757
-418154
-417997
-417717
-417451
-417161
-416565
-416490
-416259
-416055
-415887
-415337
-415227
-415056
-414927
-414833
-414404
-414453
-414352
-414283
-414288
-413896
-414001
-414032
-414024
-414085
-413816
-413981
-413959
-414022
-414164
-413964
-414144
-414179
-414269
-414402
-414181
-414433
-414559
-414655
-414818
-414637
-414874
-414987
-415035
-415246
-414998
-415289
-415382
-415440
-415473
-415321
-415500
-415599
-415686
-415756
-415517
-415716
-415819
-415882
-415949
-415767
-415923
-416127
-416207
-416428
-416398
-416395
-416514
-416581
-416331
-416482
-416592
-416581
-416692
-416468
-416714
-416730
-416782
-416848
-416690
-416824
-416929
-416913
-417005
-416780
-416951
-417000
-417016
-417055
-416802
-417007
-416983
-417079
-417060
-416862
-416934
-416980
-417024
-417060
-416843
-416945
-417011
-416976
-417083
-416776
-416933
-416866
-416915
-416956
-416670
-416859
-416844
-416934
-416884
-416541
-416655
-416812
-416759
-416771
-416516
-416590
-416669
-416686
-416637
-416407
-416525
-416530
-416522
-416600
-416334
-416420
-416465
-416565
-416558
-416310
-416520
-416698
-416673
-416719
-416505
-416670
-416775
-416787
-416867
-416657
-416770
-416850
-416898
-417084
-416881
-417072
-417129
-417166
-417209
-417096
-417179
-417231
-417370
-417378
-417192
-417322
-417393
-417454
-417496
-417390
-417561
-417652
-417623
-417698
-417452
-417545
-417696
-417720
-417733
-417612
-417680
-417758
-417844
-417922
-417758
-417760
-417897
-417940
-418042
-417838
-417982
-418138
-418187
-418250
-417956
-418055
-418150
-418328
-418482
-418304
-418411
-418444
-418493
-418553
-418391
-418509
-418614
-418664
-418582
-418378
-418481
-418660
-418698
-418802
-418549
-418631
-418635
-418749
-418891
-418689
-418710
-418880
-418901
-418903
-418707
-418854
-418901
-418940
-418993
-418799
-418857
-419026
-419111
-419181
-419035
-419101
-419203
-419328
-419403
-419235
-419243
-419407
-419506
-419543
-419367
-419427
-419592
-419588
-419618
-419458
-419589
-419704
-419699
-419771
-419650
-419681
-419783
-419774
-419835
-419696
-419794
-419867
-419884
-420007
-419745
-419822
-419955
-420000
-420112
-419886
-419939
-419997
-420107
-420165
-419889
-419858
-420000
-419986
-419921
-419521
-419409
-419284
-419180
-419058
-418563
-418326
-418142
-417845
-417560
-417080
-416740
-416539
-416262
-416035
-415533
-415230
-415011
-414718
-414610
-414102
-413872
-413723
-413625
-413496
-413191
-412999
-412985
-412872
-412923
-412577
-412490
-412664
-412659
-412350
-412398
-412602
-412591
-412651
-412545
-412499
-412729
-412783
-412921
-412747
-412752
-412994
-413132
-413271
-413138
-413121
-413414
-413477
-413528
-413414
-413488
-413656
-413820
-413953
-413818
-413813
-414040
-414124
-414265
-414128
-414160
-414294
-414383
-414494
-414355
-414388
-414604
-414632
-414726
-414546
-414590
-414819
-414880
-414969
-414772
-414740
-414973
-415080
-415179
-414921
-414880
-415130
-415215
-415359
-415229
-415148
-415265
-415410
-415479
-415312
-415282
-415524
-415633
-415711
-415576
-415490
-415703
-415735
-415802
-415712
-415644
-415787
-415947
-416039
-415960
-415766
-416010
-416104
-416235
-416015
-415946
-416165
-416200
-416276
-416094
-415913
-416168
-416203
-416302
-416106
-415954
-416101
-416193
-416248
-416060
-415892
-416067
-416105
-416124
-415911
-415730
-415879
-415942
-415994
-415840
-415683
-415899
-415817
-415902
-415798
-415604
-415714
-415732
-415804
-415655
-415451
-415597
-415731
-415762
-415631
-415446
-415643
-415718
-415835
-415728
-415531
-415684
-415680
-415772
-415636
-415576
-415718
-415759
-415797
-415661
-415553
-415739
-415836
-415938
-415905
-415702
-415860
-415950
-416137
-415987
-415816
-415994
-416070
-416260
-416144
-416009
-416197
-416305
-416415
-416292
-416143
-416331
-416433
-416587
-416441
-416227
-416453
-416565
-416710
-416551
-416468
-416710
-416759
-416886
-416813
-416584
-416843
-416950
-417042
-416932
-416803
-416977
-417121
-417166
-417043
-416893
-417092
-417141
-417253
-417190
-417002
-417229
-417267
-417321
-417227
-417031
-417187
-417371
-417567
-417541
-417344
-417465
-417523
-417594
-417505
-417700
-417744
-417912
-417810
-417606
-417750
-417903
-418002
-417992
-417736
-417868
-417899
-417984
-417924
-417829
-417989
-418034
-418190
-418018
-417874
-418102
-418203
-418342
-418254
-417939
-418069
-418140
-418344
-418457
-418144
-418307
-418355
-418486
-418410
-418266
-418477
-418545
-418578
-418504
-418332
-418534
-418535
-418656
-418700
-418502
-418709
-418809
-418853
-418819
-418637
-418896
-418946
-418959
-418969
-418614
-418745
-418721
-418690
-418564
-418160
-418127
-418008
-417908
-417605
-417120
-416969
-416837
-416605
-416209
-415661
-415459
-415171
-414923
-414550
-414016
-413933
-413663
-413451
-413171
-412700
-412626
-412471
-412350
-412173
-411686
-411730
-411636
-411651
-411494
-411158
-411269
-411314
-411255
-410979
-411127
-411125
-411231
-411247
-411050
-411368
-411407
-411548
-411566
-411366
-411617
-411729
-411881
-411918
-411770
-412022
-412055
-412200
-412234
-412062
-412345
-412469
-412541
-412717
-412491
-412760
-412889
-412969
-412997
-412871
-413106
-413234
-413318
-413343
-413164
-413379
-413403
-413476
-413629
-413444
-413750
-413786
-413821
-413913
-413680
-413930
-413987
-414103
-414131
-413926
-414073
-414097
-414258
-414263
-414019
-414258
-414350
-414383
-414420
-414231
-414529
-414622
-414710
-414732
-414645
-414766
-414817
-414928
-414906
-414667
-415021
-415029
-415120
-415131
-414968
-415259
-415296
-415570
-415345
-415612
-415716
-415723
-415750
-415508
-415738
-415770
-415814
-415604
-415822
-415831
-415781
-415852
-415421
-415584
-415543
-415599
-415656
-415369
-415549
-415461
-415520
-415535
-415208
-415474
-415405
-415466
-415411
-415124
-415319
-415321
-415314
-415254
-414967
-415126
-415196
-415171
-415237
-414946
-415271
-415338
-415299
-415292
-415188
-415395
-415437
-415471
-415460
-415324
-415548
-415665
-415740
-415815
-415545
-415815
-415866
-415945
-416008
-415754
-416061
-416135
-416180
-416210
-416014
-416252
-416363
-416469
-416492
-416273
-416462
-416592
-416703
-416731
-416519
-416782
-416890
-416947
-417016
-416871
-417118
-417196
-417269
-417282
-417129
-417391
-417379
-417390
-417499
-417308
-417498
-417572
-417574
-417710
-417526
-417715
-417730
-417829
-417818
-417725
-417887
-417934
-418046
-418108
-417852
-418068
-418104
-418224
-418348
-418059
-418282
-418392
-418478
-418519
-418288
-418480
-418590
-418646
-418714
-418480
-418699
-418856
-418903
-418999
-418692
-419033
-419060
-419223
-419264
-419078
-419255
-419339
-419441
-419501
-419328
-419574
-419610
-419689
-419786
-419658
-419832
-419905
-420040
-420153
-419845
-420161
-420229
-420272
-420285
-420240
-420466
-420522
-420621
-420684
-420535
-420707
-420786
-420891
-421041
-420687
-420840
-420852
-420921
-420974
-420665
-420713
-420961
-420588
-420399
-419948
-419845
-419620
-419346
-419200
-418650
-418535
-418288
-417819
-417716
-417248
-417155
-416926
-416759
-416547
-415915
-415926
-415741
-415534
-415450
-415100
-415405
-415101
-414891
-414835
-414504
-414508
-414491
-414449
-414551
-414264
-414391
-414372
-414453
-414544
-414249
-414525
-414530
-414598
-414726
-414594
-414868
-414885
-414964
-415147
-414895
-415114
-415230
-415360
-415549
-415370
-415555
-415631
-415718
-415978
-415683
-416003
-416100
-416155
-416254
-416135
-416394
-416490
-416594
-416765
-416509
-416739
-416890
-416963
-417141
-416897
-417139
-417238
-417319
-417418
-417178
-417379
-417502
-417594
-417701
-417466
-417635
-417813
-417882
-418051
-417738
-418029
-418112
-418196
-418231
-418026
-418321
-418393
-418479
-418681
-418497
-418656
-418758
-418909
-419069
-418878
-419124
-419217
-419239
-419166
-419143
-419420
-419550
-419850
-419861
-419630
-419806
-419840
-419894
-419911
-419620
-419874
-419974
-420070
-420102
-419884
-420033
-420073
-420166
-420191
-419990
-420126
-420187
-420200
-420285
-420047
-420307
-420245
-420302
-420396
-420091
-420301
-420278
-420302
-420366
-420100
-420277
-420322
-420372
-420430
-420134
-420184
-420234
-420288
-420413
-420162
-420386
-420361
-420389
-420464
-420207
-420420
-420355
-420396
-420493
-420230
-420444
-420452
-420526
-420631
-420363
-420596
-420585
-420636
-420728
-420532
-420649
-420689
-420870
-420907
-420683
-420861
-420932
-421338
-421080
-420786
-420975
-421080
-421066
-421187
-420932
-421154
-421245
-421312
-421397
-421112
-421327
-421372
-421439
-421546
-421372
-421570
-421627
-421767
-421800
-421640
-421803
-421865
-421968
-422021
-421780
-421989
-422298
-422162
-422392
-422051
-422221
-422427
-422390
-422215
-422378
-422491
-422546
-422547
-422313
-422495
-422601
-422595
-422704
-422530
-422704
-422834
-422767
-423179
-422752
-422877
-422892
-422957
-423002
-422832
-423007
-423051
-423185
-423227
-423020
-423295
-423389
-423419
-423476
-423314
-423481
-423523
-423537
-423649
-423413
-423597
-423675
-423788
-423816
-423656
-423711
-423774
-423822
-423903
-423689
-423822
-423853
-423873
-423975
-423790
-423918
-424083
-424117
-424154
-424000
-424059
-424151
-424274
-424390
-424080
-424257
-424325
-424831
-424618
-424419
-424439
-424504
-424544
-424592
-424348
-424509
-424682
-424745
-425015
-424629
-424736
-424776
-424777
-424751
-424558
-424535
-424561
-424456
-424413
-424052
-423873
-423706
-423585
-423317
-422814
-422627
-422436
-422131
-421836
-421263
-421005
-420738
-420535
-420206
-419746
-419595
-419438
-419102
-418810
-418418
-418444
-418370
-418324
-418135
-417650
-417504
-417559
-417465
-417492
-417271
-417256
-417295
-417351
-417246
-416940
-416928
-417115
-417318
-417405
-417272
-417295
-417271
-417326
-417380
-417232
-417418
-417649
-417838
-417938
-417490
-417633
-417830
-417892
-418135
-418083
-418202
-418365
-418443
-418400
-418255
-418304
-418462
-418647
-418707
-418599
-418617
-418836
-418939
-419078
-418946
-418959
-419174
-419276
-419381
-419243
-419263
-419448
-419467
-419633
-419479
-419559
-419752
-419805
-419888
-419716
-419800
-419956
-420069
-420212
-420027
-420046
-420192
-420322
-420444
-420284
-420376
-420548
-420604
-420763
-420903
-420748
-420786
-421036
-421079
-421196
-420996
-420966
-421151
-421222
-421366
-421105
-421126
-421292
-421405
-421473
-421334
-421131
-421363
-421465
-421463
-421333
-421260
-421379
-421424
-421525
-421283
-421240
-421389
-421418
-421495
-421305
-421233
-421356
-421388
-421463
-421204
-421170
-421290
-421322
-421394
-421116
-421082
-421232
-421251
-421302
-421224
-421183
-421319
-421463
-421413
-421112
-421005
-421213
-421445
-421777
-421382
-421309
-421347
-421398
-421422
-421273
-421294
-421518
-421614
-421631
-421533
-421350
-421446
-421506
-421637
-421610
-421611
-421781
-421808
-421828
-421634
-421524
-421802
-421884
-421947
-421741
-421736
-422016
-422052
-422211
-422064
-422033
-422136
-422224
-422396
-422298
-422178
-422394
-422564
-422644
-422547
-422434
-422647
-422787
-422854
-422803
-422708
-422913
-423005
-423145
-423027
-422979
-423244
-423390
-423495
-423290
-423172
-423389
-423483
-423604
-423517
-423435
-423674
-423719
-423828
-423748
-423612
-423876
-423935
-424090
-424017
-423866
-424101
-424191
-424233
-424120
-424060
-424246
-424282
-424407
-424329
-424251
-424434
-424537
-424570
-424553
-424303
-424532
-424649
-424790
-424622
-424549
-424703
-424814
-424983
-424807
-424680
-424901
-424963
-425102
-424980
-424819
-425012
-425119
-425221
-425096
-424933
-425126
-425244
-425368
-425355
-425285
-425472
-425518
-425440
-425354
-425235
-425402
-425626
-425833
-425598
-425510
-425709
-425682
-425722
-425641
-425681
-425897
-426009
-426094
-426081
-425746
-425749
-425853
-426002
-425948
-425944
-426155
-426218
-426256
-426026
-425935
-426135
-426138
-426261
-426172
-426065
-426248
-426353
-426485
-426399
-426234
-426334
-426429
-426560
-426439
-426264
-426432
-426521
-426633
-426598
-426377
-426569
-426628
-426784
-426772
-426498
-426696
-426759
-426854
-426758
-426601
-426765
-426937
-426917
-426660
-426951
-427002
-427217
-427143
-426852
-427082
-427180
-427258
-427242
-426992
-427190
-427307
-427388
-427390
-427166
-427377
-427470
-427574
-427554
-427347
-427508
-427572
-427647
-427635
-427388
-427520
-427609
-427666
-427605
-427296
-427404
-427285
-427160
-426893
-426414
-426381
-426064
-425825
-425440
-424852
-424626
-424375
-424073
-423755
-423167
-422932
-422574
-422328
-422000
-421444
-421292
-421329
-420901
-420768
-420319
-420253
-420029
-419732
-419496
-419118
-419160
-419196
-419227
-419075
-418675
-418840
-418611
-418590
-418592
-418349
-418592
-418658
-418738
-418734
-418359
-418470
-418464
-418620
-418806
-418626
-418902
-419045
-418975
-419118
-418880
-419150
-419181
-419391
-419484
-419248
-419549
-419656
-419836
-419951
-419794
-420058
-420175
-420385
-420488
-420297
-420598
-420650
-420787
-420881
-420756
-420839
-421066
-421170
-421338
-421128
-421276
-421405
-421480
-421787
-421440
-421548
-421653
-421758
-421750
-421471
-421711
-421882
-421905
-421982
-421789
-421970
-422013
-422116
-422071
-421896
-422061
-422139
-422152
-422189
-421964
-422109
-422105
-422279
-422250
-421926
-422192
-422170
-422262
-422302
-422139
-422354
-422272
-422374
-422382
-422191
-422361
-422396
-422413
-422454
-422158
-422366
-422471
-422491
-422456
-422283
-422404
-422469
-422454
-422558
-422306
-422561
-422544
-422580
-422644
-422384
-422598
-422689
-422626
-422877
-422657
-422856
-422883
-422848
-422789
-422488
-422711
-422789
-422908
-423022
-422758
-422957
-422954
-422891
-422947
-422715
-423036
-423126
-423108
-423222
-422931
-422981
-423051
-423123
-423277
-423104
-423269
-423297
-423375
-423304
-423087
-423253
-423371
-423424
-423173
-423369
-423433
-423513
-423555
-423332
-423571
-423674
-423697
-423839
-423547
-423795
-423825
-423887
-423943
-423907
-424071
-424118
-424075
-424201
-423876
-424143
-424182
-424122
-424300
-424112
-424417
-424490
-424659
-424413
-424578
-424620
-424798
-424824
-424600
-424801
-424912
-425010
-425071
-424888
-425097
-425209
-425260
-425307
-425123
-425405
-425513
-425545
-425474
-425379
-425667
-425737
-425778
-425679
-425565
-425800
-425821
-425927
-425990
-425717
-426016
-425999
-426063
-426091
-425934
-426039
-426076
-426175
-426295
-425982
-426273
-426235
-426314
-426399
-426130
-426342
-426331
-426397
-426466
-426277
-426473
-426546
-426568
-426605
-426448
-426616
-426731
-426776
-426882
-426607
-426881
-426871
-426904
-427059
-426822
-427034
-427040
-427035
-427078
-426966
-427143
-427211
-427255
-427362
-427040
-427279
-427356
-427475
-427495
-427248
-427526
-427626
-427971
-427842
-427564
-427779
-427771
-427870
-427989
-428040
-427990
-427974
-428107
-428101
-427915
-428139
-428207
-428279
-428333
-428112
-428269
-428298
-428374
-428367
-428218
-428333
-428402
-428486
-428529
-428343
-428527
-428602
-428670
-428759
-428482
-428708
-428768
-428896
-428858
-428713
-428978
-429104
-429249
-428977
-429218
-429235
-429307
-429413
-429251
-429574
-429641
-429645
-429712
-429371
-429517
-429505
-429638
-429753
-429466
-429616
-429579
-429417
-429210
-428912
-429034
-428999
-428893
-428792
-428265
-428041
-427759
-427509
-427237
-426739
-426637
-426337
-425928
-425442
-424762
-424746
-424489
-424264
-423947
-423407
-423255
-423036
-422897
-422733
-422246
-422134
-421987
-421892
-421740
-421659
-421519
-421364
-421253
-421199
-420818
-420926
-420893
-420898
-420924
-420684
-420847
-420884
-420817
-420864
-420638
-420948
-420909
-421040
-421092
-420971
-421181
-421168
-421310
-421477
-421334
-421593
-421669
-421746
-421909
-421767
-422030
-422090
-422287
-422256
-422012
-422275
-422292
-422447
-422532
-422344
-422516
-422576
-422704
-422868
-422645
-422796
-422830
-422864
-422984
-422864
-422970
-423023
-423153
-423204
-422980
-423194
-423389
-423424
-423535
-423328
-423554
-423657
-423745
-423842
-423976
-423890
-423943
-424044
-424078
-423878
-424174
-424306
-424440
-424507
-424308
-424474
-424571
-424622
-424657
-424506
-424691
-424784
-424856
-424947
-424705
-424865
-424883
-424962
-425016
-424801
-424952
-424966
-425029
-424985
-424732
-424875
-424937
-425014
-425070
-424819
-424876
-424921
-424994
-424978
-424743
-424874
-424823
-424884
-424924
-424591
-424738
-424798
-424811
-424853
-424546
-424696
-424719
-424781
-424725
-424538
-424611
-424710
-424696
-424789
-424509
-424708
-424775
-424707
-424815
-424522
-424660
-424690
-424770
-424820
-424745
-424796
-424860
-424893
-424847
-424390
-424659
-424781
-424814
-424823
-424632
-424853
-424884
-424948
-424969
-424785
-425003
-425188
-425211
-425263
-424922
-425132
-425193
-425243
-425453
-425257
-425393
-425517
-425500
-425532
-425310
-425534
-425732
-425818
-425937
-425780
-425870
-425866
-425901
-425941
-425783
-426012
-426150
-426249
-426362
-425969
-426046
-426132
-426246
-426386
-426216
-426299
-426417
-426461
-426576
-426431
-426530
-426656
-426736
-426828
-426532
-426827
-426887
-427100
-427479
-427117
-427152
-427335
-427343
-427469
-427240
-427358
-427549
-427633
-427711
-427569
-427688
-428943
-428533
-428105
-427812
-427949
-428168
-428237
-428299
-428144
-428333
-428215
-428248
-428346
-428116
-428324
-428389
-428488
-428541
-428245
-428344
-428428
-428442
-428500
-428254
-428399
-429015
-428821
-428705
-428505
-428597
-428838
-428944
-428992
-428792
-428873
-428897
-428969
-428978
-428880
-428869
-429024
-429101
-430192
-429306
-429115
-429148
-429230
-429263
-429055
-429098
-429707
-429578
-429472
-429252
-429222
-429491
-429563
-429540
-429303
-429406
-429337
-429405
-429413
-429228
-429230
-429372
-429447
-430553
-429663
-429447
-429545
-429609
-429785
-429697
-429696
-429891
-429906
-429963
-429767
-429777
-430027
-430116
-430224
-430019
-430053
-430267
-430387
-430540
-430327
-430347
-430555
-430620
-430640
-430546
-430494
-430681
-430643
-430718
-430567
-430541
-430663
-430678
-430805
-430698
-430649
-430771
-430875
-430904
-430693
-430983
-430919
-430927
-430979
-430782
-430819
-430947
-431085
-431116
-430971
-430896
-431062
-430973
-431199
-431178
-431103
-431290
-431453
-431508
-431355
-431351
-431527
-431659
-431741
-431575
-431864
-431977
-431889
-431976
-431785
-431821
-431961
-432099
-432124
-431955
-431809
-431900
-432027
-432018
-431780
-431579
-431650
-431505
-431368
-430942
-430586
-430460
-430288
-430065
-429571
-429163
-428918
-428632
-428423
-427899
-427526
-427367
-427103
-426882
-426490
-426118
-425979
-425828
-425660
-425238
-424914
-424874
-424792
-424777
-424438
-424242
-424257
-424262
-424348
-424145
-423954
-424146
-424207
-424222
-424602
-424202
-424338
-424374
-424527
-424435
-424311
-424578
-424742
-424892
-424836
-424777
-425040
-425195
-425227
-425254
-425212
-425536
-425608
-425774
-425734
-425682
-425922
-426072
-426304
-426227
-426170
-426428
-426557
-426691
-426617
-426609
-426865
-426966
-427098
-427011
-426963
-427264
-427383
-427582
-427469
-427365
-427651
-427784
-427999
-427884
-427808
-428018
-428219
-428305
-428269
-428162
-428358
-428471
-428656
-428559
-428425
-428695
-428844
-429038
-428939
-428823
-429046
-429115
-429197
-429198
-429178
-429318
-429489
-429630
-429575
-429395
-429625
-429794
-429919
-429823
-429716
-430020
-430172
-430283
-430142
-429967
-430098
-430198
-430094
-430291
-430186
-430432
-430540
-430552
-430304
-430215
-430329
-430503
-430620
-430557
-430395
-430478
-430459
-430460
-430279
-430061
-430221
-430198
-430283
-430253
-429968
-430091
-430118
-430123
-429960
-429739
-429919
-430004
-429977
-429801
-429523
-429698
-429747
-429755
-429698
-429416
-429540
-429669
-429775
-429636
-429458
-429588
-429667
-429754
-429691
-429498
-429689
-429710
-429844
-429821
-429605
-429819
-429887
-430032
-429986
-429748
-429949
-430037
-430121
-430119
-430381
-430731
-430407
-430432
-430251
-430118
-430438
-430635
-430808
-430813
-430561
-430740
-430802
-430943
-430965
-430791
-431039
-432182
-431992
-431508
-431224
-431416
-431568
-431744
-431796
-431659
-431854
-431818
-431868
-431916
-431732
-432015
-432098
-432314
-432784
-432261
-432299
-432403
-432494
-432709
-432587
-432833
-432868
-432915
-432788
-432678
-432890
-432955
-433137
-433082
-433918
-434409
-433571
-433463
-433278
-433139
-433397
-433463
-433592
-434014
-433545
-433641
-433714
-433811
-434404
-433942
-434109
-434194
-434244
-434184
-433972
-434232
-434336
-434484
-434441
-434240
-434476
-434534
-434701
-434757
-434501
-434801
-434842
-434960
-434756
-434948
-434977
-435113
-435111
-434897
-435196
-435179
-435283
-435325
-435151
-435264
-435312
-435381
-435458
-435190
-435436
-435503
-435489
-435576
-435345
-435482
-435550
-435610
-435585
-435380
-435592
-435609
-435916
-435814
-435582
-435618
-435679
-435759
-435740
-435540
-435708
-435808
-435852
-435839
-435509
-435773
-435806
-435890
-435935
-435677
-435897
-435946
-435948
-435989
-435815
-436039
-435957
-436050
-436178
-436022
-436196
-436214
-436249
-436233
-435937
-436140
-436199
-436285
-436363
-437160
-437606
-436637
-436493
-436467
-436216
-436490
-436482
-436485
-436553
-436345
-436416
-436485
-436380
-436421
-436096
-436163
-436130
-436011
-435839
-435430
-435337
-435139
-434880
-434593
-434043
-433890
-432388
-432121
-431891
-431488
-431056
-431001
-430738
-430495
-430365
-429898
-429945
-429810
-429622
-429494
-429149
-429310
-429230
-429117
-429078
-428837
-428995
-428986
-429057
-429044
-428747
-428999
-429071
-429117
-429124
-428903
-429194
-429250
-429304
-429414
-429199
-429435
-429549
-429600
-429692
-429548
-429833
-429954
-430026
-430101
-429952
-430250
-430328
-430499
-430602
-430473
-430689
-430790
-430897
-431002
-430835
-431063
-431136
-431279
-431395
-431158
-431447
-431565
-431582
-431745
-431591
-431874
-431912
-431952
-432094
-431909
-432131
-432143
-432254
-432398
-432160
-432477
-432605
-432668
-432765
-432486
-432734
-432843
-432906
-432967
-432863
-433076
-433154
-433177
-433329
-433125
-433381
-433448
-433592
-433622
-433428
-433595
-433742
-433891
-433952
-433762
-433952
-434053
-434088
-434207
-433986
-434140
-434231
-434334
-434436
-434140
-434312
-434401
-434442
-434517
-434380
-434547
-434556
-434640
-434702
-434472
-434627
-434572
-434637
-434660
-434382
-434519
-434564
-434470
-434554
-434321
-434482
-434483
-434527
-434446
-434187
-434369
-434394
-434390
-434422
-434187
-434368
-434272
-434350
-434353
-434041
-434229
-434302
-434294
-434343
-434091
-434235
-434248
-434362
-434353
-434123
-434323
-434348
-434396
-434439
-434238
-434456
-434420
-434380
-434494
-434369
-434504
-434599
-434293
-434518
-434610
-434654
-434740
-434534
-434713
-434825
-434866
-434629
-434908
-434886
-435035
-435180
-435113
-435135
-435192
-435278
-435081
-435234
-435275
-435328
-435423
-435260
-435497
-435534
-435609
-435777
-435497
-435999
-436074
-436098
-435891
-436200
-436210
-436291
-436342
-436199
-436336
-436408
-436453
-436583
-436371
-436564
-436591
-436669
-436700
-436537
-436650
-436717
-436788
-436868
-436714
-436909
-436966
-437049
-437158
-436912
-437132
-437162
-437247
-437251
-437101
-437434
-437442
-437521
-437640
-437420
-437623
-437663
-437729
-437803
-437601
-437829
-437877
-437983
-438062
-437877
-438110
-438130
-438162
-438284
-438056
-438356
-438380
-438386
-438516
-438291
-438484
-438554
-438636
-438790
-438559
-438725
-438805
-438840
-438954
-438688
-438877
-438922
-438868
-438916
-438808
-439058
-439200
-439239
-439335
-439030
-439199
-439234
-439300
-439282
-439063
-439173
-439116
-439123
-438968
-438609
-438625
-438443
-438281
-438372
-437636
-437520
-437189
-436940
-436534
-436026
-435829
-435524
-435177
-434885
-434346
-434271
-433925
-433716
-433481
-433018
-432907
-432713
-432540
-432316
-431969
-431995
-431882
-431715
-431647
-431320
-431443
-431385
-431397
-431349
-431111
-431188
-431276
-431280
-431311
-431006
-431233
-431299
-431366
-431447
-431174
-431228
-431453
-431602
-431674
-431569
-431776
-431811
-431890
-432045
-431811
-432088
-432143
-432242
-432330
-432185
-432339
-432308
-432544
-432639
-432483
-432673
-432796
-432776
-432943
-432752
-432985
-433033
-433150
-433240
-433026
-433273
-433405
-433382
-433543
-433367
-433592
-433657
-433713
-433829
-433600
-433819
-433856
-433990
-434038
-433815
-434046
-434172
-434186
-434285
-434106
-434292
-434337
-434406
-434456
-434331
-434567
-434612
-434715
-434816
-434640
-434774
-434868
-434961
-435057
-434880
-435039
-435165
-435188
-435198
-435107
-435234
-435349
-435422
-435529
-435248
-435444
-435552
-435588
-435628
-435423
-435527
-435546
-435661
-435577
-435395
-435539
-435557
-435670
-435734
-435531
-435645
-435653
-435673
-435642
-435446
-435577
-435572
-435560
-435347
-435683
-435624
-435549
-435503
-435183
-435327
-435385
-435417
-435405
-435144
-435351
-435356
-435351
-435578
-435204
-435282
-435335
-435393
-435377
-435162
-435232
-435255
-435287
-435322
-435113
-435286
-435307
-435315
-435332
-435118
-435214
-435262
-435359
-435423
-435156
-435427
-435478
-435538
-435586
-435396
-435652
-435649
-435766
-435856
-435632
-435753
-435880
-436024
-435952
-435831
-435963
-436110
-436174
-436315
-436132
-436292
-436433
-436413
-436531
-436366
-436533
-436567
-436951
-436748
-436575
-436797
-437292
-437421
-437255
-436943
-437088
-437172
-437356
-437403
-437314
-437406
-437551
-437650
-437721
-437574
-437672
-437796
-437875
-437906
-437789
-437845
-437952
-438021
-438056
-437834
-438097
-438126
-438314
-438364
-438203
-438246
-438287
-438379
-438544
-438341
-438320
-438504
-438543
-438673
-438531
-438741
-438893
-438889
-438941
-438750
-438947
-439053
-439137
-439192
-439010
-439148
-439244
-439372
-439400
-439179
-439210
-439376
-439472
-439501
-439262
-439429
-439447
-439500
-439560
-439370
-439449
-439560
-439675
-439668
-439433
-439558
-439697
-439775
-439805
-439567
-439692
-439741
-439859
-439842
-439694
-439717
-439803
-439919
-439976
-439747
-439864
-439846
-439977
-440060
-439875
-439834
-439987
-440037
-440095
-439745
-439635
-439744
-439678
-439593
-439251
-438958
-438853
-438663
-438364
-437888
-437544
-437343
-437088
-436709
-436205
-435888
-435617
-435387
-435089
-434470
-434176
-434022
-433799
-433626
-433080
-432869
-432803
-432619
-432446
-432070
-431836
-431879
-431839
-431822
-431514
-431371
-431414
-431386
-431420
-431156
-431165
-431265
-431329
-431389
-431182
-431205
-431369
-431334
-431489
-431361
-431398
-431514
-431630
-431819
-431662
-431621
-431872
-431941
-432174
-432037
-432082
-432354
-432404
-432615
-432437
-432455
-432622
-432834
-432974
-432876
-432913
-433210
-433307
-433456
-433374
-433378
-433663
-433689
-433928
-433760
-433788
-434010
-434139
-434295
-434140
-434185
-434423
-434524
-434650
-434449
-434464
-434697
-434816
-434958
-434744
-434729
-434889
-435044
-435180
-435008
-434945
-435123
-435276
-435437
-435174
-435186
-435417
-435571
-435719
-435565
-435561
-435722
-435768
-435942
-435763
-435688
-435943
-436028
-436140
-436007
-435846
-436138
-436147
-436318
-436113
-436071
-436275
-436409
-436456
-436277
-436204
-436314
-436350
-436476
-436289
-436243
-436444
-436450
-436582
-436416
-436241
-436459
-436439
-436552
-436348
-436217
-436398
-436411
-436510
-436262
-436193
-436364
-436439
-436470
-436346
-436120
-436276
-436379
-436498
-436199
-436109
-436220
-436306
-436328
-436119
-435995
-436137
-436273
-436344
-436160
-435989
-436233
-436226
-436348
-436206
-436139
-436268
-436336
-436329
-436217
-436103
-436343
-436395
-436583
-436366
-436280
-436395
-436496
-436627
-436516
-436374
-436617
-436556
-436738
-436668
-436497
-436673
-436823
-436940
-436769
-436640
-436839
-436965
-437042
-436936
-436870
-437113
-437186
-437318
-437228
-437046
-437297
-437414
-437593
-437414
-437325
-437540
-437639
-437756
-437681
-437528
-437769
-437874
-437928
-437904
-437748
-437983
-438096
-438183
-438097
-437935
-438151
-438159
-438246
-438278
-438133
-438270
-438376
-438464
-438447
-438313
-438482
-438558
-438700
-438667
-438502
-438670
-438838
-438917
-438857
-438665
-438933
-438993
-439124
-439063
-438975
-439130
-439320
-439462
-439350
-439570
-439493
-439532
-439618
-439561
-439451
-439661
-439723
-439846
-439777
-439534
-439827
-439928
-440043
-439934
-439793
-439976
-440098
-440205
-440101
-439923
-440073
-440217
-440417
-440317
-440116
-440377
-440495
-440445
-440568
-440669
-440616
-440384
-440836
-440804
-440636
-440896
-440943
-441031
-441019
-440824
-441018
-441096
-441253
-441181
-441027
-441206
-441254
-441378
-441307
-441144
-441418
-441463
-441557
-441478
-441309
-441453
-441424
-441437
-441335
-441006
-441077
-440926
-440814
-440523
-440042
-439919
-439612
-439386
-439005
-438557
-438347
-437989
-437665
-437330
-436751
-436553
-436234
-436041
-435633
-435128
-434963
-434711
-434520
-434244
-433785
-433612
-433544
-433510
-433304
-432929
-432888
-432860
-432850
-432720
-432463
-432538
-432574
-432566
-432408
-432520
-432547
-432560
-432572
-432562
-432359
-432570
-432657
-432860
-432914
-432671
-432828
-432923
-433058
-432974
-432855
-433503
-433329
-433431
-433146
-433482
-433634
-433759
-433776
-433665
-433931
-433981
-434165
-434191
-433993
-434361
-434351
-434584
-434603
-434391
-434680
-434800
-434874
-434985
-434839
-435011
-435132
-435249
-435276
-435159
-435420
-435566
-435596
-435659
-435409
-435607
-435753
-435841
-435907
-435680
-435953
-436060
-436188
-436216
-436016
-436220
-436344
-436466
-436494
-436382
-436625
-436666
-436832
-436835
-436640
-436899
-436961
-437049
-437120
-436882
-437127
-437196
-437389
-437308
-437130
-437368
-437410
-437459
-437531
-437319
-437497
-437547
-437603
-437653
-437438
-437576
-437633
-437672
-437586
-437368
-437534
-437559
-437581
-437546
-437281
-437437
-437425
-437465
-437397
-437126
-437365
-437249
-437305
-437236
-436991
-437184
-437235
-437252
-437194
-436929
-437149
-437197
-437210
-437160
-436914
-437093
-437090
-437134
-437214
-436900
-437111
-437092
-437135
-437146
-436882
-437044
-437142
-437107
-437266
-437019
-437192
-437170
-437195
-437205
-436943
-437224
-437282
-437356
-437330
-437094
-437366
-437386
-437431
-437507
-437337
-437522
-437528
-437653
-437777
-437541
-437658
-437750
-437837
-437903
-437653
-437986
-437953
-437988
-438053
-437862
-438110
-438177
-438273
-438196
-437992
-438252
-438363
-438518
-438206
-438411
-438486
-438537
-438570
-438345
-438551
-438583
-438564
-438580
-438364
-438563
-438631
-438746
-438794
-438598
-438754
-439135
-438915
-438954
-438730
-438912
-438955
-439004
-439089
-438814
-439008
-439046
-439165
-439234
-438990
-439234
-439225
-439312
-439355
-439135
-439319
-439417
-439442
-439551
-439322
-439521
-439586
-439585
-439609
-439391
-439655
-439693
-439757
-439561
-439751
-439893
-439892
-439954
-439718
-439978
-440033
-440139
-440199
-440033
-440172
-440156
-440186
-440332
-440059
-440317
-440403
-440440
-440483
-440235
-440508
-440521
-440520
-440526
-440340
-440647
-440715
-440704
-440767
-440544
-440799
-440828
-440805
-440872
-440632
-440885
-440931
-440982
-441038
-440789
-440991
-441061
-441109
-441165
-440991
-441454
-441236
-441311
-441365
-441073
-441376
-441379
-441415
-441463
-441258
-441480
-441572
-441628
-441636
-441432
-441703
-441694
-441708
-441749
-441545
-441615
-441685
-441701
-441630
-441284
-441401
-441254
-441131
-440938
-440419
-440337
-440087
-439861
-439418
-438893
-438832
-438486
-438203
-437899
-437326
-437181
-436943
-436591
-436348
-435818
-435734
-435491
-435258
-435042
-434577
-434624
-434433
-434263
-434149
-433758
-433811
-433707
-433575
-433490
-433189
-433334
-433357
-433275
-433360
-433104
-433256
-433269
-433329
-433311
-433124
-433274
-433347
-433393
-433530
-433370
-433538
-433680
-433723
-433837
-433599
-433914
-433993
-434108
-434228
-434066
-434383
-434413
-434567
-434450
-434765
-434809
-434918
-435036
-434881
-435080
-435188
-435316
-435404
-435235
-435423
-435369
-435609
-435692
-435556
-435774
-435875
-435950
-436022
-435818
-436004
-436076
-436185
-436164
-436001
-436293
-436277
-436413
-436523
-436310
-436528
-436636
-436694
-436845
-436524
-436848
-436917
-436942
-437103
-436892
-437128
-437194
-437214
-437304
-437154
-437415
-437471
-437527
-437628
-437376
-437558
-437636
-437693
-437745
-437554
-437698
-437707
-437787
-437815
-437535
-437829
-437804
-438059
-437996
-437671
-437762
-437763
-437757
-437798
-437503
-437717
-437697
-437709
-437765
-437477
-437568
-437565
-437582
-437599
-437292
-437439
-437389
-437411
-437496
-437149
-437336
-437269
-437287
-437256
-436955
-437165
-437258
-437236
-437246
-436960
-437088
-437119
-437135
-437022
-436767
-437012
-437034
-437039
-437113
-436812
-436939
-437016
-436999
-437053
-436759
-436987
-436999
-437065
-437086
-436826
-436989
-436985
-436984
-437074
-436808
-437007
-436997
-437042
-437111
-436854
-437075
-437095
-437169
-437184
-437019
-437155
-437051
-437279
-437320
-437114
-437239
-437331
-437406
-437366
-437274
-437494
-437484
-437587
-437646
-437446
-437640
-437697
-437719
-437685
-437511
-437789
-437778
-437808
-437884
-437661
-437868
-437886
-437939
-438032
-437770
-438007
-438033
-438076
-438140
-437922
-438160
-438136
-438228
-438364
-438096
-438262
-438296
-438337
-438472
-438234
-438392
-438420
-438472
-438530
-438246
-438413
-438349
-438473
-438537
-438258
-438484
-438483
-438570
-438629
-438371
-438521
-438557
-438629
-438700
-438530
-438668
-438704
-438792
-438806
-438506
-438725
-438796
-438910
-439007
-438706
-438870
-438963
-439028
-439122
-438804
-439010
-439050
-439093
-439157
-438937
-439057
-439151
-439165
-439236
-438992
-439178
-439237
-439293
-439249
-439025
-439185
-439257
-439209
-439203
-438902
-439038
-439006
-438953
-438868
-438542
-438422
-438309
-438029
-437896
-437391
-437297
-436927
-436652
-436301
-435728
-435614
-435287
-434931
-434686
-434104
-433918
-433697
-433432
-433135
-432591
-432517
-432268
-431997
-431832
-431408
-431216
-431038
-430990
-430583
-430607
-430661
-430615
-430583
-430252
-430364
-430390
-430329
-430348
-430183
-430336
-430376
-430436
-430449
-430219
-430439
-430558
-430602
-430738
-430503
-430755
-430817
-430966
-431012
-430855
-431089
-431164
-431374
-431460
-431227
-431470
-431545
-431698
-431752
-431568
-431703
-431897
-431978
-432020
-431872
-432086
-432183
-432198
-432251
-432122
-432282
-432290
-432410
-432490
-432344
-432486
-432616
-432693
-432705
-432522
-432722
-432768
-432855
-432893
-432706
-432932
-433051
-433133
-433243
-433033
-433196
-433366
-433492
-433516
-433381
-433553
-433592
-433678
-433763
-433556
-433800
-433894
-433945
-433996
-433790
-433960
-434056
-434104
-434173
-433916
-434049
-434135
-434258
-434271
-434072
-434109
-434183
-434181
-434207
-434015
-434111
-434099
-434095
-434123
-433919
-434001
-434079
-434020
-434053
-433821
-433946
-433937
-433939
-433895
-433672
-433791
-433765
-433750
-433747
-433442
-433637
-433643
-433634
-433725
-433451
-433483
-433553
-433501
-433823
-433364
-433416
-433508
-433525
-433582
-433310
-433421
-433526
-433575
-433595
-433427
-433516
-433575
-433649
-433629
-433473
-433621
-433664
-433613
-433721
-433507
-433641
-433660
-433740
-433848
-433563
-433777
-433749
-433790
-433876
-433628
-433786
-433902
-433961
-433923
-433739
-433832
-434028
-434021
-434135
-433982
-434091
-434140
-434164
-434271
-434094
-434224
-434379
-434328
-434491
-434227
-434333
-434489
-434547
-434677
-434458
-434607
-434723
-434791
-434796
-434653
-434783
-434884
-434974
-435015
-434832
-434966
-435067
-435146
-435262
-435081
-435151
-435189
-435244
-435413
-435220
-435289
-435421
-435463
-435533
-435357
-435490
-435577
-435670
-435705
-435503
-435612
-435747
-435732
-435794
-435561
-435651
-435754
-435835
-435944
-435647
-435849
-435864
-435975
-436026
-435909
-435964
-436080
-436124
-436148
-435971
-436061
-436127
-436278
-436404
-436123
-436237
-436323
-436422
-436425
-436282
-436326
-436426
-436446
-436579
-436442
-436603
-436453
-436616
-436624
-436721
-436720
-436480
-436593
-436728
-436787
-436855
-436721
-436794
-436994
-436991
-437033
-436817
-436876
-436991
-437125
-437197
-437086
-437046
-437122
-437170
-437317
-437129
-437184
-437311
-437422
-437343
-437178
-437196
-437131
-437068
-437013
-436573
-436431
-436272
-436072
-435818
-435254
-435036
-434797
-434550
-434178
-433637
-433295
-433064
-432794
-432457
-431893
-431625
-431317
-431052
-430879
-430347
-430120
-430029
-429858
-429621
-429269
-429165
-429088
-428932
-428875
-428596
-428485
-428509
-428418
-428329
-428140
-428022
-428106
-428088
-428100
-427849
-427879
-428019
-428128
-428190
-427980
-427959
-428105
-428227
-428308
-428100
-428172
-428274
-428414
-428549
-428269
-428399
-428481
-428548
-428650
-428497
-428530
-428787
-428822
-428922
-428701
-428772
-428946
-429029
-429157
-428921
-428942
-429136
-429258
-429266
-429118
-429180
-429334
-429499
-429542
-429378
-429569
-429691
-429789
-429602
-429637
-429761
-429859
-429909
-429753
-429714
-429801
-429885
-429941
-429774
-429776
-429867
-429910
-429855
-429724
-429655
-429724
-429710
-429629
-429436
-429286
-429371
-429333
-429275
-428975
-428935
-429019
-428996
-429032
-428724
-428637
-428715
-428611
-428649
-428417
-428322
-428330
-428264
-428275
-428099
-427929
-427814
-427873
-427896
-427659
-427542
-427570
-427621
-427572
-427301
-427183
-427185
-427161
-426874
-426784
-426844
-426837
-426829
-426616
-426475
-426567
-426537
-426475
-426257
-426130
-426225
-426183
-426197
-425973
-425789
-425873
-425921
-426028
-425775
-425658
-425722
-425724
-425740
-425577
-425544
-425629
-425589
-425615
-425509
-425383
-425479
-425581
-425665
-425504
-425426
-425524
-425544
-425688
-425473
-425426
-425478
-425576
-425664
-425472
-425348
-425534
-425566
-425677
-425560
-425466
-425577
-425651
-425739
-425499
-425374
-425526
-425549
-425603
-425468
-425369
-425527
-425607
-425642
-425565
-425496
-425634
-425568
-425660
-425532
-425391
-425586
-425731
-425672
-425586
-425491
-425589
-425617
-425680
-425506
-425393
-425516
-425568
-425592
-425421
-425302
-425462
-425600
-425538
-425426
-425378
-425369
-425375
-425451
-425296
-425082
-425225
-425224
-425199
-425003
-424908
-425014
-425009
-425012
-424807
-424639
-424722
-424576
-424638
-424470
-424370
-424657
-424630
-424602
-424421
-424346
-424533
-424530
-424567
-424400
-424285
-424420
-424405
-424431
-424273
-424187
-424271
-424246
-424368
-424186
-423927
-424073
-424029
-424083
-423913
-423792
-423850
-423918
-423913
-423731
-423487
-423651
-423614
-423583
-423410
-423205
-423313
-423274
-423212
-423056
-422870
-422970
-422943
-422957
-422859
-422651
-422734
-422833
-422880
-422692
-422574
-422682
-422758
-422764
-422726
-422458
-422672
-422719
-422740
-422614
-422462
-422625
-422694
-422698
-422573
-422407
-422533
-422556
-422608
-422410
-422333
-422485
-422495
-422545
-422509
-422341
-422555
-422595
-422653
-422614
-422465
-422636
-422684
-422735
-422675
-422554
-422740
-422769
-422888
-422774
-422618
-422757
-422843
-422987
-422877
-422735
-422851
-422889
-422865
-422755
-422482
-422506
-422379
-422298
-421951
-421503
-421521
-421356
-421139
-420769
-420314
-420139
-419854
-419699
-419272
-418816
-418714
-418486
-418236
-417826
-417482
-417422
-417252
-417071
-416783
-416455
-416386
-416257
-416141
-416013
-415683
-415813
-415819
-415854
-415735
-415559
-415799
-415875
-415980
-415933
-415841
-416000
-416175
-416283
-416321
-416249
-416446
-416570
-416702
-416728
-416667
-416914
-417049
-417200
-417179
-417048
-417343
-417390
-417519
-417515
-417408
-417572
-417713
-417854
-417866
-417652
-417778
-417949
-418029
-418014
-417850
-418100
-418205
-418341
-418319
-418089
-418255
-418342
-418401
-418412
-418273
-418495
-418579
-418704
-418697
-418519
-418734
-418860
-419413
-419074
-418871
-419077
-419160
-419328
-419332
-419177
-419440
-419455
-419620
-419665
-419560
-419757
-419801
-420024
-420025
-419948
-420120
-420253
-420268
-420218
-420105
-420267
-420363
-420484
-420464
-420226
-420379
-420496
-420618
-420627
-420441
-420643
-420698
-420793
-420836
-420653
-420817
-421191
-421132
-421136
-420832
-420960
-420996
-421114
-421178
-420969
-421078
-420975
-420943
-420909
-420780
-421151
-421303
-421470
-421498
-421287
-421491
-421490
-421548
-421519
-421308
-421505
-421555
-421663
-421605
-421360
-421592
-421565
-421686
-421640
-421475
-421659
-421720
-421767
-421843
-421599
-421817
-421836
-421966
-421911
-421748
-421957
-422068
-422154
-422207
-421905
-422094
-422207
-422217
-422225
-422055
-422222
-422215
-422413
-422343
-422143
-422407
-422343
-422494
-422540
-422352
-422437
-422562
-422569
-422581
-422383
-422592
-422635
-422701
-422734
-422469
-422674
-422783
-422859
-422867
-422754
-422895
-423066
-423169
-423189
-423062
-423346
-423367
-423475
-423535
-423438
-423620
-423727
-423817
-423796
-423630
-423823
-423978
-424089
-424096
-423836
-423932
-424014
-424011
-424051
-423827
-424011
-424066
-424145
-424165
-424003
-424185
-424222
-424316
-424315
-424010
-424265
-424379
-424419
-424444
-424274
-424437
-424490
-424517
-424563
-424430
-424631
-424709
-424723
-424818
-424644
-424865
-424875
-424836
-425063
-424789
-424988
-425018
-425079
-425095
-424934
-425122
-425172
-425221
-425261
-425020
-425198
-425308
-425285
-425276
-425048
-425185
-425210
-425289
-425283
-424971
-425165
-425234
-425340
-425288
-425113
-425224
-425288
-425271
-425327
-425106
-425280
-425309
-425409
-425400
-425205
-425502
-425455
-425561
-425570
-425356
-425493
-425444
-425453
-425490
-425288
-425408
-425380
-425429
-425440
-425245
-425310
-425297
-425453
-425331
-424915
-425062
-424902
-424908
-424741
-424418
-424472
-424291
-424146
-424069
-423719
-423646
-423493
-423257
-422948
-422559
-422526
-422320
-422096
-421966
-421430
-421462
-421215
-421083
-420858
-420440
-420255
-420240
-420055
-420025
-419557
-419788
-419515
-419369
-419256
-418899
-418886
-418789
-419035
-418698
-418361
-418491
-418421
-418316
-418311
-418040
-418241
-418300
-418306
-418367
-418150
-418334
-418273
-418294
-418363
-418236
-418430
-418498
-418505
-418602
-418410
-418679
-418722
-418756
-418851
-418702
-418946
-418955
-419058
-419048
-418983
-419250
-419265
-419321
-419447
-419245
-419408
-419484
-419382
-419427
-419248
-419493
-419455
-419458
-419553
-419284
-419375
-419544
-419684
-419716
-419419
-419721
-419704
-419795
-419857
-419741
-419860
-419976
-419981
-420159
-419883
-420165
-420212
-420228
-420452
-420261
-420507
-420591
-420633
-420829
-420668
-420875
-421029
-421122
-421627
-420998
-421250
-421429
-421521
-421607
-421456
-421639
-421794
-421792
-422008
-421713
-421957
-422018
-422050
-422199
-421969
-422215
-422313
-422375
-422452
-422199
-422461
-422460
-422429
-422578
-422356
-422667
-422837
-422954
-423017
-422825
-423146
-423212
-423323
-423462
-423244
-423568
-423529
-423686
-423749
-423594
-423815
-423859
-423904
-424056
-423758
-424097
-424173
-424218
-424336
-424137
-424345
-424350
-424485
-424655
-424383
-424651
-424710
-424719
-424871
-424706
-424971
-425081
-425172
-425272
-425144
-425381
-425448
-425451
-425630
-425504
-425698
-425809
-425863
-425940
-425773
-425991
-426038
-426126
-426200
-426027
-426251
-426394
-426427
-426571
-426286
-426471
-426497
-426589
-426675
-426524
-426711
-426801
-426838
-426966
-426832
-427006
-427065
-427133
-427331
-427147
-427424
-427478
-427542
-427557
-427438
-427710
-427825
-427877
-427957
-427801
-427997
-428088
-428122
-428260
-428040
-428252
-428283
-428392
-428519
-428302
-428475
-428594
-428586
-428661
-428443
-428644
-428689
-428733
-428828
-428625
-428709
-429045
-428887
-428849
-428647
-428845
-428896
-428948
-428983
-428844
-429023
-429059
-429129
-429198
-428968
-429173
-429275
-429337
-429476
-429181
-429426
-429505
-429583
-429695
-429469
-429631
-429710
-429810
-429908
-429705
-429860
-429904
-429946
-430086
-429814
-430055
-430090
-430121
-430211
-430001
-430139
-430266
-430369
-430442
-430193
-430342
-430412
-430461
-430540
-430260
-430492
-430368
-430474
-430560
-430284
-430506
-430511
-430512
-430604
-430284
-430413
-430407
-430474
-430480
-430211
-430455
-430463
-430512
-430608
-430373
-430484
-430546
-430615
-430446
-430620
-430640
-430658
-430612
-430370
-430548
-430613
-430658
-430655
-430334
-430479
-430442
-430334
-430305
-429932
-430009
-429844
-429710
-429658
-429122
-429026
-428826
-428619
-428329
-427901
-427744
-427404
-427125
-426881
-426359
-426175
-425979
-425785
-425535
-424939
-424894
-424643
-424522
-424282
-423829
-423840
-423691
-423555
-423457
-423033
-423135
-423007
-422913
-422942
-422617
-423001
-422709
-422694
-422669
-422442
-422645
-422615
-422647
-422826
-422538
-422818
-422898
-423044
-423109
-422993
-423356
-423672
-423743
-423829
-423913
-423803
-424063
-424203
-424333
-424420
-424341
-424605
-424739
-424830
-425022
-424741
-424992
-425123
-425257
-425480
-425261
-425490
-425591
-425747
-426341
-426555
-426622
-426704
-426558
-426891
-426955
-426882
-427095
-427119
-427252
-427358
-427144
-427425
-427507
-427558
-427743
-427415
-427686
-427781
-427851
-427916
-427830
-428055
-428190
-428281
-428357
-428228
-428442
-428611
-428721
-428831
-428669
-428849
-428972
-429006
-429135
-429015
-429160
-429250
-429281
-429415
-429177
-429366
-429473
-429503
-429553
-429281
-429444
-429415
-429460
-429574
-429258
-429415
-429461
-429437
-429480
-429277
-429425
-429511
-429608
-429623
-429434
-429594
-429659
-429677
-429762
-429605
-429789
-429814
-429907
-430033
-429779
-430027
-429992
-430134
-429901
-430124
-430116
-430136
-430170
-429948
-430152
-430141
-430186
-430103
-429901
-429958
-429933
-429908
-429891
-429558
-429672
-429627
-429642
-429647
-429362
-429490
-429621
-429560
-429602
-429370
-429507
-429643
-429787
-429764
-429660
-429907
-430135
-430221
-430286
-430265
-430499
-430675
-430843
-430940
-430826
-431114
-431294
-431381
-431586
-431485
-431756
-431893
-432084
-432165
-432071
-432318
-432424
-432528
-432620
-432407
-432576
-432705
-432747
-432797
-432510
-432683
-432719
-432800
-432792
-432641
-432763
-432904
-432893
-432951
-432749
-432924
-433056
-433131
-433186
-433013
-433221
-433361
-433425
-433507
-433316
-433513
-433560
-433655
-433726
-433508
-433690
-433779
-433794
-433939
-433712
-433806
-433872
-433920
-433939
-433684
-433888
-433953
-433970
-433943
-433745
-433889
-433921
-433911
-433927
-433666
-433793
-433850
-433828
-433914
-433605
-433721
-433814
-433855
-433871
-433706
-433763
-434024
-434126
-434211
-434076
-434329
-434450
-434532
-434754
-434581
-434816
-434920
-435112
-435217
-434994
-435646
-435589
-435652
-435757
-435623
-435822
-435929
-436020
-436114
-435896
-436189
-436294
-436391
-436554
-436280
-436414
-436536
-436578
-436677
-436391
-436515
-436575
-436535
-436604
-436281
-436333
-436350
-436348
-436224
-435819
-435787
-435705
-435459
-435282
-434763
-434729
-434552
-434257
-433901
-433365
-433150
-432947
-432653
-432375
-431864
-431632
-431357
-431092
-430835
-430302
-430141
-429892
-429783
-429475
-429023
-428907
-428814
-428666
-428511
-428142
-428132
-428003
-427910
-427723
-427503
-427531
-427478
-427404
-427445
-427135
-427234
-427318
-427245
-427259
-427111
-427318
-427435
-427486
-427626
-427398
-427530
-427622
-427664
-427874
-427642
-427801
-427935
-428026
-428140
-427976
-428144
-428221
-428366
-428405
-428226
-428359
-428541
-428576
-428573
-428427
-428468
-428661
-428640
-428753
-428549
-428623
-428680
-428721
-428769
-428491
-428621
-428702
-428717
-428827
-428549
-428698
-428777
-428876
-428904
-428744
-428835
-428942
-428996
-429084
-428931
-429034
-429162
-429138
-429273
-429142
-429298
-429412
-429595
-429648
-429465
-429494
-429730
-429860
-429933
-429690
-429819
-429966
-430005
-430084
-429923
-430007
-430133
-430183
-430299
-430068
-430165
-430236
-430228
-430272
-430131
-430170
-430245
-430318
-430406
-430189
-430211
-430321
-430355
-430378
-430232
-430329
-430380
-430452
-430500
-430337
-430356
-430512
-430556
-430578
-430276
-430297
-430452
-430450
-430536
-430269
-430321
-430450
-430446
-430402
-430233
-430228
-430333
-430380
-430439
-430154
-430237
-430277
-430325
-430313
-430098
-430103
-430214
-430210
-430228
-430039
-430033
-430176
-430225
-430278
-430126
-430198
-430245
-430289
-430322
-430185
-430217
-430361
-430470
-430582
-430398
-430499
-430675
-430782
-430829
-430722
-430786
-430927
-431103
-431110
-430958
-431029
-431177
-431271
-431416
-431246
-431269
-431471
-431591
-431558
-431461
-431481
-431521
-431631
-431766
-431559
-431602
-431707
-431784
-431810
-431712
-431718
-431895
-431983
-432052
-431923
-431894
-432041
-432176
-432342
-432115
-432084
-432278
-432313
-432489
-432304
-432301
-432563
-432653
-432740
-432491
-432511
-432749
-432901
-432986
-432815
-432800
-432956
-433107
-433176
-433067
-433038
-433153
-433197
-433264
-433093
-433077
-433314
-433320
-433414
-433235
-433177
-433332
-433442
-433498
-433328
-433350
-433508
-433614
-433766
-433494
-433497
-433714
-433831
-433973
-433759
-433787
-433846
-434029
-434147
-433981
-433978
-434174
-434283
-434375
-434185
-434156
-434319
-434418
-434476
-434365
-434282
-434510
-434588
-434604
-434532
-434518
-434753
-434715
-434777
-434633
-434537
-434746
-434844
-435283
-434848
-434653
-434835
-434847
-434977
-434763
-434706
-434866
-434718
-434719
-434454
-434165
-434191
-434088
-434092
-433559
-433114
-433054
-432788
-432514
-431997
-431605
-431379
-431127
-430890
-430436
-430058
-429967
-429660
-429474
-428995
-428717
-428661
-428529
-428402
-428051
-427839
-427828
-427701
-427688
-427387
-427172
-427291
-427224
-427220
-427071
-426870
-426967
-427071
-427151
-426980
-426876
-427078
-427058
-427183
-426967
-426949
-427129
-427159
-427301
-427153
-427072
-427294
-427407
-427564
-427462
-427304
-427527
-427626
-427800
-427684
-427593
-427862
-428015
-428125
-427946
-427897
-428102
-428245
-428402
-428226
-428107
-428333
-428457
-428501
-428380
-428320
-428468
-428625
-428721
-428634
-428461
-428646
-428686
-428823
-428687
-428644
-428805
-428924
-429050
-428888
-428720
-428937
-429016
-429115
-429050
-428922
-429134
-429246
-429354
-429314
-429129
-429309
-429448
-429572
-429473
-429369
-429573
-429658
-429784
-429662
-429545
-429767
-429791
-429898
-429855
-429713
-429902
-430020
-430079
-430022
-429866
-430011
-430123
-430169
-429980
-429829
-430018
-430080
-430151
-430052
-429895
-430091
-429983
-430103
-430046
-429934
-429992
-430094
-430136
-430021
-429815
-430034
-430036
-430157
-430009
-429736
-429865
-429990
-430067
-429945
-429791
-429994
-429984
-430101
-429995
-429789
-429976
-429948
-430032
-429868
-429717
-429830
-429946
-430070
-429953
-429728
-429949
-429944
-430033
-429970
-429755
-429976
-430066
-430162
-430003
-429874
-430111
-430124
-430184
-430163
-429975
-430223
-430290
-430392
-430270
-430112
-430302
-430401
-430545
-430464
-430322
-430445
-430497
-430657
-430616
-430445
-430697
-430829
-430991
-430873
-430726
-430995
-431082
-431154
-431053
-430921
-431165
-431212
-431405
-431401
-431215
-431382
-431479
-431633
-431542
-431391
-431596
-431684
-431780
-431695
-431613
-431857
-431838
-432000
-431900
-431640
-431824
-431980
-432079
-432048
-431818
-432007
-432041
-432188
-432116
-431920
-432121
-432270
-432296
-432307
-432133
-432324
-432410
-432541
-432477
-432275
-432434
-432591
-432642
-432568
-432409
-432598
-432658
-432621
-432655
-432551
-432653
-432743
-432865
-432859
-432554
-432849
-432963
-433090
-433082
-432849
-433042
-433186
-433304
-433228
-433067
-433202
-433275
-433353
-433350
-433143
-433320
-433414
-433587
-433486
-433296
-433551
-433595
-433671
-433689
-433499
-433611
-433733
-433848
-433927
-433956
-433740
-433975
-434004
-434420
-434179
-433810
-434060
-434080
-434126
-434114
-433851
-433945
-433968
-433959
-433943
-433589
-433626
-433593
-433482
-433224
-432783
-432644
-432446
-432247
-431977
-431381
-431275
-431089
-430837
-430499
-429994
-429902
-429663
-429373
-429075
-428619
-428588
-428348
-428094
-427955
-427523
-427522
-427438
-427333
-427115
-426857
-426867
-426840
-426808
-426682
-426347
-426532
-426556
-426480
-426509
-426242
-426450
-426478
-426497
-426488
-426217
-426519
-426556
-426600
-426601
-426503
-426620
-426709
-426844
-427193
-426761
-426929
-427024
-427055
-427165
-427043
-427588
-427478
-427522
-427511
-427270
-427496
-427590
-427661
-427779
-427494
-427750
-427679
-427829
-427933
-427703
-427902
-427929
-428091
-428129
-427900
-428081
-428050
-428184
-428211
-428004
-428197
-428212
-428275
-428283
-428120
-428285
-428351
-428436
-428495
-428275
-428408
-428599
-428614
-428618
-428396
-428628
-428604
-428720
-428859
-428684
-428840
-428951
-429030
-429125
-428961
-429105
-429178
-429239
-429272
-429059
-429195
-429337
-429398
-429430
-429160
-429488
-429543
-429504
-429528
-429362
-429575
-429672
-429785
-429654
-429482
-429717
-429932
-429794
-429754
-429585
-429743
-429742
-429802
-429835
-429587
-429799
-429783
-429819
-429761
-429510
-429685
-429682
-429675
-429395
-429647
-429719
-429628
-429417
-429579
-429557
-429585
-429551
-429278
-429509
-429500
-429542
-429606
-429379
-429512
-429641
-429626
-429680
-429436
-429667
-429676
-429740
-429801
-429630
-429761
-429881
-429862
-429940
-429732
-429917
-430031
-430058
-430084
-429864
-430036
-430089
-430112
-430160
-430012
-430241
-430290
-430220
-430331
-430167
-430343
-430431
-430452
-430584
-430310
-430578
-430584
-430648
-430678
-430469
-430615
-430651
-430769
-430809
-430654
-430898
-430911
-430936
-430987
-430843
-430981
-431037
-431058
-431156
-430901
-431041
-431136
-431170
-431149
-430976
-431245
-431237
-431217
-431277
-431004
-431211
-431205
-431165
-431272
-431076
-431256
-431197
-431224
-431225
-430968
-431184
-431102
-431200
-431269
-431063
-431143
-431145
-431268
-431267
-431024
-431186
-431180
-431251
-431034
-431315
-431305
-431345
-431357
-431126
-431225
-431281
-431345
-431425
-431171
-431323
-431324
-431353
-431324
-431146
-431214
-431225
-431227
-431217
-430934
-431300
-431079
-431035
-431028
-430708
-430918
-430847
-430790
-430928
-430612
-430816
-430813
-430803
-430877
-430629
-430799
-430854
-430824
-430871
-430723
-430820
-430848
-430971
-430986
-430821
-431020
-431104
-431138
-431133
-430952
-431166
-431105
-431366
-431171
-430935
-431142
-431084
-431120
-431141
-430958
-431091
-431082
-431004
-430904
-430718
-430904
-430739
-430805
-430813
-430538
-430677
-430609
-430659
-430636
-430425
-430513
-430440
-430489
-430530
-430170
-430340
-430322
-430306
-430274
-430021
-430070
-429977
-429903
-429695
-429258
-429046
-428893
-428691
-428377
-427795
-427680
-427269
-426878
-426611
-425906
-425693
-425308
-424943
-424561
-424027
-423775
-423345
-423058
-422740
-422225
-422152
-421861
-421565
-421378
-420955
-420817
-420567
-420500
-420457
-420080
-419978
-419928
-419902
-419796
-419508
-419615
-419597
-419633
-419620
-419364
-419547
-419595
-419566
-419699
-419428
-419678
-419644
-419707
-419612
-419473
-419652
-419765
-419747
-419894
-419756
-419916
-419967
-419970
-420046
-419868
-420055
-420040
-420104
-420167
-419933
-420076
-420115
-420156
-420182
-419921
-420056
-420092
-420099
-420123
-419931
-420160
-420166
-420208
-420269
-420085
-420267
-420293
-420273
-420340
-420181
-420279
-420260
-420314
-420342
-420047
-420119
-420147
-420242
-420277
-420047
-420194
-420203
-420269
-420349
-420139
-420311
-420312
-420362
-420477
-420294
-420556
-420551
-420675
-420697
-420571
-420784
-420791
-420859
-421018
-420816
-420972
-421049
-421086
-421188
-420931
-421139
-421159
-421216
-421253
-421021
-421277
-421358
-421488
-421335
-421116
-421268
-421393
-421314
-421481
-421265
-421427
-421421
-421458
-421398
-421291
-421498
-421503
-421594
-421665
-421536
-421654
-421689
-421778
-421946
-421754
-421944
-422038
-422101
-422545
-422103
-422222
-422290
-422403
-422453
-422287
-422436
-422437
-422427
-422522
-422362
-422553
-422701
-422623
-422708
-422569
-422729
-422749
-422787
-422862
-422581
-422686
-422817
-422808
-422932
-422703
-422878
-422921
-423022
-423094
-422948
-423108
-423088
-423232
-423354
-423250
-423481
-423615
-423669
-423702
-423652
-423880
-423941
-424095
-424259
-424084
-424310
-424418
-424558
-424593
-424423
-424702
-424746
-424696
-424865
-424661
-425175
-425035
-425014
-425055
-424843
-425064
-425159
-425256
-425388
-425168
-425326
-425382
-425421
-425558
-425356
-425578
-425586
-425682
-425715
-425498
-425718
-425736
-425839
-425887
-425692
-425859
-425887
-425921
-426031
-425826
-426000
-426051
-426170
-426159
-425939
-426107
-426224
-426249
-426317
-426158
-426421
-426445
-426528
-426614
-426445
-426585
-426609
-426614
-426616
-426587
-426764
-426811
-426838
-426979
-426710
-426820
-426862
-426948
-426965
-426762
-426920
-426956
-426974
-427021
-426804
-427021
-427074
-427130
-427307
-427077
-427249
-427229
-427339
-427504
-427286
-427526
-427631
-427681
-427850
-427633
-427814
-427920
-428022
-428146
-428001
-428129
-428187
-428291
-428410
-428178
-428293
-428415
-428454
-428424
-428174
-428279
-428270
-428356
-428430
-428156
-428317
-428325
-428427
-428503
-428270
-428485
-428532
-428545
-428642
-428434
-428682
-428746
-428787
-428930
-428769
-429010
-429152
-429188
-429336
-429123
-429344
-429354
-429450
-429469
-429261
-429367
-429353
-429369
-429277
-428985
-429045
-428883
-428727
-428586
-428123
-428136
-427930
-427667
-427408
-426922
-426852
-426559
-426337
-426150
-425681
-425511
-425300
-425099
-424936
-424458
-424433
-424298
-424132
-424037
-423651
-423716
-423669
-423565
-423482
-423207
-423253
-423216
-423184
-423211
-422974
-423079
-423127
-423060
-423133
-422840
-423003
-422984
-422940
-423010
-422770
-422969
-422945
-423014
-423060
-422860
-422965
-423045
-423089
-423143
-422887
-423151
-423178
-423286
-423361
-423138
-423264
-423361
-423453
-423554
-423359
-423604
-423641
-423708
-423720
-423577
-423741
-423816
-423866
-423842
-423618
-423840
-423912
-423943
-423982
-423778
-423869
-423957
-423970
-424081
-423802
-423959
-423948
-424011
-423978
-423838
-424072
-424042
-424076
-424144
-423961
-424113
-424200
-424305
-424403
-424165
-424418
-424434
-424587
-424681
-424448
-424732
-424840
-424966
-425090
-424809
-425038
-425105
-425236
-425338
-425097
-425338
-425328
-425426
-425456
-425297
-425459
-425533
-425434
-425626
-425380
-425575
-425697
-425475
-425568
-425583
-425558
-425654
-425348
-425551
-425604
-425608
-425397
-425311
-425446
-425473
-425523
-425282
-425364
-425391
-425462
-425422
-425224
-425396
-425465
-425484
-425559
-425234
-425237
-425354
-425397
-425519
-425285
-425390
-425436
-425409
-425457
-425192
-425284
-425402
-425400
-425426
-425217
-425292
-425321
-425682
-425487
-425206
-425305
-425364
-425271
-425480
-425209
-425417
-425450
-425513
-425531
-425336
-425480
-425587
-425583
-425667
-425478
-425663
-425706
-425817
-425906
-425758
-426225
-426018
-426041
-426171
-425940
-426107
-426185
-426238
-426306
-426120
-426223
-426331
-426365
-426445
-426297
-426399
-426485
-426504
-426634
-426355
-426482
-426622
-426708
-426752
-426588
-426695
-426777
-426793
-426897
-426723
-426731
-426930
-427016
-427137
-426979
-427496
-427275
-427241
-427358
-427181
-427327
-427470
-427533
-427595
-427391
-427501
-427675
-427709
-427784
-427654
-427769
-427901
-427949
-427989
-427826
-427974
-427991
-428104
-428158
-427925
-427979
-428118
-428090
-428211
-428018
-428108
-428238
-428323
-428306
-428090
-428230
-428262
-428371
-428366
-428235
-428363
-428551
-428635
-428707
-428492
-428710
-428848
-428922
-429051
-428777
-428991
-429040
-429157
-429248
-429011
-429108
-429232
-429283
-429340
-429006
-429088
-429174
-429230
-429207
-429008
-429080
-429135
-429173
-429200
-428980
-429145
-429201
-429285
-429388
-429280
-429353
-429482
-429552
-429631
-429443
-429672
-429799
-429873
-429963
-429840
-429913
-430074
-430284
-430259
-430094
-430201
-430402
-430475
-430812
-430482
-430454
-430572
-430635
-430672
-430475
-430683
-430637
-430529
-430527
-430146
-430216
-430175
-430037
-429993
-429611
-429511
-429379
-429201
-429023
-428636
-428520
-428285
-428089
-427922
-427451
-427271
-427269
-426964
-426810
-426353
-426191
-426065
-425949
-425755
-425378
-425316
-425217
-425101
-424972
-424560
-424440
-424296
-424339
-424315
-423915
-423833
-423934
-423864
-423830
-423536
-423499
-423701
-423650
-423710
-423487
-423586
-423636
-423653
-423781
-423589
-423518
-423758
-423866
-424027
-423757
-423846
-423996
-424107
-424340
-424246
-424254
-424454
-424518
-424679
-424470
-424670
-424827
-424969
-425075
-424938
-424992
-425197
-425287
-425400
-425184
-425259
-425343
-425481
-425491
-425291
-425389
-425499
-425493
-425523
-425414
-425417
-425551
-425598
-425658
-425447
-425477
-425569
-425634
-425653
-425549
-425583
-425764
-425847
-425864
-425770
-425940
-426058
-426195
-425986
-426061
-426311
-426514
-426616
-426502
-426575
-426762
-426910
-426991
-426814
-426873
-427010
-427144
-427180
-426996
-426978
-427137
-427179
-427292
-427024
-426944
-427089
-427140
-427204
-426835
-426790
-426967
-427003
-426954
-426772
-426642
-427086
-426941
-426772
-426625
-426570
-426667
-426785
-426790
-426594
-426581
-426688
-426765
-426906
-426575
-426582
-426752
-426806
-426917
-426725
-426713
-426765
-426771
-426892
-426722
-426726
-426807
-426921
-426924
-426696
-426753
-426875
-427028
-427033
-426797
-426729
-426908
-427030
-427085
-426956
-426853
-427078
-427114
-427292
-427150
-427062
-427236
-427300
-427396
-427217
-427046
-427301
-427459
-427600
-427268
-427412
-427625
-427708
-427757
-427660
-427644
-427854
-428007
-428088
-428019
-427933
-428145
-428331
-428426
-428313
-428291
-428578
-428705
-428780
-428702
-428714
-428912
-429032
-429190
-428947
-428942
-429152
-429294
-429437
-429328
-429363
-429579
-429715
-429793
-429726
-429608
-429834
-429941
-430423
-430038
-429887
-430007
-430142
-430209
-430075
-430024
-430156
-430333
-430414
-430209
-430095
-430275
-430337
-430418
-430244
-430173
-430350
-430403
-430441
-430290
-430196
-430357
-430380
-430395
-430224
-430172
-430277
-430308
-430460
-430302
-430177
-430310
-430373
-430436
-430289
-430117
-430364
-430449
-430421
-430294
-430154
-430396
-430413
-430487
-430324
-430145
-430276
-430362
-430480
-430338
-430193
-430353
-430549
-430574
-430436
-430184
-430420
-430590
-430801
-430625
-430572
-430833
-430888
-431005
-430930
-430848
-431070
-431156
-431297
-431156
-431053
-431269
-431396
-431466
-431348
-431262
-431520
-431593
-431708
-431642
-431510
-431749
-431802
-431873
-431711
-431582
-431746
-431908
-432031
-431926
-431818
-431925
-432042
-432183
-432053
-431819
-432087
-432181
-432327
-432178
-432076
-432338
-432491
-432624
-432470
-432374
-432677
-432815
-432955
-432871
-432758
-432996
-433122
-433173
-433075
-432954
-433067
-433036
-433034
-432863
-432614
-432606
-432463
-432332
-432043
-431618
-431573
-431406
-431188
-430774
-430305
-430179
-430088
-429781
-429421
-428922
-428871
-428764
-428601
-428188
-427822
-427801
-427690
-427575
-427326
-426996
-427088
-427000
-427076
-426805
-426624
-426738
-426767
-426790
-426598
-426416
-426620
-426709
-426808
-426626
-426503
-426728
-426763
-426921
-426862
-426693
-426925
-427012
-427076
-426929
-426862
-427061
-427151
-427284
-427219
-427058
-427314
-427248
-427377
-427332
-427256
-427399
-427439
-427555
-427464
-427323
-427518
-427563
-427646
-427594
-427453
-427600
-427736
-427867
-427740
-427582
-427760
-427845
-427968
-427862
-427947
-427971
-427987
-428116
-428027
-427869
-428040
-428145
-428291
-428211
-428024
-428229
-428331
-428413
-428372
-428171
-428344
-428408
-428537
-428483
-428386
-428554
-428612
-428707
-428647
-428526
-428755
-428829
-428867
-428782
-428582
-428817
-428876
-429059
-429093
-428878
-429098
-429202
-429297
-429272
-429131
-429300
-429389
-429470
-429463
-429299
-429613
-429715
-429838
-429758
-429690
-429808
-429822
-429972
-429876
-429712
-429947
-429980
-429955
-430190
-429799
-429934
-429845
-430049
-429998
-429714
-429899
-429898
-429950
-429884
-429670
-429795
-429884
-429811
-429842
-429545
-429681
-429738
-429815
-429755
-429534
-429655
-429709
-429792
-429717
-429444
-429565
-429636
-429770
-429710
-429482
-429655
-429659
-429745
-429714
-429482
-429633
-429734
-429831
-429834
-429995
-429911
-429933
-429999
-429891
-429716
-429845
-429912
-430054
-430017
-429916
-430079
-430124
-430185
-430158
-429911
-430097
-430160
-430303
-430292
-430081
-430323
-430378
-430415
-430474
-430282
-430413
-430508
-430678
-430624
-430461
-430664
-430710
-430851
-430924
-430678
-430897
-430967
-431070
-431133
-430853
-431155
-431147
-431322
-431352
-431133
-431343
-431374
-431480
-431488
-431229
-431505
-431555
-431602
-431579
-431332
-431535
-431540
-431650
-431662
-431540
-431654
-431742
-431870
-431866
-431691
-431868
-431910
-432073
-432047
-432342
-432332
-432170
-432423
-432495
-432576
-432589
-432437
-432706
-432786
-432913
-432895
-432676
-432900
-432922
-433073
-433032
-432846
-433083
-433153
-433089
-433223
-433035
-433126
-433203
-433262
-433289
-433058
-433127
-433260
-433307
-433333
-433102
-433255
-433221
-433310
-433692
-433196
-433285
-433337
-433391
-433410
-433077
-433321
-433367
-433436
-433468
-433289
-433524
-433599
-433733
-433678
-433478
-433678
-433616
-433812
-433861
-433636
-433827
-433967
-434022
-434049
-433811
-434033
-434027
-434108
-434186
-433961
-434201
-434198
-434250
-433903
-434182
-434172
-434269
-434197
-433938
-433948
-433896
-433845
-433737
-433298
-433208
-433112
-432947
-432801
-432354
-432249
-432102
-431966
-431742
-431245
-431211
-431012
-430804
-430600
-430111
-430148
-429977
-429789
-429656
-429224
-429121
-429010
-428905
-428504
-428548
-428496
-428365
-428356
-427989
-428084
-428046
-428039
-427969
-427739
-427834
-427774
-427801
-427872
-427556
-427787
-427855
-427900
-427953
-427643
-427885
-427990
-428039
-428133
-427944
-428018
-428127
-428262
-428281
-428130
-428341
-428432
-428531
-428570
-428377
-428577
-428632
-428744
-428768
-428578
-428793
-428845
-428959
-429049
-428823
-428973
-429107
-429173
-429258
-428901
-429122
-429260
-429339
-429367
-429181
-429374
-429365
-429423
-429510
-429459
-429589
-429472
-429616
-429691
-429442
-429633
-429732
-429730
-429719
-429525
-429859
-429928
-429966
-430014
-429833
-430052
-430081
-430214
-430283
-430130
-430275
-430340
-430467
-430528
-430310
-430562
-430615
-430662
-430698
-430436
-430723
-431010
-430905
-430934
-430727
-430983
-431037
-431073
-431106
-431232
-431230
-431152
-431220
-431257
-431049
-431231
-431237
-431349
-431386
-431213
-431381
-431417
-431529
-431583
-431326
-431496
-431521
-431524
-431553
-431330
-431512
-431546
-431901
-431773
-431497
-431626
-431510
-431650
-431730
-431589
-431701
-431787
-431783
-431887
-431588
-431769
-431760
-431741
-431789
-431580
-431740
-431882
-431814
-431634
-431810
-431809
-431769
-431876
-431660
-431852
-431881
-431964
-431998
-431735
-431971
-431996
-432039
-432053
-431913
-432142
-432181
-432240
-432376
-432093
-432358
-432451
-432543
-432570
-432405
-432600
-432676
-432685
-432794
-432642
-432868
-432910
-433061
-433100
-432978
-433211
-433258
-433392
-433434
-433328
-433545
-433619
-433628
-433745
-433552
-433728
-433871
-433858
-434008
-433742
-434053
-434067
-434146
-434100
-433930
-434183
-434230
-434271
-434360
-434190
-434425
-434497
-434648
-434687
-434838
-434851
-434849
-435164
-435294
-435390
-435508
-435378
-435649
-435581
-435701
-435869
-435592
-435853
-435919
-435912
-435976
-435779
-436023
-436083
-436156
-436226
-436021
-436247
-436227
-436229
-436309
-436069
-436311
-436362
-436425
-436516
-436255
-436439
-436502
-436505
-436488
-436290
-436522
-436586
-436552
-436697
-436481
-436702
-436743
-436767
-436934
-436702
-436897
-437018
-437062
-437189
-437372
-437366
-437347
-437399
-437496
-437357
-437594
-437668
-437799
-437881
-437685
-437824
-437920
-437975
-438124
-437871
-438089
-438103
-438227
-438219
-437988
-438153
-438286
-438359
-438490
-438239
-438421
-438527
-438478
-438535
-438316
-438621
-438604
-438669
-438667
-438414
-438637
-438633
-438706
-438728
-438443
-438663
-438926
-438730
-438774
-438495
-438618
-438543
-438485
-438407
-438031
-438046
-437920
-437681
-437591
-437062
-437076
-436808
-436650
-436387
-435917
-435912
-435697
-435466
-435266
-434748
-434703
-434438
-434294
-434134
-433687
-433572
-433466
-433344
-433283
-432760
-432896
-432776
-432740
-432634
-432388
-432513
-432378
-432417
-432426
-432168
-432364
-432324
-432399
-432525
-432329
-432495
-432561
-432675
-432683
-432527
-432824
-432911
-433083
-433151
-432973
-433210
-433325
-433461
-433663
-433469
-433723
-433769
-433970
-434025
-433869
-434076
-434129
-434270
-434403
-434133
-434452
-434542
-434499
-434648
-434450
-434616
-434624
-434648
-434769
-434535
-434750
-434712
-434757
-434855
-434559
-434642
-434611
-434672
-434608
-434354
-434502
-434511
-434476
-434403
-434452
-434437
-434598
-434648
-434672
-434730
-434832
-434983
-434809
-435118
-435107
-435226
-435335
-435218
-435457
-435549
-435633
-435786
-435657
-435878
-435943
-436049
-436198
-436086
-436299
-436373
-436444
-436572
-436402
-436682
-436711
-436754
-436934
-436732
-437053
-437084
-437134
-437309
-437080
-437273
-437371
-437412
-437587
-437285
-437541
-437572
-437672
-437743
-437568
-437750
-437825
-437818
-437868
-437596
-437789
-437804
-437819
-437831
-437656
-437855
-437825
-437872
-438029
-437755
-437892
-437878
-437923
-437960
-437698
-437875
-437918
-438098
-437918
-437516
-437691
-437586
-437642
-437562
-437253
-437491
-437469
-437456
-437311
-437014
-437168
-437097
-437159
-437120
-436878
-436925
-436810
-436847
-436870
-436574
-436709
-436754
-436789
-436824
-436502
-436690
-436723
-436776
-436855
-436620
-436792
-436862
-436855
-436987
-436744
-436959
-437042
-437200
-437249
-436999
-437275
-437271
-437364
-437431
-437253
-437473
-437562
-437670
-437744
-437641
-437898
-438029
-438173
-438356
-438152
-438453
-438606
-438712
-438885
-438800
-439067
-439146
-439246
-439461
-439351
-439602
-439632
-439754
-439820
-439615
-439866
-439962
-440007
-440036
-439847
-440009
-440111
-440123
-440500
-440010
-440195
-440203
-440181
-440314
-440144
-440294
-440343
-440358
-440335
-439940
-440206
-440116
-440308
-440387
-440181
-440420
-440459
-440463
-440530
-440377
-440536
-440593
-440688
-440823
-440670
-440890
-440960
-441082
-441144
-441039
-441280
-441415
-441409
-441573
-441419
-441617
-441793
-441905
-442069
-441848
-442021
-442150
-442217
-442204
-441991
-442218
-442292
-442280
-442300
-442030
-442102
-442182
-442183
-442271
-441990
-442148
-442154
-442160
-442198
-441964
-442168
-442263
-442220
-442232
-442028
-442157
-442094
-442029
-441923
-441646
-441570
-441450
-441215
-441046
-440601
-440511
-440320
-440172
-439859
-439377
-439258
-439012
-438732
-438562
-438024
-437932
-437666
-437393
-437181
-436704
-436559
-436311
-436138
-436007
-435532
-435531
-435389
-435129
-435134
-434803
-434834
-434746
-434707
-434689
-434496
-434635
-434642
-434654
-434673
-434459
-434603
-434721
-434844
-434900
-434718
-434964
-434928
-435039
-435180
-435062
-435306
-435469
-435579
-435713
-435628
-435797
-435910
-435981
-436171
-436112
-436309
-436403
-436530
-436692
-436557
-436701
-436804
-436899
-436981
-436765
-436973
-437098
-437193
-437263
-437033
-437221
-437279
-437420
-437520
-437295
-437499
-437609
-437688
-437793
-437614
-437772
-437777
-437915
-437991
-437837
-437978
-438013
-438140
-438108
-438016
-438207
-438294
-438427
-438518
-438299
-438503
-438584
-438554
-438732
-438442
-438615
-438640
-438677
-438735
-438529
-438622
-438659
-438716
-438797
-438504
-438652
-438669
-438803
-438788
-438576
-438605
-438631
-438645
-438677
-438432
-438550
-438638
-438684
-438629
-438443
-438545
-438665
-438707
-438769
-438521
-438680
-438748
-438757
-438824
-438592
-438820
-438859
-438852
-438926
-438667
-438825
-438817
-438842
-438839
-438606
-438678
-438646
-438767
-438775
-438603
-438678
-438646
-438584
-438513
-438328
-438370
-438494
-438527
-438574
-438290
-438433
-438384
-438446
-438543
-438354
-438489
-438561
-438543
-438632
-438425
-438569
-438690
-438775
-438843
-438690
-438844
-438951
-439106
-439207
-439046
-439155
-439318
-439476
-439609
-439398
-439598
-439714
-439908
-439956
-439778
-439941
-440032
-440139
-440216
-440003
-440190
-440273
-440409
-440537
-440159
-440323
-440446
