PPG
-1205433
-1205315
-1206205
-1205227
-1205062
-1205503
-1205561
-1205781
-1205809
-1205565
-1205717
-1205807
-1205704
-1205348
-1205313
-1205755
-1205886
-1206016
-1206178
-1205975
-1206006
-1205979
-1205842
-1205472
-1205571
-1206104
-1206361
-1206520
-1206528
-1206323
-1206376
-1206538
-1206375
-1205987
-1206127
-1206611
-1206780
-1206919
-1206959
-1206785
-1206946
-1206953
-1206925
-1206704
-1206636
-1207037
-1207209
-1207485
-1207635
-1207298
-1207420
-1207447
-1207291
-1207062
-1207071
-1207438
-1207675
-1207902
-1207778
-1207498
-1207531
-1207337
-1207101
-1206901
-1206688
-1206945
-1207056
-1207092
-1207037
-1206443
-1206277
-1205999
-1205695
-1205086
-1204845
-1204912
-1204741
-1204589
-1204424
-1203933
-1203620
-1203340
-1202942
-1202327
-1202085
-1202098
-1202104
-1201982
-1201837
-1201345
-1201083
-1200861
-1200609
-1200194
-1199852
-1200194
-1200176
-1200054
-1200142
-1199741
-1199613
-1199718
-1199440
-1199161
-1198847
-1199347
-1199484
-1199486
-1199215
-1199317
-1199361
-1199404
-1199167
-1199104
-1199330
-1199588
-1199734
-1200011
-1199721
-1199787
-1199843
-1199877
-1199645
-1199692
-1200005
-1200244
-1200463
-1200778
-1200607
-1200735
-1200813
-1200888
-1200685
-1200525
-1200886
-1201211
-1201363
-1201736
-1201544
-1201641
-1201793
-1201725
-1201618
-1201532
-1202139
-1202356
-1202522
-1202691
-1202539
-1202788
-1202834
-1202745
-1202541
-1202518
-1203034
-1203247
-1203333
-1203623
-1203574
-1204392
-1204046
-1203936
-1203708
-1203645
-1203953
-1204221
-1204510
-1204767
-1204504
-1204633
-1204732
-1204699
-1204569
-1204615
-1204965
-1205088
-1205046
-1205663
-1205339
-1205490
-1205760
-1205629
-1205540
-1205433
-1205913
-1205836
-1206233
-1206599
-1206267
-1206378
-1206632
-1206517
-1205933
-1206127
-1206804
-1206915
-1207109
-1207464
-1207288
-1207275
-1207310
-1207386
-1207196
-1207058
-1207505
-1207689
-1207930
-1208171
-1207929
-1208036
-1208144
-1207730
-1207776
-1207704
-1208142
-1208415
-1208395
-1208650
-1208441
-1208357
-1208559
-1208479
-1208161
-1207992
-1208440
-1208667
-1208749
-1209026
-1208768
-1208819
-1208585
-1208221
-1208656
-1208509
-1208748
-1208944
-1208729
-1209029
-1208674
-1208792
-1208826
-1208888
-1208719
-1208409
-1208912
-1208932
-1209068
-1209368
-1209107
-1209279
-1209285
-1209420
-1208857
-1208637
-1209027
-1209292
-1209478
-1209946
-1209536
-1209454
-1209467
-1209402
-1209258
-1209213
-1209392
-1209566
-1210078
-1210168
-1209991
-1210124
-1210325
-1210166
-1209950
-1209692
-1210519
-1210220
-1210230
-1210778
-1210433
-1210385
-1210306
-1210221
-1210050
-1209709
-1210084
-1210216
-1210334
-1210604
-1210322
-1210352
-1210275
-1210219
-1209767
-1209616
-1209951
-1210330
-1210219
-1210447
-1210142
-1210182
-1210186
-1210248
-1210017
-1209642
-1210153
-1210580
-1210472
-1210686
-1210311
-1210029
-1210450
-1210603
-1210433
-1210230
-1210703
-1211090
-1211029
-1211144
-1211378
-1211400
-1211331
-1211414
-1211410
-1210813
-1211527
-1211475
-1211512
-1211978
-1211525
-1211570
-1210830
-1211181
-1210704
-1210149
-1210388
-1210502
-1210359
-1210393
-1209840
-1209689
-1209545
-1210181
-1209097
-1208482
-1208266
-1208336
-1208000
-1207679
-1207415
-1207329
-1207177
-1207052
-1206767
-1206174
-1206064
-1206278
-1205904
-1205965
-1205347
-1205116
-1204919
-1205364
-1205152
-1205130
-1204903
-1204970
-1204714
-1205088
-1204631
-1205848
-1204649
-1205084
-1204888
-1204823
-1204939
-1204948
-1204970
-1205402
-1205462
-1205361
-1205297
-1205592
-1205899
-1205862
-1206646
-1206298
-1206677
-1206930
-1206709
-1206821
-1206458
-1207138
-1207282
-1207380
-1208108
-1207874
-1208165
-1208538
-1208372
-1207846
-1208308
-1208497
-1208902
-1209065
-1209220
-1209318
-1209671
-1209552
-1209859
-1209669
-1210223
-1210133
-1210989
-1211291
-1211458
-1211356
-1211859
-1211877
-1212061
-1212089
-1211971
-1212521
-1212048
-1212239
-1212394
-1212510
-1212564
-1212904
-1212612
-1211933
-1211741
-1212432
-1212691
-1212942
-1213269
-1213186
-1213321
-1213196
-1213145
-1212792
-1212565
-1212825
-1212968
-1213095
-1213604
-1213954
-1214629
-1216152
-1216097
-1216461
-1215696
-1216220
-1216163
-1216502
-1217017
-1216848
-1216800
-1216983
-1217219
-1216772
-1216935
-1217635
-1217173
-1216902
-1217429
-1217446
-1217693
-1217835
-1217403
-1217108
-1217119
-1217468
-1217733
-1217835
-1218126
-1217933
-1218083
-1218248
-1218294
-1217730
-1217377
-1217648
-1217963
-1218196
-1218445
-1218286
-1218347
-1218174
-1218152
-1217873
-1217845
-1217984
-1218218
-1218288
-1218652
-1218401
-1218506
-1218603
-1218547
-1218265
-1218279
-1218639
-1218823
-1218806
-1218839
-1218711
-1218687
-1218620
-1218801
-1218557
-1218362
-1218572
-1218725
-1218710
-1218677
-1218564
-1218809
-1218740
-1218689
-1218395
-1218069
-1218258
-1218338
-1218409
-1218708
-1218509
-1218699
-1218637
-1218400
-1218178
-1217991
-1218338
-1218590
-1218587
-1218754
-1218614
-1218632
-1218800
-1218554
-1218343
-1218250
-1218693
-1218763
-1218999
-1219103
-1218860
-1218906
-1218896
-1219044
-1218760
-1218575
-1219000
-1219267
-1219159
-1219393
-1219275
-1219328
-1219232
-1219342
-1219163
-1218957
-1219270
-1219321
-1219274
-1219416
-1219459
-1219300
-1219383
-1219395
-1219035
-1218828
-1219085
-1219157
-1219129
-1219282
-1219290
-1219277
-1219308
-1219137
-1218775
-1218793
-1219069
-1219208
-1219415
-1219543
-1219430
-1219365
-1219567
-1219562
-1219120
-1218960
-1219416
-1219567
-1219425
-1219544
-1219310
-1219400
-1219271
-1219204
-1218764
-1218541
-1218930
-1218583
-1218775
-1218814
-1218389
-1218241
-1218274
-1217953
-1217589
-1217134
-1217275
-1217126
-1216927
-1216707
-1216434
-1216059
-1215750
-1215434
-1214909
-1214420
-1214463
-1214336
-1214065
-1213895
-1213422
-1213066
-1212871
-1212636
-1212055
-1211724
-1211713
-1211802
-1211598
-1211560
-1211117
-1211070
-1210852
-1210718
-1210040
-1209908
-1210131
-1210185
-1209943
-1209961
-1209839
-1209740
-1209792
-1209709
-1209228
-1209095
-1209410
-1209606
-1209449
-1209656
-1209497
-1209586
-1209511
-1209530
-1209193
-1209111
-1209394
-1209710
-1209640
-1209755
-1209779
-1209711
-1209777
-1209739
-1209550
-1209294
-1209688
-1209839
-1209966
-1210251
-1210150
-1210140
-1210218
-1210359
-1209954
-1209791
-1210286
-1210604
-1210649
-1210770
-1210631
-1210599
-1210674
-1210698
-1210478
-1210490
-1210781
-1210962
-1211028
-1211281
-1211237
-1211168
-1211274
-1211284
-1211216
-1211200
-1211543
-1211725
-1211806
-1211956
-1211926
-1212010
-1212111
-1212261
-1211862
-1211888
-1212225
-1212407
-1212427
-1212771
-1212688
-1212874
-1212973
-1212971
-1212766
-1212737
-1213128
-1213418
-1213533
-1213849
-1213787
-1213880
-1213892
-1213949
-1213785
-1213570
-1213940
-1214319
-1214327
-1214493
-1214525
-1214626
-1214703
-1214560
-1214468
-1214309
-1214626
-1214955
-1214950
-1215178
-1215051
-1215155
-1216186
-1215627
-1215110
-1215009
-1215382
-1215547
-1215575
-1215653
-1215625
-1215712
-1215540
-1215630
-1215331
-1215319
-1215712
-1215891
-1215976
-1216257
-1215953
-1215934
-1216045
-1215955
-1215620
-1215519
-1215913
-1215924
-1215978
-1216203
-1215996
-1215912
-1215930
-1215957
-1215436
-1215210
-1215626
-1215851
-1215861
-1215926
-1215748
-1215833
-1215791
-1215566
-1215088
-1214988
-1215418
-1215442
-1215547
-1215656
-1215353
-1215338
-1215313
-1215295
-1214806
-1214837
-1215210
-1215090
-1215194
-1215240
-1215107
-1215178
-1215226
-1215198
-1214907
-1214642
-1215020
-1215143
-1215083
-1215290
-1215118
-1215189
-1215209
-1215237
-1214815
-1214619
-1215118
-1215328
-1215338
-1215646
-1215370
-1215529
-1215496
-1215474
-1215109
-1214927
-1215460
-1215525
-1215647
-1215791
-1215602
-1215653
-1215578
-1215777
-1215332
-1215215
-1215604
-1215815
-1215860
-1216110
-1215922
-1215893
-1215863
-1215988
-1215684
-1215430
-1215867
-1216067
-1216219
-1216150
-1216238
-1216163
-1216105
-1216273
-1216023
-1215758
-1216193
-1216344
-1216410
-1216535
-1216389
-1216484
-1216520
-1216530
-1216501
-1216205
-1216366
-1216577
-1216590
-1216755
-1216569
-1216424
-1216336
-1216402
-1216206
-1215680
-1215880
-1215843
-1215799
-1215639
-1215369
-1215253
-1215064
-1214745
-1214455
-1213856
-1213869
-1213743
-1213544
-1213315
-1213065
-1212679
-1212461
-1212125
-1211359
-1210908
-1210900
-1210967
-1210601
-1210465
-1210187
-1210024
-1209682
-1209545
-1209066
-1208579
-1208553
-1208543
-1208620
-1208547
-1208222
-1208146
-1208029
-1207924
-1207864
-1207399
-1207421
-1207637
-1207705
-1207678
-1207552
-1207615
-1207584
-1207558
-1207291
-1206857
-1207213
-1207465
-1207691
-1207924
-1207661
-1207569
-1207744
-1207805
-1207603
-1207223
-1207537
-1207913
-1208004
-1208116
-1208152
-1208271
-1208270
-1208361
-1208328
-1207929
-1208368
-1208694
-1208749
-1208946
-1208954
-1208849
-1208978
-1209046
-1208826
-1208651
-1208984
-1209342
-1209535
-1209904
-1209715
-1209703
-1209829
-1209895
-1209618
-1209331
-1209695
-1209976
-1210272
-1210489
-1210281
-1210416
-1210589
-1210565
-1210094
-1210109
-1210383
-1210879
-1210902
-1211235
-1211174
-1211277
-1211361
-1211315
-1210922
-1211019
-1211298
-1211723
-1211895
-1212304
-1212128
-1212073
-1212186
-1212232
-1212254
-1212799
-1212585
-1212646
-1212695
-1212943
-1212991
-1212950
-1213104
-1213249
-1213038
-1212821
-1213072
-1213454
-1213639
-1213954
-1213775
-1213742
-1213932
-1214007
-1213865
-1213710
-1213947
-1214196
-1214412
-1214629
-1214557
-1214612
-1214588
-1214513
-1214518
-1214229
-1214562
-1214847
-1214861
-1215125
-1215101
-1214919
-1214906
-1214963
-1214697
-1214772
-1215119
-1215133
-1215347
-1215314
-1215212
-1215119
-1215231
-1215020
-1214633
-1214885
-1215083
-1215238
-1215589
-1215220
-1215216
-1215202
-1215192
-1214921
-1214553
-1214723
-1214910
-1214948
-1215181
-1215055
-1214894
-1215146
-1214926
-1214631
-1214512
-1214740
-1215011
-1215023
-1215082
-1215054
-1214920
-1215043
-1214989
-1214809
-1214484
-1214626
-1214981
-1214976
-1215304
-1215255
-1215188
-1215211
-1215217
-1214939
-1214600
-1214878
-1215178
-1215279
-1215414
-1215376
-1215236
-1215332
-1215375
-1215273
-1215018
-1215080
-1215477
-1215728
-1215847
-1215905
-1215754
-1215797
-1215836
-1215773
-1215374
-1215482
-1215878
-1216138
-1216349
-1216256
-1216170
-1216294
-1216371
-1216166
-1215966
-1216199
-1216509
-1216683
-1216440
-1216655
-1217241
-1216984
-1216961
-1216866
-1216505
-1216629
-1216940
-1217057
-1217321
-1217402
-1217200
-1217277
-1217431
-1217263
-1217089
-1217063
-1217457
-1217668
-1217850
-1217871
-1217700
-1217668
-1217842
-1217709
-1217286
-1217371
-1217661
-1217521
-1217695
-1217629
-1217296
-1217247
-1217145
-1216863
-1216346
-1216329
-1216423
-1216314
-1216344
-1215866
-1215492
-1215216
-1214940
-1214563
-1213736
-1213737
-1213837
-1213668
-1213630
-1213213
-1212936
-1212646
-1212305
-1212077
-1211584
-1211457
-1211541
-1211449
-1211332
-1211121
-1210620
-1210603
-1210545
-1210241
-1209736
-1209767
-1209939
-1210023
-1210129
-1209973
-1209659
-1209623
-1209427
-1209363
-1208964
-1208993
-1209284
-1209363
-1209601
-1209682
-1209607
-1209484
-1209188
-1209038
-1209110
-1209318
-1209744
-1209887
-1210228
-1210084
-1209890
-1210135
-1210086
-1210023
-1209760
-1209929
-1210508
-1210552
-1210880
-1210860
-1210682
-1210986
-1210966
-1211016
-1210773
-1210877
-1211316
-1211353
-1211645
-1211678
-1211562
-1211660
-1211872
-1211667
-1211620
-1211610
-1212083
-1212333
-1212577
-1212536
-1212454
-1212597
-1212620
-1212602
-1212252
-1212388
-1212932
-1213130
-1213394
-1213472
-1213273
-1213396
-1213270
-1213421
-1213083
-1213440
-1213807
-1213954
-1214204
-1214280
-1214201
-1214344
-1214442
-1214342
-1214106
-1214102
-1214481
-1214833
-1215187
-1215211
-1215069
-1215042
-1215075
-1215149
-1214790
-1214879
-1215372
-1215496
-1215909
-1215810
-1215750
-1215854
-1215895
-1215965
-1215711
-1215617
-1216131
-1216317
-1216461
-1216194
-1216324
-1216578
-1216519
-1216588
-1216181
-1216242
-1216749
-1216952
-1217066
-1217146
-1216900
-1217145
-1217097
-1216997
-1216678
-1216717
-1217173
-1217368
-1217529
-1217518
-1217395
-1217339
-1217434
-1217164
-1216827
-1216924
-1217386
-1217308
-1217505
-1217611
-1217474
-1217407
-1217375
-1217216
-1216945
-1216882
-1217314
-1217356
-1217619
-1217641
-1217335
-1217269
-1217376
-1217295
-1216917
-1216807
-1217154
-1217294
-1217625
-1217475
-1217248
-1217421
-1217293
-1217302
-1217007
-1216932
-1217273
-1217352
-1217400
-1217542
-1217260
-1217291
-1217413
-1217223
-1216908
-1216889
-1217363
-1217580
-1217574
-1217555
-1217505
-1217615
-1217517
-1217390
-1217034
-1216983
-1218316
-1217944
-1217941
-1218029
-1217692
-1217853
-1217807
-1217823
-1217473
-1217562
-1217878
-1218087
-1218269
-1218293
-1218049
-1218170
-1218219
-1218145
-1217966
-1217935
-1218439
-1218536
-1218697
-1218754
-1218503
-1218678
-1218660
-1218772
-1218571
-1218384
-1218836
-1219035
-1219230
-1219463
-1219095
-1219151
-1219213
-1219236
-1218829
-1218874
-1219361
-1219579
-1219603
-1219752
-1219578
-1219757
-1219738
-1219647
-1219488
-1219265
-1219785
-1219754
-1219937
-1220052
-1219795
-1219657
-1219721
-1219462
-1219088
-1218886
-1219036
-1219112
-1219152
-1219169
-1218669
-1218618
-1218218
-1217961
-1217327
-1216677
-1217069
-1216932
-1216876
-1216748
-1216135
-1215956
-1215757
-1215418
-1214920
-1214583
-1214601
-1214479
-1214542
-1214289
-1213843
-1213596
-1213474
-1213341
-1212741
-1212584
-1212762
-1212500
-1212648
-1212572
-1212278
-1212173
-1211974
-1211922
-1211595
-1211290
-1211554
-1211750
-1211847
-1211793
-1211445
-1211593
-1211722
-1211578
-1211342
-1211945
-1211798
-1211779
-1211791
-1211992
-1211687
-1211819
-1211855
-1211862
-1211610
-1211564
-1211940
-1212237
-1212364
-1212437
-1212381
-1212413
-1212633
-1212702
-1212257
-1212236
-1212859
-1213012
-1213182
-1213382
-1213150
-1213175
-1213324
-1213265
-1213060
-1213162
-1213467
-1213376
-1213898
-1214060
-1213875
-1213983
-1214195
-1214202
-1213912
-1213920
-1214272
-1214452
-1214616
-1214944
-1214728
-1214864
-1214827
-1214978
-1214299
-1214550
-1214996
-1215228
-1215222
-1215727
-1215559
-1215556
-1215722
-1215733
-1215558
-1215483
-1215895
-1216010
-1216052
-1216261
-1216068
-1216322
-1216360
-1216236
-1215963
-1216004
-1216415
-1217410
-1216952
-1216935
-1216692
-1216855
-1216888
-1216955
-1216695
-1216671
-1216909
-1217075
-1217182
-1217404
-1217208
-1217333
-1217388
-1217445
-1217327
-1217139
-1217568
-1217643
-1217795
-1217904
-1217739
-1217960
-1217867
-1217856
-1217710
-1217551
-1217779
-1218074
-1218189
-1218253
-1218144
-1218137
-1218231
-1218198
-1218007
-1217840
-1218231
-1218361
-1218343
-1218440
-1218388
-1218337
-1218309
-1218353
-1218132
-1217964
-1218253
-1218240
-1218349
-1218457
-1218118
-1218345
-1218317
-1218333
-1217867
-1217651
-1217984
-1218192
-1218222
-1218378
-1218130
-1218209
-1218186
-1218223
-1217737
-1217634
-1217725
-1217986
-1218064
-1218258
-1218137
-1218138
-1218294
-1218195
-1218040
-1217805
-1218238
-1218391
-1218435
-1219132
-1218529
-1218315
-1218417
-1218419
-1218179
-1218036
-1218421
-1218574
-1218576
-1218716
-1218468
-1218598
-1218656
-1218614
-1218409
-1218175
-1218550
-1218795
-1218828
-1218941
-1218873
-1218818
-1218948
-1218872
-1218732
-1218597
-1218923
-1218955
-1219088
-1219090
-1218956
-1219093
-1219153
-1219390
-1219066
-1218902
-1219262
-1219511
-1219519
-1219752
-1219460
-1219827
-1219913
-1219968
-1219854
-1219647
-1220011
-1220213
-1220226
-1220110
-1219894
-1220166
-1220333
-1220297
-1220176
-1220082
-1220188
-1220478
-1220452
-1220620
-1220333
-1220559
-1220526
-1220464
-1220376
-1220103
-1220185
-1220319
-1220434
-1220506
-1219991
-1220052
-1219979
-1219855
-1219613
-1219295
-1219175
-1219166
-1218905
-1218867
-1217879
-1217974
-1217904
-1217618
-1217342
-1216893
-1216772
-1216720
-1216451
-1216205
-1215628
-1215551
-1215281
-1214933
-1214704
-1214308
-1214180
-1213965
-1213826
-1213607
-1213161
-1212999
-1212842
-1212731
-1212262
-1212386
-1212235
-1212218
-1212111
-1211813
-1211840
-1211975
-1211898
-1211793
-1211533
-1211577
-1211650
-1211634
-1211612
-1211517
-1211589
-1211608
-1211622
-1211587
-1211322
-1211566
-1211922
-1212012
-1211941
-1211720
-1211793
-1211968
-1212038
-1211989
-1211977
-1212148
-1212324
-1212534
-1212482
-1212384
-1212465
-1212539
-1212642
-1212607
-1212602
-1212849
-1213077
-1213010
-1213088
-1212911
-1213015
-1213277
-1213338
-1213266
-1213080
-1213455
-1213643
-1213778
-1213790
-1214419
-1214136
-1214059
-1214212
-1214080
-1213788
-1214150
-1214314
-1214536
-1214531
-1214274
-1214569
-1214655
-1214647
-1214732
-1214639
-1214882
-1215083
-1215060
-1215279
-1215022
-1215364
-1215344
-1215538
-1215512
-1215347
-1215656
-1215845
-1215885
-1215881
-1215800
-1215977
-1216227
-1216321
-1216199
-1216088
-1216357
-1216482
-1216527
-1216881
-1216752
-1216834
-1216989
-1217120
-1217003
-1216922
-1217166
-1217195
-1217415
-1217430
-1217311
-1217416
-1217588
-1217667
-1217587
-1217361
-1217611
-1217983
-1217975
-1217911
-1217867
-1217927
-1218132
-1218051
-1217934
-1217870
-1218205
-1218374
-1218245
-1218274
-1218202
-1218324
-1218429
-1218390
-1218187
-1218069
-1218048
-1218224
-1218447
-1218509
-1218012
-1218245
-1218262
-1218310
-1217671
-1217877
-1218184
-1218385
-1218357
-1218364
-1218337
-1218386
-1218383
-1218452
-1218108
-1217844
-1218256
-1218300
-1218260
-1218382
-1218148
-1218293
-1218359
-1218440
-1218083
-1217926
-1217879
-1218192
-1218435
-1218570
-1218451
-1218562
-1218512
-1218459
-1218209
-1218041
-1218470
-1218754
-1218717
-1218901
-1219662
-1219017
-1218806
-1218802
-1218368
-1218234
-1218724
-1219018
-1218974
-1219258
-1219113
-1219265
-1218979
-1219120
-1219139
-1218874
-1219191
-1219365
-1219495
-1219717
-1219504
-1219743
-1219709
-1219789
-1220400
-1219675
-1219868
-1219998
-1220127
-1220052
-1219878
-1220182
-1220181
-1220043
-1219778
-1219752
-1220285
-1220347
-1220488
-1220624
-1220433
-1220592
-1220619
-1220643
-1220336
-1220212
-1220708
-1220945
-1220841
-1221018
-1220913
-1220980
-1221052
-1220902
-1220566
-1220654
-1221070
-1221252
-1221404
-1221488
-1221289
-1221277
-1221449
-1221404
-1221136
-1221320
-1221395
-1221655
-1221569
-1221362
-1221414
-1221339
-1220806
-1220697
-1220469
-1220678
-1220631
-1220509
-1220344
-1220088
-1220025
-1219519
-1219529
-1218867
-1218629
-1218708
-1218469
-1218331
-1218045
-1217636
-1217359
-1217139
-1216888
-1216116
-1215865
-1216023
-1215959
-1215744
-1215750
-1215176
-1215075
-1214871
-1214621
-1214636
-1213968
-1213999
-1214110
-1214034
-1213913
-1213601
-1213564
-1213489
-1213350
-1212812
-1212604
-1212657
-1212960
-1212725
-1212909
-1212696
-1212829
-1212967
-1212904
-1212429
-1212379
-1212706
-1212799
-1213068
-1213111
-1212856
-1213003
-1213200
-1213150
-1212725
-1212743
-1213064
-1213455
-1213470
-1213636
-1213629
-1213581
-1213622
-1213760
-1213627
-1213376
-1213809
-1213979
-1214071
-1214174
-1214001
-1214225
-1214231
-1214144
-1213866
-1213696
-1214112
-1214449
-1214544
-1214699
-1214578
-1214667
-1214515
-1214769
-1214384
-1214386
-1214663
-1215010
-1215229
-1215178
-1215093
-1215406
-1215457
-1215494
-1215166
-1214821
-1215414
-1215778
-1215965
-1216286
-1215971
-1216022
-1216243
-1216083
-1215900
-1215717
-1216226
-1216591
-1216526
-1216745
-1216526
-1216598
-1216664
-1216685
-1216453
-1216335
-1216664
-1216867
-1217112
-1217258
-1217157
-1217266
-1217268
-1217456
-1217134
-1217097
-1217394
-1217670
-1217576
-1217825
-1217814
-1217931
-1217950
-1217856
-1217690
-1217661
-1218018
-1218182
-1218273
-1218437
-1218257
-1218541
-1218516
-1218613
-1218283
-1218304
-1218564
-1218709
-1218897
-1219130
-1218895
-1218464
-1218733
-1218561
-1218282
-1218456
-1218420
-1218925
-1218959
-1218665
-1218775
-1218935
-1218948
-1218999
-1218782
-1218562
-1218586
-1218917
-1218889
-1218970
-1218757
-1218577
-1218524
-1218959
-1218604
-1218548
-1218404
-1218748
-1218922
-1218765
-1218703
-1218804
-1218985
-1219129
-1218865
-1218530
-1218765
-1219129
-1219314
-1219225
-1219130
-1219253
-1220151
-1219719
-1219383
-1219105
-1219544
-1219786
-1219822
-1219505
-1219637
-1219891
-1219886
-1219830
-1219690
-1219574
-1220040
-1221364
-1220664
-1220568
-1220331
-1220134
-1221215
-1220661
-1220158
-1220197
-1220660
-1220977
-1220952
-1220908
-1220671
-1221676
-1221499
-1221251
-1221576
-1221082
-1221436
-1221219
-1221447
-1221660
-1221545
-1221530
-1221992
-1221772
-1221459
-1222199
-1222415
-1223106
-1222296
-1221974
-1222030
-1222244
-1222008
-1222309
-1222121
-1221720
-1222312
-1222548
-1222468
-1222676
-1223358
-1222761
-1222878
-1222734
-1222366
-1222435
-1222707
-1222841
-1223027
-1223215
-1223168
-1223342
-1223357
-1223291
-1223798
-1223092
-1223343
-1223217
-1223354
-1223569
-1223473
-1223216
-1223325
-1223340
-1222905
-1222764
-1223163
-1222960
-1223244
-1223145
-1223009
-1223908
-1223005
-1222780
-1222188
-1221823
-1222900
-1222250
-1221817
-1221568
-1221060
-1221094
-1220504
-1220277
-1219821
-1219192
-1219446
-1219476
-1220110
-1219529
-1218941
-1218774
-1218537
-1218355
-1217703
-1217530
-1217655
-1217760
-1217639
-1217580
-1217388
-1217064
-1217090
-1217046
-1216632
-1216390
-1216726
-1216829
-1216876
-1216601
-1216344
-1216830
-1216739
-1216748
-1216386
-1216266
-1216332
-1216573
-1216732
-1217025
-1216844
-1217020
-1217098
-1218018
-1217063
-1216784
-1217223
-1216972
-1217447
-1217580
-1217447
-1217746
-1217873
-1217705
-1217415
-1217435
-1217804
-1218034
-1218844
-1218480
-1218126
-1218155
-1218175
-1218259
-1218014
-1218069
-1218776
-1218902
-1218901
-1219157
-1219153
-1219240
-1219201
-1219383
-1219161
-1219078
-1219396
-1219614
-1219708
-1220145
-1219947
-1219981
-1220192
-1220200
-1220703
-1220045
-1220367
-1220627
-1220483
-1220978
-1220948
-1221958
-1221448
-1221365
-1220915
-1220898
-1222309
-1221690
-1221668
-1221648
-1221690
-1221765
-1221771
-1221799
-1221438
-1221334
-1221647
-1221846
-1222092
-1222408
-1222203
-1222381
-1222459
-1222592
-1222457
-1222516
-1222801
-1223215
-1223304
-1223371
-1223191
-1223492
-1223467
-1223552
-1222920
-1223035
-1223696
-1223829
-1223918
-1224054
-1223831
-1224093
-1224141
-1224163
-1223921
-1223833
-1224095
-1224266
-1224457
-1224612
-1224474
-1224649
-1224640
-1224684
-1224365
-1224294
-1224546
-1224802
-1224791
-1224992
-1224758
-1224972
-1224880
-1224974
-1224710
-1224615
-1224912
-1225058
-1225135
-1225283
-1225175
-1225072
-1225096
-1225104
-1224699
-1224605
-1225026
-1225085
-1225057
-1225178
-1225131
-1225211
-1225163
-1225224
-1224855
-1224875
-1225241
-1225324
-1225316
-1225445
-1225467
-1225561
-1225562
-1225398
-1225192
-1225512
-1225731
-1225874
-1226010
-1225996
-1225998
-1225995
-1225927
-1225876
-1225595
-1226086
-1226374
-1226543
-1226672
-1226489
-1226562
-1226613
-1226839
-1226470
-1226426
-1226636
-1227074
-1227127
-1227336
-1227251
-1227409
-1227408
-1227366
-1227015
-1227001
-1227262
-1227437
-1227537
-1227613
-1227845
-1227869
-1227945
-1227998
-1228070
-1227826
-1228203
-1228539
-1228743
-1228814
-1228723
-1228944
-1229230
-1229294
-1228956
-1228865
-1229366
-1229640
-1229630
-1229683
-1229567
-1229889
-1229921
-1230055
-1229924
-1229765
-1230131
-1230416
-1230505
-1230935
-1230869
-1230961
-1231103
-1231134
-1230871
-1230617
-1231121
-1231372
-1231505
-1231658
-1231528
-1231474
-1231514
-1231493
-1231219
-1231139
-1231556
-1231798
-1231980
-1232164
-1231947
-1231916
-1232022
-1231952
-1231707
-1231447
-1231760
-1232054
-1232019
-1231863
-1231601
-1231397
-1231146
-1230927
-1230567
-1230170
-1230398
-1230434
-1230198
-1229835
-1229543
-1229262
-1228999
-1228803
-1228240
-1227643
-1227857
-1227778
-1227572
-1227514
-1227128
-1226784
-1226471
-1226334
-1225908
-1225272
-1225298
-1225271
-1225207
-1225191
-1224799
-1224791
-1224587
-1224278
-1223976
-1223501
-1223620
-1223662
-1223778
-1223582
-1223460
-1223285
-1223256
-1223142
-1222904
-1222460
-1222903
-1222995
-1222925
-1223006
-1222708
-1222794
-1222685
-1222585
-1222186
-1222068
-1222394
-1222659
-1222602
-1222702
-1222628
-1222675
-1222624
-1222737
-1222460
-1222155
-1222421
-1222628
-1222767
-1222960
-1222769
-1222755
-1222805
-1222809
-1222588
-1222311
-1222604
-1222824
-1222891
-1222850
-1222818
-1222774
-1222713
-1222866
-1222702
-1222391
-1222752
-1222809
-1222972
-1223245
-1222964
-1223003
-1223057
-1222939
-1222762
-1222573
-1222926
-1223015
-1223162
-1223063
-1222998
-1223128
-1223042
-1223037
-1222900
-1222616
-1222864
-1223123
-1223236
-1223301
-1223213
-1223096
-1223121
-1223205
-1223075
-1222670
-1223027
-1223319
-1223300
-1223457
-1223389
-1223457
-1223444
-1223490
-1223208
-1222921
-1223116
-1223301
-1223315
-1223588
-1223474
-1223357
-1223283
-1223392
-1223054
-1222825
-1223188
-1223306
-1223358
-1223568
-1223391
-1223379
-1223248
-1223152
-1222673
-1222990
-1223045
-1223176
-1223306
-1223078
-1222999
-1222899
-1222796
-1222645
-1222449
-1222537
-1222718
-1222624
-1222727
-1222443
-1222367
-1222364
-1222324
-1222138
-1221672
-1222072
-1222089
-1222031
-1222225
-1222018
-1221971
-1221897
-1221774
-1221552
-1221194
-1221394
-1221322
-1221423
-1221324
-1221186
-1221136
-1221055
-1220997
-1220704
-1220565
-1220653
-1220813
-1220874
-1221081
-1220883
-1220749
-1220681
-1220573
-1220354
-1219932
-1220389
-1220649
-1220666
-1220659
-1220536
-1220597
-1220453
-1220389
-1220313
-1220097
-1220233
-1220507
-1220468
-1220639
-1220461
-1220580
-1220415
-1220527
-1220144
-1219987
-1220352
-1220541
-1220700
-1220832
-1220733
-1220686
-1220761
-1220836
-1220665
-1220407
-1220654
-1220815
-1220961
-1221023
-1220953
-1221172
-1221199
-1221082
-1221040
-1220669
-1221039
-1221320
-1221467
-1221648
-1221466
-1221587
-1221532
-1221648
-1221364
-1221139
-1221306
-1221582
-1221709
-1222043
-1221932
-1222010
-1222051
-1222250
-1222053
-1221785
-1221958
-1222213
-1222453
-1222580
-1222517
-1222571
-1222681
-1222712
-1222462
-1222333
-1222632
-1222891
-1223025
-1223437
-1223217
-1223105
-1223233
-1223173
-1223161
-1222858
-1223302
-1223440
-1223699
-1223866
-1223723
-1223734
-1223917
-1223833
-1223731
-1223382
-1223672
-1223958
-1224035
-1224145
-1223992
-1223842
-1223933
-1223826
-1223737
-1223239
-1223271
-1223441
-1223332
-1223319
-1223132
-1222838
-1222754
-1222604
-1222246
-1221684
-1221823
-1221696
-1221617
-1221716
-1221394
-1221406
-1221265
-1221011
-1220850
-1220265
-1220525
-1220648
-1220405
-1220595
-1220234
-1219965
-1219752
-1219777
-1219397
-1219081
-1219151
-1219292
-1219375
-1219645
-1219307
-1219222
-1219110
-1219089
-1218822
-1218582
-1218804
-1219140
-1219139
-1219221
-1219186
-1219072
-1219151
-1219168
-1219152
-1218775
-1219064
-1219180
-1219479
-1219714
-1219602
-1219670
-1219729
-1219793
-1219765
-1219589
-1219921
-1220129
-1220265
-1220689
-1220608
-1220577
-1220744
-1220761
-1220692
-1220417
-1220748
-1221199
-1221347
-1221631
-1221583
-1221549
-1221779
-1221840
-1221724
-1221548
-1221662
-1222058
-1222222
-1222636
-1222554
-1222532
-1222732
-1222704
-1222551
-1222508
-1222668
-1223139
-1223269
-1223500
-1223521
-1223557
-1223664
-1223646
-1223413
-1223281
-1223672
-1223894
-1224107
-1224505
-1224428
-1224382
-1224552
-1224487
-1224556
-1224194
-1224520
-1224856
-1225078
-1225440
-1225087
-1225244
-1225322
-1225366
-1225426
-1225344
-1225494
-1225875
-1226078
-1226302
-1226190
-1226016
-1226374
-1226470
-1226474
-1226286
-1226541
-1226779
-1226772
-1227136
-1226804
-1227013
-1227136
-1227109
-1227193
-1226940
-1227081
-1227274
-1227391
-1227495
-1227503
-1227564
-1227659
-1227773
-1227795
-1227595
-1227676
-1227893
-1228007
-1228177
-1228100
-1228013
-1228178
-1228307
-1228278
-1228028
-1228152
-1228428
-1228346
-1228466
-1228185
-1228139
-1228426
-1228433
-1228419
-1228204
-1228188
-1228307
-1228375
-1228414
-1228316
-1228121
-1228233
-1228303
-1228505
-1228130
-1228148
-1228359
-1228537
-1228528
-1228340
-1228224
-1228264
-1228352
-1228338
-1228030
-1228064
-1228468
-1228432
-1228532
-1228391
-1228256
-1228367
-1228344
-1228527
-1228246
-1228355
-1228559
-1228730
-1228856
-1228580
-1228472
-1228613
-1228633
-1228796
-1228568
-1228440
-1228824
-1228918
-1229016
-1228638
-1228742
-1228886
-1228909
-1228961
-1228668
-1228687
-1229069
-1229146
-1229356
-1229035
-1229078
-1229163
-1229128
-1229299
-1229138
-1229152
-1229290
-1229483
-1229582
-1229356
-1229287
-1229458
-1229624
-1229534
-1229319
-1229395
-1229620
-1229733
-1229969
-1229683
-1229592
-1229803
-1229824
-1229872
-1229651
-1229804
-1230027
-1230101
-1230272
-1230027
-1229939
-1230282
-1230236
-1230234
-1229981
-1230099
-1230303
-1230491
-1230674
-1230606
-1230661
-1230880
-1230998
-1230916
-1230735
-1230757
-1230930
-1231095
-1231212
-1231168
-1231107
-1231324
-1231293
-1231392
-1231070
-1231286
-1231513
-1231581
-1231682
-1231393
-1231354
-1231635
-1231714
-1231692
-1231445
-1231641
-1231944
-1231938
-1232199
-1232006
-1231951
-1232046
-1232083
-1232105
-1231764
-1231862
-1231959
-1231938
-1231946
-1231742
-1231487
-1231669
-1231496
-1231453
-1231025
-1230731
-1230737
-1230769
-1230550
-1230110
-1229917
-1229782
-1229618
-1229263
-1228760
-1228475
-1228535
-1228423
-1228173
-1227804
-1227374
-1227312
-1227179
-1226829
-1226310
-1226011
-1226032
-1226081
-1226014
-1225524
-1225192
-1225195
-1225033
-1224838
-1224459
-1224299
-1224614
-1224536
-1224468
-1224168
-1223890
-1223973
-1223967
-1223880
-1223708
-1223677
-1223946
-1223774
-1224059
-1223693
-1223607
-1223727
-1223870
-1223934
-1223531
-1223618
-1223865
-1224026
-1224188
-1224052
-1223878
-1224053
-1224086
-1224172
-1223941
-1223920
-1224265
-1224415
-1224720
-1224896
-1224630
-1224848
-1224937
-1224895
-1224512
-1224628
-1225212
-1225369
-1225706
-1225582
-1225323
-1225548
-1225639
-1225536
-1225382
-1225471
-1225773
-1226058
-1226268
-1226378
-1226242
-1226446
-1226418
-1226333
-1226062
-1226222
-1226624
-1226911
-1227224
-1227192
-1227103
-1227119
-1227158
-1227094
-1226760
-1226918
-1227371
-1227519
-1227959
-1227907
-1227806
-1227964
-1228082
-1228069
-1227740
-1227898
-1228240
-1228410
-1228764
-1228729
-1228559
-1228680
-1228734
-1228847
-1228599
-1228649
-1229033
-1229212
-1229624
-1229651
-1229634
-1229753
-1229751
-1229666
-1229339
-1229565
-1229895
-1230202
-1230395
-1230491
-1230253
-1230379
-1230422
-1230399
-1230161
-1230179
-1230638
-1230844
-1231052
-1231110
-1230872
-1231062
-1231108
-1230959
-1230706
-1230753
-1231205
-1231373
-1231527
-1231581
-1231465
-1231588
-1231491
-1231429
-1231232
-1231106
-1231413
-1231607
-1231874
-1231722
-1231568
-1231629
-1231710
-1231517
-1231256
-1231238
-1231618
-1231806
-1231902
-1231991
-1231682
-1231824
-1231815
-1231574
-1231255
-1231114
-1231426
-1231595
-1231822
-1231802
-1231600
-1231691
-1231671
-1231533
-1231123
-1231149
-1231549
-1231640
-1231903
-1231857
-1231605
-1231607
-1231681
-1231606
-1231290
-1231372
-1231523
-1231670
-1231850
-1231949
-1231642
-1231701
-1231647
-1231694
-1231257
-1231422
-1231937
-1231913
-1232193
-1232294
-1231929
-1232017
-1232094
-1232015
-1231628
-1231648
-1231986
-1232127
-1232583
-1232518
-1232219
-1232353
-1232472
-1232234
-1232127
-1232240
-1232529
-1232661
-1232937
-1232875
-1232784
-1232773
-1232944
-1232816
-1232531
-1232554
-1232887
-1233021
-1234409
-1233702
-1233255
-1233275
-1233303
-1233301
-1232958
-1232857
-1233452
-1233487
-1233760
-1233783
-1233695
-1233599
-1233798
-1233713
-1233467
-1233435
-1233836
-1233980
-1234305
-1234257
-1234016
-1234160
-1234193
-1233849
-1233824
-1233866
-1234421
-1234647
-1234756
-1234754
-1234680
-1234784
-1234896
-1234788
-1234424
-1234511
-1234925
-1235113
-1235281
-1235350
-1235040
-1235209
-1235213
-1235112
-1234827
-1234892
-1235269
-1235580
-1235691
-1235747
-1235636
-1235783
-1235812
-1235620
-1235430
-1235379
-1235837
-1236115
-1236323
-1236275
-1236147
-1236163
-1236193
-1236233
-1235759
-1235715
-1236085
-1236268
-1236579
-1236593
-1236388
-1236266
-1236314
-1236077
-1235751
-1235534
-1235896
-1235823
-1235850
-1235780
-1235239
-1235233
-1234935
-1234671
-1234221
-1234005
-1234049
-1233912
-1233765
-1233666
-1233001
-1232844
-1232701
-1232274
-1231603
-1231444
-1231492
-1231328
-1231371
-1231036
-1230647
-1230513
-1230275
-1229896
-1229245
-1229185
-1229359
-1229452
-1229475
-1229245
-1228794
-1228800
-1228559
-1228415
-1227903
-1227811
-1228210
-1228366
-1228333
-1228303
-1227986
-1227982
-1228085
-1227978
-1227327
-1227385
-1227968
-1228102
-1228262
-1228286
-1228179
-1228186
-1228353
-1228197
-1227838
-1227534
-1228145
-1228487
-1228657
-1228917
-1228587
-1228818
-1228777
-1228859
-1228677
-1228707
-1229180
-1229379
-1229424
-1229634
-1229444
-1229496
-1229541
-1229571
-1229303
-1229417
-1229876
-1230074
-1230374
-1230282
-1230173
-1230140
-1230293
-1230344
-1230082
-1229961
-1230456
-1230677
-1230833
-1231039
-1230908
-1231079
-1231118
-1231055
-1230755
-1230762
-1231264
-1231521
-1231645
-1231856
-1231573
-1231651
-1231773
-1231822
-1231574
-1231652
-1231978
-1232332
-1232447
-1232547
-1232460
-1232602
-1232733
-1232720
-1232444
-1232359
-1232854
-1233015
-1233203
-1233440
-1233185
-1233359
-1233485
-1233431
-1233083
-1233085
-1233436
-1233875
-1233938
-1234081
-1234239
-1234080
-1233761
-1233790
-1234308
-1235406
-1235089
-1234983
-1234666
-1234734
-1234793
-1234776
-1234603
-1234482
-1234851
-1234970
-1235122
-1235308
-1235251
-1235229
-1235303
-1235214
-1234894
-1234466
-1235127
-1235422
-1235489
-1235605
-1235332
-1235413
-1235486
-1235307
-1235146
-1234992
-1235225
-1235352
-1235488
-1235662
-1235274
-1235422
-1235377
-1235357
-1235011
-1234995
-1235320
-1235468
-1235633
-1235703
-1235319
-1235468
-1235334
-1235360
-1234687
-1234481
-1235217
-1235453
-1235524
-1235749
-1235447
-1235347
-1235464
-1235400
-1234915
-1234957
-1235302
-1235420
-1235590
-1235793
-1235541
-1235507
-1235437
-1235403
-1235029
-1234713
-1235366
-1235488
-1235694
-1235828
-1235570
-1235605
-1235516
-1235540
-1235333
-1235208
-1235636
-1235708
-1235901
-1235892
-1235809
-1235792
-1235821
-1235689
-1235468
-1235470
-1235957
-1236105
-1236285
-1236407
-1236275
-1236337
-1236370
-1236392
-1236010
-1235914
-1236419
-1236497
-1236567
-1236789
-1236567
-1236678
-1236458
-1236717
-1236431
-1236460
-1236750
-1237065
-1237109
-1237199
-1237144
-1237094
-1237253
-1237221
-1236806
-1236734
-1237195
-1237442
-1237582
-1237360
-1237517
-1237547
-1237726
-1238273
-1237460
-1237307
-1237779
-1237791
-1238040
-1238143
-1237872
-1238047
-1238012
-1238000
-1237829
-1237609
-1237940
-1238300
-1238528
-1238659
-1238472
-1238515
-1238597
-1238526
-1238147
-1238091
-1238562
-1238654
-1238813
-1239034
-1238923
-1239025
-1239008
-1238925
-1238691
-1238630
-1238972
-1239267
-1239313
-1240535
-1239613
-1239398
-1239455
-1239517
-1239329
-1239221
-1239574
-1239725
-1239739
-1239846
-1239612
-1239865
-1239778
-1239759
-1239431
-1239473
-1239807
-1240023
-1240210
-1240300
-1240088
-1240194
-1240262
-1240053
-1239779
-1239548
-1240063
-1240085
-1240178
-1240210
-1239803
-1239799
-1239710
-1239533
-1239012
-1239414
-1239028
-1238827
-1238646
-1238681
-1238236
-1237910
-1237810
-1237556
-1236751
-1236445
-1236506
-1236432
-1236105
-1236061
-1235656
-1235372
-1235208
-1234882
-1234169
-1233808
-1234079
-1233878
-1233853
-1233868
-1233335
-1233108
-1232862
-1232860
-1232281
-1232134
-1232172
-1232182
-1232105
-1232343
-1232072
-1232028
-1231829
-1231808
-1231462
-1231186
-1231568
-1231807
-1231729
-1231981
-1231648
-1231613
-1231622
-1231711
-1231356
-1231179
-1231545
-1231709
-1231821
-1232261
-1231895
-1231974
-1232109
-1232146
-1231796
-1231747
-1232227
-1232279
-1232380
-1232291
-1232363
-1232661
-1232788
-1232899
-1232537
-1232339
-1232889
-1233012
-1233132
-1233562
-1233375
-1233470
-1233633
-1233622
-1233338
-1233245
-1233731
-1233972
-1234005
-1234270
-1234118
-1234330
-1234314
-1234226
-1234022
-1234067
-1234068
-1234537
-1234714
-1235024
-1234468
-1234895
-1234969
-1235212
-1235001
-1234767
-1235203
-1235429
-1235689
-1235780
-1235592
-1235673
-1235779
-1235884
-1235588
-1235549
-1235974
-1236280
-1236345
-1236647
-1236449
-1236623
-1236652
-1236795
-1236338
-1236431
-1236970
-1237061
-1237161
-1237308
-1237144
-1237365
-1237458
-1237512
-1237211
-1237092
-1237462
-1237683
-1237789
-1238196
-1237896
-1238006
-1238106
-1238219
-1238041
-1237842
-1238294
-1238506
-1238606
-1238931
-1238644
-1238729
-1238713
-1238733
-1238265
-1238377
-1238680
-1238936
-1239017
-1239291
-1238944
-1239002
-1239067
-1239168
-1238933
-1238745
-1238908
-1239158
-1239360
-1239510
-1239078
-1239093
-1239054
-1239162
-1238750
-1238673
-1239013
-1239137
-1239067
-1239413
-1239076
-1239151
-1239260
-1239182
-1238794
-1238644
-1239018
-1239196
-1239185
-1239444
-1239075
-1239070
-1239034
-1239091
-1238605
-1238416
-1238816
-1238863
-1239073
-1239276
-1239019
-1239037
-1238978
-1238962
-1238731
-1238457
-1238861
-1239023
-1239213
-1239380
-1239045
-1239092
-1239113
-1239063
-1238775
-1238641
-1239092
-1239257
-1239371
-1239533
-1239358
-1239426
-1239445
-1239516
-1239169
-1238964
-1239478
-1239588
-1239696
-1240043
-1239615
-1239688
-1239848
-1239903
-1239503
-1239354
-1239865
-1240045
-1239997
-1240387
-1240013
-1240269
-1240290
-1241119
-1240145
-1239889
-1240302
-1240460
-1240430
-1240649
-1240492
-1240498
-1240564
-1240635
-1240290
-1240027
-1240468
-1240760
-1240823
-1241089
-1240826
-1240938
-1241075
-1241055
-1240843
-1240680
-1241001
-1241144
-1241175
-1241549
-1241292
-1241426
-1241499
-1241578
-1241162
-1240984
-1241407
-1241594
-1241711
-1241842
-1241792
-1241786
-1241796
-1241830
-1241481
-1241509
-1241844
-1242021
-1242260
-1242477
-1242294
-1242205
-1242335
-1242418
-1242022
-1242815
-1242539
-1242654
-1242545
-1242974
-1242821
-1242808
-1242807
-1242861
-1242447
-1242381
-1242791
-1242941
-1242995
-1243277
-1243010
-1243004
-1243141
-1243249
-1242995
-1242511
-1243100
-1243225
-1243382
-1243682
-1243392
-1243416
-1243410
-1243543
-1243111
-1242914
-1243252
-1243232
-1243193
-1244300
-1243160
-1243007
-1242847
-1242651
-1242135
-1241777
-1241906
-1241779
-1241704
-1241636
-1241139
-1240720
-1240756
-1240346
-1239848
-1239440
-1239580
-1239365
-1239188
-1239096
-1238644
-1238568
-1238421
-1238284
-1237545
-1236999
-1237223
-1237185
-1237140
-1237129
-1236800
-1236572
-1236343
-1236138
-1235899
-1235483
-1235797
-1235732
-1235708
-1235847
-1235588
-1235507
-1235481
-1235584
-1235091
-1234774
-1235117
-1235354
-1235378
-1235645
-1235496
-1235344
-1235337
-1235195
-1235110
-1235079
-1235519
-1235669
-1235780
-1236016
-1235761
-1235917
-1236002
-1235764
-1235703
-1236094
-1236200
-1236408
-1236597
-1236525
-1236710
-1236797
-1236698
-1236476
-1236308
-1236747
-1237103
-1236931
-1237321
-1237213
-1237209
-1237445
-1237598
-1237348
-1237100
-1237630
-1237967
-1238172
-1238244
-1238084
-1238252
-1238351
-1238391
-1237999
-1237918
-1238424
-1238606
-1238793
-1238929
-1238986
-1238977
-1239097
-1239114
-1238946
-1238791
-1239270
-1239446
-1239727
-1239974
-1239714
-1239833
-1239966
-1240022
-1239908
-1239546
-1240038
-1240415
-1240547
-1240884
-1240657
-1240796
-1240922
-1240989
-1240733
-1240525
-1241007
-1241150
-1241226
-1241656
-1241494
-1241412
-1241640
-1241747
-1242756
-1241587
-1241971
-1242066
-1242130
-1241966
-1241991
-1242173
-1242142
-1242296
-1241912
-1241850
-1242141
-1242509
-1242578
-1242870
-1242713
-1242731
-1242765
-1242347
-1242212
-1242745
-1242970
-1243040
-1243262
-1242905
-1242869
-1242943
-1242944
-1242344
-1242431
-1242829
-1243035
-1243029
-1243289
-1243060
-1243044
-1243035
-1242885
-1243355
-1242527
-1242852
-1242875
-1243001
-1243039
-1242941
-1242920
-1242921
-1242828
-1242511
-1242300
-1242616
-1242781
-1242713
-1242821
-1242818
-1242912
-1242688
-1242808
-1242381
-1242076
-1242474
-1242681
-1242633
-1242829
-1242693
-1242717
-1242789
-1242843
-1242525
-1242177
-1242615
-1242635
-1242838
-1243057
-1242904
-1242844
-1242994
-1243112
-1242672
-1242416
-1242796
-1243140
-1242980
-1243253
-1243261
-1243405
-1243254
-1243306
-1242745
-1242601
-1243131
-1243371
-1243321
-1243609
-1243522
-1243272
-1243491
-1243530
-1243734
-1243283
-1243507
-1243673
-1243812
-1243896
-1243747
-1243921
-1243807
-1243715
-1243539
-1243447
-1243783
-1244031
-1243952
-1244371
-1244334
-1244250
-1244383
-1244270
-1243948
-1243932
-1244269
-1244475
-1244618
-1244826
-1244677
-1244596
-1244755
-1244710
-1244402
-1244334
-1244726
-1244840
-1244937
-1245030
-1245146
-1245107
-1245238
-1245311
-1244989
-1244670
-1245004
-1245340
-1245482
-1245797
-1245564
-1245624
-1245535
-1245429
-1245301
-1245171
-1245405
-1245679
-1245782
-1246009
-1245975
-1245956
-1246015
-1246026
-1245696
-1245502
-1245940
-1246255
-1246208
-1246548
-1246425
-1246421
-1246495
-1246496
-1246089
-1246001
-1246372
-1246440
-1246579
-1246799
-1246650
-1246529
-1246510
-1246495
-1246085
-1245824
-1245958
-1246128
-1246074
-1246147
-1245661
-1245488
-1246352
-1245421
-1244633
-1244216
-1244472
-1244352
-1244242
-1244186
-1243676
-1243417
-1243164
-1242850
-1242104
-1241867
-1241945
-1241726
-1241461
-1241546
-1241048
-1240881
-1240624
-1240316
-1239741
-1239495
-1239651
-1239445
-1239162
-1239421
-1239116
-1239123
-1238931
-1238843
-1238362
-1238148
-1238276
-1238492
-1238486
-1238700
-1238491
-1238306
-1238419
-1238270
-1237806
-1237632
-1238035
-1238204
-1238212
-1238416
-1238418
-1238231
-1238360
-1238366
-1237937
-1237836
-1238333
-1238614
-1238705
-1238885
-1238880
-1239063
-1239079
-1239129
-1238746
-1238714
-1238934
-1239382
-1239379
-1239699
-1239441
-1239607
-1239806
-1239763
-1239506
-1239405
-1239753
-1240109
-1240060
-1240453
-1240274
-1240305
-1240485
-1240492
-1240112
-1240149
-1240696
-1240814
-1240979
-1241085
-1240984
-1241050
-1241069
-1241192
-1241038
-1240993
-1241335
-1241519
-1241810
-1241897
-1241870
-1241984
-1242070
-1242218
-1241782
-1241657
-1242119
-1242453
-1242487
-1242808
-1242723
-1242896
-1242941
-1242871
-1242542
-1242536
-1243028
-1243354
-1243504
-1243807
-1243521
-1243577
-1243720
-1243775
-1243407
-1243320
-1243828
-1244177
-1243951
-1244328
-1244257
-1244454
-1244481
-1244428
-1244249
-1244068
-1245711
-1245202
-1244978
-1245200
-1245034
-1245000
-1245204
-1245161
-1244780
-1244736
-1244900
-1245353
-1245495
-1245692
-1245405
-1245580
-1245522
-1245573
-1245219
-1245210
-1245487
-1245742
-1245722
-1245939
-1245707
-1245838
-1245837
-1245673
-1245229
-1245252
-1245659
-1245667
-1245718
-1246044
-1245867
-1245731
-1245841
-1245767
-1245436
-1245129
-1245331
-1245713
-1245607
-1245752
-1245542
-1245559
-1245505
-1245676
-1245209
-1245115
-1245380
-1245533
-1245398
-1245728
-1245535
-1245546
-1245533
-1245563
-1245111
-1244925
-1245362
-1245406
-1245482
-1245893
-1245703
-1245670
-1245511
-1245574
-1245223
-1245010
-1245324
-1245608
-1245860
-1245581
-1245644
-1245709
-1245756
-1245327
-1245179
-1245535
-1245815
-1245864
-1246018
-1245809
-1245840
-1246007
-1246095
-1245754
-1245599
-1245824
-1246152
-1246211
-1246144
-1246118
-1245954
-1246197
-1246163
-1245989
-1245840
-1246257
-1246455
-1246497
-1246712
-1246595
-1246744
-1246621
-1246623
-1246222
-1246153
-1246417
-1246742
-1246768
-1247285
-1246929
-1246835
-1247051
-1247121
-1246805
-1246777
-1246674
-1247242
-1247411
-1247464
-1247436
-1247375
-1247409
-1247475
-1247244
-1247033
-1247373
-1247575
-1247768
-1247968
-1247917
-1247911
-1248030
-1247886
-1247584
-1247621
-1247915
-1248114
-1248059
-1248358
-1248280
-1248493
-1248398
-1248331
-1247723
-1247788
-1248119
-1248455
-1248727
-1248934
-1248692
-1248527
-1248681
-1248755
-1248447
-1248432
-1248707
-1248907
-1249124
-1249242
-1249118
-1249208
-1249169
-1249133
-1248908
-1248832
-1249053
-1249312
-1249514
-1249663
-1249703
-1249627
-1249795
-1249717
-1249339
-1249265
-1249603
-1249801
-1249848
-1249940
-1249869
-1249770
-1249734
-1249637
-1249140
-1248890
-1249151
-1249267
-1249352
-1249285
-1248936
-1248918
-1248686
-1248498
-1247653
-1247323
-1247462
-1247496
-1247249
-1247129
-1246707
-1246429
-1246174
-1246003
-1245307
-1244847
-1244817
-1244887
-1244798
-1244655
-1244181
-1244016
-1243588
-1243448
-1242935
-1242526
-1242701
-1242497
-1242187
-1242326
-1242009
-1242049
-1241459
-1241457
-1241080
-1240861
-1241202
-1241879
-1241327
-1241334
-1240982
-1241012
-1241000
-1240621
-1240566
-1240950
-1240969
-1241220
-1241248
-1241135
-1241188
-1241209
-1241296
-1240898
-1240799
-1241207
-1241446
-1241401
-1241757
-1241577
-1241681
-1241657
-1241839
-1241465
-1241430
-1241900
-1242022
-1242118
-1242389
-1242372
-1242363
-1242529
-1242488
-1242213
-1242095
-1242523
-1242741
-1243017
-1243276
-1243176
-1242917
-1243178
-1243277
-1243042
-1242948
-1243473
-1243534
-1243831
-1244065
-1243834
-1244082
-1244007
-1244071
-1243760
-1243352
-1244048
-1244482
-1244609
-1244685
-1244637
-1244751
-1244800
-1244980
-1244715
-1244600
-1244880
-1245110
-1245296
-1245444
-1245332
-1245451
-1245647
-1245547
-1245242
-1245375
-1245689
-1245989
-1246116
-1246383
-1246370
-1246301
-1246353
-1246594
-1246130
-1245742
-1246335
-1246869
-1246947
-1247086
-1246982
-1247132
-1247186
-1247225
-1246816
-1246767
-1247244
-1247538
-1247583
-1247808
-1247637
-1247771
-1247596
-1247669
-1247357
-1247274
-1247768
-1248075
-1248177
-1248239
-1248169
-1248082
-1248180
-1248304
-1247977
-1247905
-1248204
-1248235
-1248404
-1248608
-1248475
-1248593
-1248420
-1248471
-1248226
-1247920
-1248337
-1248495
-1248559
-1248618
-1248374
-1248538
-1248419
-1248386
-1248009
-1247957
-1248076
-1248324
-1248464
-1248563
-1248326
-1248300
-1248398
-1248347
-1247880
-1247833
-1248296
-1248300
-1248279
-1248416
-1248315
-1248255
-1248135
-1248126
-1247739
-1247604
-1248009
-1248306
-1248424
-1248502
-1248143
-1248318
-1248255
-1249263
-1248302
-1247952
-1248107
-1248263
-1248443
-1248604
-1248360
-1248579
-1248576
-1248474
-1248058
-1248010
-1248283
-1248518
-1248676
-1248780
-1248529
-1248673
-1248694
-1248835
-1248326
-1248153
-1248535
-1248940
-1248996
-1249180
-1248915
-1248957
-1249064
-1249039
-1248690
-1248626
-1248964
-1249234
-1249237
-1249456
-1249065
-1249397
-1249310
-1249352
-1248934
-1248937
-1249973
-1249818
-1249704
-1250054
-1249759
-1249796
-1249787
-1249821
-1249404
-1249439
-1249892
-1249798
-1250004
-1250285
-1250220
-1250212
-1250297
-1250350
-1250172
-1249933
-1249974
-1250470
-1250508
-1250553
-1250619
-1250678
-1250721
-1250652
-1250500
-1250324
-1250586
-1250890
-1251018
-1251314
-1250983
-1250947
-1250988
-1251095
-1250771
-1250727
-1250995
-1251207
-1251458
-1251582
-1251443
-1251498
-1251538
-1252349
-1251557
-1251159
-1251628
-1251807
-1251868
-1251897
-1251819
-1253022
-1252320
-1252161
-1251744
-1251595
-1251849
-1252190
-1252405
-1252573
-1252239
-1252345
-1252389
-1252370
-1252231
-1252034
-1252451
-1252645
-1252636
-1252977
-1252781
-1252909
-1252942
-1252859
-1252516
-1252398
-1252936
-1253101
-1253217
-1253255
-1253088
-1253054
-1253021
-1253057
-1252821
-1252492
-1252963
-1252965
-1252890
-1252899
-1252754
-1252741
-1252475
-1252264
-1251875
-1251368
-1251648
-1251615
-1251335
-1251385
-1250935
-1250709
-1250453
-1250053
-1249414
-1248902
-1249007
-1249088
-1248899
-1248819
-1248345
-1247936
-1247724
-1247497
-1246958
-1246352
-1246555
-1246498
-1246231
-1246151
-1245867
-1245801
-1245457
-1245296
-1244812
-1244558
-1244926
-1246100
-1245234
-1244836
-1244489
-1244479
-1244338
-1244221
-1243972
-1243853
-1243987
-1244209
-1244339
-1244369
-1244312
-1244292
-1244787
-1244495
-1244219
-1243793
-1244076
-1244356
-1244548
-1244523
-1244460
-1244629
-1244612
-1244664
-1244399
-1244170
-1244678
-1244923
-1245063
-1245277
-1245105
-1245252
-1245270
-1245374
-1245055
-1245070
-1245446
-1245763
-1245799
-1246023
-1246014
-1246047
-1246207
-1246116
-1245887
-1245733
-1246081
-1246491
-1246714
-1246702
-1246768
-1246777
-1246910
-1246919
-1246623
-1246689
-1247041
-1247304
-1247302
-1247356
-1247347
-1247632
-1247685
-1247654
-1247417
-1247178
-1247715
-1248049
-1248213
-1248336
-1248316
-1248371
-1248390
-1248431
-1248148
-1248085
-1248535
-1248832
-1248914
-1249211
-1249003
-1249047
-1249056
-1249193
-1249015
-1248926
-1249372
-1249625
-1249773
-1249854
-1249856
-1249931
-1250092
-1250146
-1249919
-1249667
-1250172
-1250384
-1250532
-1250653
-1250501
-1250644
-1250736
-1250632
-1250554
-1250319
-1250649
-1250876
-1250951
-1251153
-1251080
-1251148
-1251187
-1251150
-1250796
-1250661
-1250969
-1251251
-1251402
-1251582
-1251466
-1251523
-1251387
-1251478
-1251200
-1251005
-1251211
-1251399
-1251543
-1251574
-1251547
-1251616
-1251555
-1251524
-1251323
-1250954
-1251210
-1251457
-1251523
-1251700
-1251561
-1251590
-1251576
-1251370
-1251050
-1250760
-1251202
-1251392
-1251464
-1251600
-1251335
-1251411
-1251391
-1251263
-1250938
-1250688
-1251152
-1251291
-1251397
-1251428
-1251296
-1252074
-1251432
-1251350
-1250892
-1250773
-1251148
-1251222
-1251126
-1251356
-1251246
-1251353
-1251348
-1251386
-1251067
-1250772
-1251078
-1251402
-1251417
-1251615
-1251545
-1251614
-1251695
-1251552
-1251469
-1251159
-1251436
-1251557
-1251812
-1252039
-1251938
-1251849
-1251941
-1251922
-1251761
-1251534
-1251794
-1251932
-1252069
-1252526
-1252233
-1252281
-1252227
-1252310
-1252844
-1252046
-1252290
-1252456
-1252519
-1252658
-1252528
-1252555
-1252573
-1252521
-1252383
-1252434
-1252610
-1252789
-1252965
-1252956
-1252953
-1253063
-1253048
-1253009
-1252892
-1252685
-1252954
-1253148
-1253388
-1253543
-1253323
-1253378
-1253459
-1253488
-1253274
-1253345
-1253598
-1253738
-1254091
-1254023
-1253893
-1253863
-1253824
-1253925
-1253634
-1253955
-1254080
-1254217
-1254476
-1254311
-1254295
-1254453
-1254302
-1254272
-1254004
-1254213
-1254557
-1254614
-1254969
-1254814
-1254700
-1254691
-1254834
-1254508
-1254238
-1254581
-1254898
-1254959
-1255136
-1255022
-1255071
-1255095
-1255243
-1255134
-1254768
-1255105
-1255370
-1255404
-1255503
-1255452
-1255450
-1255466
-1255619
-1255524
-1255132
-1255410
-1255622
-1255877
-1256059
-1255916
-1256012
-1256063
-1255950
-1255895
-1255487
-1255826
-1256118
-1256070
-1256477
-1257161
-1256533
-1256287
-1256245
-1255800
-1256070
-1256383
-1256372
-1256699
-1256381
-1256218
-1256080
-1256019
-1255839
-1255308
-1256281
-1255821
-1255454
-1255558
-1255202
-1254919
-1254709
-1254425
-1254095
-1253392
-1253336
-1253294
-1253105
-1253200
-1252631
-1252291
-1252027
-1251835
-1251177
-1250759
-1250547
-1250481
-1250427
-1250498
-1250106
-1249702
-1249573
-1249323
-1248920
-1248323
-1248481
-1248512
-1248522
-1248486
-1248281
-1248159
-1248011
-1247816
-1247717
-1247146
-1247425
-1247481
-1247490
-1247789
-1247541
-1247516
-1247612
-1247631
-1247231
-1246680
-1247149
-1247536
-1247610
-1247837
-1247668
-1247572
-1247651
-1247759
-1247552
-1247419
-1247532
-1247818
-1247965
-1248318
-1248197
-1248239
-1248147
-1248315
-1248388
-1248040
-1248260
-1248461
-1248703
-1248981
-1248924
-1248862
-1249026
-1249051
-1249014
-1248799
-1249013
-1249419
-1249484
-1249836
-1249828
-1249798
-1249786
-1249941
-1249742
-1249488
-1249811
-1250243
-1250346
-1250700
-1250511
-1250553
-1250586
-1250617
-1250589
-1250245
-1250657
-1250966
-1251119
-1251390
-1251365
-1251366
-1251340
-1251625
-1251562
-1251229
-1251384
-1251641
-1251983
-1252266
-1252245
-1252172
-1252276
-1252222
-1252104
-1251881
-1252322
-1252616
-1252688
-1252984
-1252979
-1253015
-1253088
-1253218
-1253045
-1252792
-1253105
-1253269
-1253439
-1253856
-1253798
-1253592
-1253716
-1253818
-1253726
-1253373
-1253611
-1253884
-1254085
-1254317
-1254238
-1254136
-1254196
-1254367
-1254256
-1253926
-1254053
-1254346
-1254498
-1254720
-1254658
-1254466
-1254577
-1254679
-1254484
-1254119
-1254313
-1254610
-1254872
-1255016
-1254990
-1254679
-1254819
-1254886
-1254698
-1254300
-1254350
-1254526
-1254640
-1254871
-1254785
-1254515
-1254596
-1254584
-1254488
-1253987
-1254039
-1254410
-1254508
-1254696
-1254574
-1254291
-1254356
-1254230
-1254035
-1253716
-1253736
-1254159
-1254081
-1254417
-1254412
-1254125
-1254043
-1254117
-1253923
-1253567
-1253642
-1254095
-1254174
-1254322
-1254155
-1253969
-1254142
-1254153
-1254077
-1253665
-1253798
-1254127
-1254200
-1254380
-1254243
-1254068
-1254241
-1254268
-1254068
-1253857
-1253921
-1254323
-1254318
-1254564
-1254481
-1254337
-1254478
-1254528
-1255043
-1254206
-1254159
-1254600
-1254639
-1254991
-1254863
-1254817
-1254754
-1254774
-1254760
-1254408
-1254501
-1254800
-1254951
-1255173
-1255268
-1255035
-1255091
-1255094
-1255064
-1254886
-1254893
-1255170
-1255329
-1255773
-1255606
-1255522
-1255472
-1255614
-1255441
-1255137
-1255216
-1255570
-1255789
-1256048
-1256023
-1255840
-1255929
-1255963
-1256419
-1255860
-1256030
-1256159
-1256624
-1256529
-1256372
-1256315
-1256417
-1256285
-1255972
-1256076
-1256180
-1256675
-1256982
-1256952
-1256683
-1256701
-1256675
-1256589
-1256282
-1256440
-1256804
-1257100
-1257352
-1257378
-1257196
-1257137
-1257093
-1257015
-1256810
-1256769
-1257252
-1257533
-1257741
-1257615
-1257381
-1257439
-1257477
-1257507
-1257186
-1257254
-1257583
-1257868
-1258149
-1258180
-1257609
-1257944
-1257951
-1257916
-1257691
-1257784
-1258152
-1258186
-1258577
-1258604
-1258159
-1258411
-1258377
-1258200
-1257924
-1258033
-1258454
-1258438
-1258754
-1258721
-1258419
-1258359
-1258283
-1258060
-1257720
-1257665
-1257792
-1257855
-1258044
-1257736
-1257269
-1257113
-1257034
-1256607
-1256117
-1255848
-1255869
-1255852
-1255709
-1255422
-1254917
-1254822
-1254501
-1254105
-1253372
-1252891
-1253168
-1253124
-1253138
-1252800
-1252138
-1252067
-1251876
-1251575
-1250934
-1250584
-1250764
-1250692
-1250852
-1250585
-1250250
-1250058
-1249978
-1249661
-1249259
-1249088
-1249510
-1249450
-1249654
-1249424
-1249244
-1249228
-1249113
-1248915
-1248704
-1248755
-1248941
-1249104
-1249452
-1249416
-1249125
-1249147
-1249341
-1249134
-1248926
-1249021
-1249274
-1249423
-1249832
-1249750
-1249475
-1249680
-1249648
-1249702
-1249300
-1249552
-1249902
-1249960
-1250331
-1250359
-1250170
-1250289
-1250465
-1250344
-1250154
-1250272
-1250675
-1250829
-1251020
-1251139
-1251120
-1251177
-1251156
-1251109
-1250862
-1250978
-1251276
-1251622
-1251917
-1251950
-1251814
-1251847
-1251921
-1251846
-1251568
-1251766
-1252099
-1252497
-1252701
-1252749
-1252599
-1252647
-1252791
-1252745
-1252489
-1252453
-1252925
-1253134
-1253450
-1253424
-1253289
-1253550
-1253487
-1253620
-1253327
-1253408
-1253799
-1253926
-1254112
-1254290
-1255085
-1254586
-1254463
-1254286
-1254114
-1254124
-1254549
-1254674
-1254959
-1255035
-1254736
-1254469
-1255550
-1255024
-1254658
-1254544
-1254815
-1255075
-1255331
-1255298
-1255089
-1255200
-1255407
-1255282
-1254899
-1254965
-1255242
-1255403
-1255731
-1255686
-1255465
-1255589
-1255428
-1255433
-1255095
-1255047
-1255449
-1255381
-1255668
-1255545
-1255312
-1255400
-1255346
-1255229
-1254969
-1254725
-1255019
-1255278
-1255348
-1255352
-1255102
-1255029
-1255000
-1254848
-1254545
-1254509
-1254907
-1254935
-1255033
-1255146
-1254918
-1254791
-1254887
-1254649
-1254250
-1254362
-1254665
-1254744
-1255587
-1254882
-1254581
-1254656
-1254695
-1254547
-1254217
-1254138
-1254636
-1254781
-1254869
-1254878
-1254796
-1254719
-1254804
-1254477
-1254240
-1254383
-1254773
-1254763
-1254981
-1254971
-1254762
-1254853
-1254811
-1254833
-1254360
-1254362
-1254816
-1254903
-1255175
-1255300
-1254965
-1255034
-1255055
-1254873
-1254569
-1254584
-1254949
-1255084
-1255429
-1255456
-1255179
-1255336
-1255306
-1255110
-1254762
-1254799
-1255142
-1255285
-1255473
-1255528
-1255340
-1255350
-1255452
-1255361
-1255114
-1254973
-1255434
-1255587
-1255819
-1255905
-1255509
-1255669
-1255702
-1255559
-1255286
-1255319
-1255669
-1255830
-1256087
-1256244
-1256050
-1256075
-1256059
-1255926
-1255658
-1255228
-1256032
-1256339
-1256383
-1256552
-1256294
-1256517
-1256567
-1256506
-1256156
-1256073
-1256591
-1256807
-1257062
-1257079
-1256945
-1257033
-1257015
-1256994
-1256870
-1256800
-1257207
-1257354
-1257515
-1257677
-1257404
-1257690
-1257650
-1257254
-1257250
-1257401
-1257754
-1257997
-1258141
-1258334
-1258108
-1258322
-1258325
-1258329
-1258059
-1257901
-1258419
-1258531
-1258886
-1258919
-1258785
-1258890
-1258878
-1258825
-1258702
-1258649
-1259124
-1259272
-1259337
-1259384
-1259318
-1259289
-1259089
-1258925
-1258641
-1258605
-1258843
-1258948
-1258963
-1258850
-1258339
-1258157
-1258079
-1257888
-1257100
-1256704
-1257013
-1256748
-1256679
-1256504
-1255979
-1255657
-1255309
-1254765
-1254172
-1253820
-1253790
-1253553
-1253339
-1253215
-1252567
-1252192
-1251962
-1251509
-1251187
-1250839
-1250837
-1250826
-1250601
-1250621
-1250056
-1250061
-1249833
-1249705
-1249088
-1248978
-1249326
-1249323
-1248879
-1249312
-1249050
-1249022
-1249058
-1249000
-1248384
-1248236
-1248750
-1248977
-1249087
-1249364
-1249094
-1249230
-1249190
-1249165
-1248926
-1248771
-1249294
-1249375
-1249649
-1249932
-1249562
-1250604
-1250925
-1249993
-1249733
-1249482
-1249977
-1250129
-1250351
-1250638
-1250521
-1250514
-1250597
-1250643
-1250450
-1250430
-1250875
-1251074
-1251276
-1251441
-1251273
-1251517
-1251623
-1251705
-1251517
-1251279
-1251717
-1252066
-1252368
-1252453
-1252251
-1252319
-1252536
-1252685
-1252394
-1252261
-1252867
-1253159
-1253285
-1253456
-1253228
-1253448
-1253498
-1253592
-1253031
-1253232
-1253654
-1254011
-1254192
-1254474
-1254300
-1254351
-1254435
-1254602
-1254521
-1254264
-1254644
-1254929
-1255095
-1255461
-1255233
-1255402
-1255502
-1255583
-1255268
-1255153
-1255689
-1255858
-1255985
-1256307
-1256209
-1256392
-1256336
-1256414
-1256159
-1256015
-1256506
-1256648
-1256574
-1256953
-1256814
-1257037
-1257066
-1257166
-1256920
-1256702
-1257140
-1257324
-1257490
-1257750
-1257381
-1257458
-1257554
-1257517
-1257256
-1257194
-1257496
-1257427
-1257699
-1257881
-1257679
-1257783
-1257664
-1257647
-1257241
-1257021
-1257490
-1257504
-1257569
-1257623
-1257332
-1257374
-1257255
-1257034
-1256722
-1256604
-1256918
-1256947
-1256836
-1256966
-1257786
-1256986
-1256348
-1256317
-1256013
-1255731
-1255773
-1255953
-1256139
-1256351
-1255903
-1255864
-1255896
-1255676
-1255163
-1254942
-1255269
-1255439
-1255357
-1255354
-1255200
-1255041
-1255145
-1255069
-1254767
-1254460
-1254660
-1254736
-1255584
-1255182
-1254797
-1254710
-1254397
-1254380
-1254166
-1253918
-1254298
-1254504
-1254490
-1254586
-1254347
-1254377
-1254239
-1254102
-1253805
-1253594
-1253964
-1254205
-1254232
-1254426
-1254165
-1254172
-1254147
-1253995
-1253671
-1253476
-1253857
-1253935
-1254047
-1255097
-1254179
-1253996
-1254369
-1253878
-1253357
-1253284
-1253560
-1253639
-1253635
-1253844
-1253484
-1253620
-1253713
-1253475
-1252939
-1253022
-1253409
-1253439
-1253622
-1253832
-1253591
-1253490
-1253357
-1253516
-1253242
-1253047
-1253442
-1253463
-1253549
-1253756
-1254734
-1253903
-1253719
-1253594
-1253106
-1253027
-1253460
-1253652
-1253699
-1253622
-1253508
-1253718
-1253663
-1253679
-1253329
-1253042
-1253492
-1253661
-1253626
-1253951
-1253678
-1253781
-1253663
-1253639
-1253252
-1253096
-1253528
-1253698
-1253699
-1253927
-1253513
-1253591
-1253465
-1253488
-1252878
-1252605
-1252870
-1253042
-1252990
-1253033
-1252673
-1252416
-1252196
-1251916
-1251547
-1251051
-1251182
-1250881
-1250910
-1251009
-1250511
-1250143
-1249870
-1249609
-1248990
-1248647
-1248807
-1248594
-1248374
-1248329
-1248013
-1247825
-1247459
-1247180
-1246638
-1246174
-1246449
-1246452
-1246126
-1246204
-1245909
-1245707
-1245529
-1245371
-1244972
-1244698
-1244881
-1245040
-1244953
-1245221
-1244884
-1244712
-1244719
-1244551
-1244184
-1243904
-1244363
-1244443
-1244431
-1244750
-1244542
-1244525
-1244563
-1244440
-1244233
-1244183
-1244629
-1244680
-1244694
-1244961
-1244744
-1244825
-1244915
-1244442
-1244320
-1244704
-1244907
-1245027
-1245125
-1245088
-1245128
-1245119
-1245145
-1245018
-1244774
-1245181
-1245363
-1245466
-1245729
-1245671
-1245831
-1245780
-1245933
-1245806
-1245532
-1246019
-1246229
-1246350
-1246598
-1246501
-1246459
-1246582
-1246699
-1246370
-1246361
-1246931
-1247105
-1247113
-1247343
-1247225
-1247386
-1247422
-1247520
-1247251
-1247269
-1247576
-1247856
-1247910
-1248144
-1248008
-1248157
-1248162
-1248321
-1248015
-1247977
-1248350
-1248556
-1248711
-1249044
-1248856
-1248898
-1249038
-1248941
-1248841
-1248577
-1249163
-1249197
-1249192
-1249789
-1249592
-1249363
-1249379
-1249359
-1248990
-1248957
-1249452
-1249676
-1249780
-1249815
-1249698
-1249606
-1249590
-1249618
-1249304
-1249179
-1249557
-1249652
-1249584
-1249755
-1249355
-1249333
-1249300
-1249234
-1248755
-1248494
-1248797
-1248770
-1248652
-1248744
-1248444
-1248327
-1248339
-1248246
-1247799
-1247482
-1247701
-1247750
-1247510
-1247804
-1247343
-1247386
-1247164
-1247150
-1246614
-1246314
-1246650
-1246847
-1246753
-1246822
-1246598
-1246438
-1246461
-1246284
-1245975
-1245814
-1246157
-1246245
-1246353
-1246403
-1246279
-1246362
-1246359
-1246410
-1246049
-1245945
-1246410
-1246655
-1246716
-1246834
-1246742
-1246871
-1246932
-1247101
-1246855
-1246696
-1247068
-1247297
-1247236
-1247453
-1247226
-1247376
-1247419
-1247482
-1247217
-1247184
-1247515
-1247891
-1247778
-1248250
-1247931
-1247785
-1247907
-1247839
-1247332
-1247225
-1247690
-1248205
-1248050
-1248540
-1248617
-1248833
-1248628
-1248736
-1248561
-1248523
-1248875
-1249012
-1249130
-1249357
-1249217
-1249188
-1249167
-1249306
-1249037
-1248822
-1249164
-1249444
-1249295
-1249667
-1249533
-1249612
-1249619
-1249492
-1249214
-1249035
-1249477
-1249583
-1249538
-1249764
-1249645
-1249660
-1249782
-1249719
-1249276
-1249204
-1249534
-1249740
-1249858
-1249908
-1249666
-1249726
-1249650
-1249684
-1249403
-1249243
-1249546
-1249855
-1249821
-1250018
-1249602
-1249716
-1249683
-1249644
-1249464
-1249313
-1249730
-1249953
-1249926
-1250129
-1249753
-1249843
-1249873
-1249854
-1249379
-1249221
-1249658
-1249712
-1249695
-1249854
-1249657
-1249693
-1249654
-1249627
-1249245
-1249040
-1249219
-1249381
-1249392
-1249296
-1248914
-1248915
-1248846
-1248765
-1248350
-1247971
-1248200
-1248051
-1247998
-1247983
-1247580
-1247522
-1247407
-1247133
-1246672
-1246347
-1246507
-1246561
-1246564
-1246730
-1246283
-1246108
-1245959
-1245946
-1245316
-1245028
-1245270
-1245378
-1245258
-1245287
-1245132
-1245052
-1244966
-1244989
-1244650
-1244291
-1244491
-1244729
-1244681
-1244916
-1244568
-1244494
-1244600
-1244450
-1244045
-1243958
-1244271
-1244453
-1244474
-1245905
-1244858
-1244628
-1244448
-1244477
-1244081
-1244070
-1244375
-1244614
-1244705
-1244803
-1244575
-1244609
-1244645
-1244784
-1244374
-1244297
-1244766
-1244899
-1244848
-1244973
-1244908
-1244903
-1244874
-1244888
-1244513
-1244373
-1244748
-1245021
-1245056
-1245085
-1244935
-1245154
-1245147
-1245173
-1244918
-1244636
-1245058
-1245286
-1245332
-1245412
-1245187
-1245227
-1245405
-1245362
-1245112
-1244949
-1245324
-1245452
-1245676
-1245705
-1245685
-1245778
-1245833
-1245838
-1245502
-1245540
-1245631
-1245986
-1245905
-1246065
-1245945
-1245892
-1246262
-1246423
-1246139
-1246016
-1246468
-1246615
-1246655
-1247004
-1246915
-1247056
-1247156
-1247265
-1246763
-1246777
-1246976
-1247320
-1247487
-1247699
-1247554
-1247521
-1247717
-1247865
-1247363
-1247269
-1247808
-1247998
-1248135
-1248412
-1248212
-1248338
-1248486
-1248402
-1248054
-1248160
-1248528
-1248742
-1248970
-1249138
-1248980
-1249095
-1249124
-1249122
-1248847
-1248774
-1249154
-1249413
-1249541
-1249886
-1249699
-1249632
-1249824
-1249926
-1250487
-1249739
-1249771
-1249987
-1250059
-1250165
-1250104
-1250169
-1250233
-1250328
-1250069
-1250003
-1250204
-1250466
-1250670
-1250817
-1250813
-1250700
-1250863
-1250832
-1250379
-1250268
-1250537
-1250927
-1250986
-1251337
-1251203
-1251182
-1251208
-1251146
-1250787
-1250650
-1251200
-1251441
-1251488
-1251424
-1251272
-1251358
-1251344
-1251411
-1251015
-1251353
-1251324
-1251414
-1251535
-1251579
-1251485
-1251466
-1251467
-1251365
-1251007
-1250998
-1251252
-1251432
-1251401
-1251555
-1251442
-1251464
-1251542
-1251391
-1251094
-1250940
-1251285
-1251498
-1251629
-1251744
-1251356
-1251283
-1251439
-1251195
-1250947
-1250829
-1251163
-1251262
-1251324
-1251555
-1251344
-1251397
-1251373
-1251372
-1251019
-1250912
-1251248
-1251208
-1251558
-1251701
-1251376
-1251414
-1251446
-1251513
-1251126
-1250984
-1251342
-1251505
-1251474
-1251630
-1251595
-1251597
-1251566
-1251643
-1251291
-1251251
-1251539
-1251716
-1251674
-1251900
-1251697
-1251702
-1251842
-1251815
-1251442
-1251316
-1251677
-1251916
-1251791
-1252121
-1251912
-1251876
-1251902
-1252029
-1251466
-1251388
-1251920
-1252052
-1252073
-1252199
-1251955
-1251837
-1251783
-1251560
-1251098
-1250676
-1251206
-1251394
-1251321
-1251279
-1251014
-1250866
-1250813
-1250505
-1249874
-1249610
-1249706
-1249708
-1249598
-1249391
-1248975
-1248821
-1248545
-1248157
-1247603
-1247288
-1247251
-1247300
-1247205
-1247176
-1246641
-1246410
-1246212
-1245996
-1245412
-1245087
-1245475
-1245264
-1245219
-1245213
-1244900
-1244701
-1245375
-1244646
-1244195
-1243842
-1243996
-1244208
-1244156
-1244194
-1244115
-1244112
-1244133
-1244051
-1243648
-1244359
-1244051
-1243966
-1243900
-1244021
-1243963
-1244063
-1244083
-1243996
-1243612
-1243520
-1243975
-1244266
-1244337
-1244634
-1244351
-1244376
-1244433
-1244614
-1244313
-1244190
-1244649
-1244834
-1245020
-1245326
-1245208
-1245000
-1245209
-1245259
-1244923
-1244777
-1245393
-1245638
-1245649
-1245951
-1245753
-1245833
-1245997
-1246108
-1245839
-1245761
-1246015
-1246344
-1246540
-1246558
-1246590
-1246859
-1246844
-1246709
-1246352
-1246424
-1246835
-1247079
-1247159
-1247477
-1247512
-1247466
-1247586
-1247629
-1247356
-1247168
-1247538
-1247802
-1248112
-1248178
-1248190
-1248160
-1248338
-1248950
-1248264
-1248099
-1248526
-1248856
-1248983
-1249040
-1248947
-1249118
-1249224
-1249267
-1248933
-1248792
-1249257
-1249444
-1249442
-1249921
-1249843
-1249735
-1249548
-1249882
-1249603
-1249517
-1250054
-1249835
-1250292
-1250320
-1250404
-1250632
-1250601
-1250770
-1250289
-1250160
-1250608
-1250778
-1250905
-1250959
-1250883
-1251153
-1251126
-1251197
-1250679
-1250690
-1251006
-1251085
-1251264
-1251452
-1251200
-1251238
-1251256
-1251245
-1250637
-1250639
-1251079
-1251256
-1251143
-1251397
-1251148
-1251077
-1251092
-1250960
-1250609
-1250428
-1250682
-1250858
-1250980
-1251003
-1250732
-1250828
-1250746
-1250736
-1250213
-1250105
-1250486
-1250582
-1250666
-1250800
-1250505
-1250412
-1250489
-1250452
-1249947
-1250023
-1250379
-1250648
-1250706
-1250746
-1250585
-1250608
-1250535
-1250427
-1250092
-1249971
-1250484
-1250670
-1250672
-1250678
-1250535
-1250591
-1250780
-1250586
-1250332
-1250099
-1250476
-1250754
-1250855
-1251078
-1250835
-1251034
-1250978
-1250851
-1250403
-1250457
-1250832
-1251007
-1251219
-1251302
-1251137
-1251203
-1251224
-1251395
-1251099
-1250830
-1251276
-1251599
-1251693
-1251724
-1251654
-1251727
-1251792
-1251888
-1251522
-1251331
-1251760
-1251926
-1252150
-1252269
-1252103
-1252089
-1252336
-1252324
-1251941
-1251825
-1252248
-1252529
-1252691
-1252863
-1252672
-1252720
-1252889
-1252848
-1252535
-1252291
-1252618
-1252910
-1253146
-1253183
-1253114
-1253134
-1253182
-1253249
-1252834
-1252717
-1252888
-1253276
-1253365
-1253355
-1253085
-1253125
-1253049
-1252943
-1252537
-1252216
-1252333
-1252410
-1252366
-1252231
-1251968
-1251819
-1251632
-1251451
-1250803
-1250399
-1250361
-1250351
-1250068
-1249900
-1249586
-1249384
-1248972
-1248621
-1247990
-1247584
-1247731
-1247772
-1247560
-1247285
-1246944
-1246730
-1246470
-1246408
-1245705
-1245416
-1245710
-1245745
-1245577
-1245499
-1245157
-1245064
-1244927
-1244872
-1244308
-1244121
-1244311
-1244547
-1244481
-1244686
-1244374
-1244392
-1244388
-1244286
-1243835
-1243767
-1244105
-1244357
-1244492
-1244721
-1244417
-1244383
-1244471
-1244568
-1244304
-1244291
-1244681
-1244724
-1244876
-1245005
-1244955
-1245008
-1245086
-1245089
-1244714
-1244782
-1245299
-1245482
-1245660
-1245935
-1245703
-1245563
-1246030
-1245954
-1245767
-1245793
-1246185
-1246416
-1246479
-1246726
-1246720
-1246988
-1247058
-1246985
-1246635
-1246618
-1247142
-1247398
-1247553
-1247533
-1247513
-1247628
-1247885
-1247801
-1247498
-1247426
-1247747
-1248117
-1248303
-1248360
-1248311
-1248457
-1248604
-1248520
-1248300
-1248124
-1248505
-1248881
-1249120
-1249297
-1249043
-1249179
-1250251
-1249642
-1249107
-1248843
-1249339
-1249677
-1249740
-1250003
-1250058
-1250119
-1250084
-1250105
-1249950
-1249808
-1250398
-1250647
-1250718
-1250924
-1250868
-1250972
-1251024
-1251128
-1250848
-1250673
-1251194
-1251468
-1251714
-1251716
-1251726
-1251813
-1251770
-1251980
-1251762
-1251660
-1252039
-1252156
-1252235
-1252429
-1252157
-1252445
-1252503
-1252399
-1251980
-1252017
-1252329
-1252425
-1252473
-1252667
-1252401
-1252645
-1252597
-1252552
-1252188
-1252008
-1252204
-1252309
-1252492
-1252675
-1252507
-1252630
-1252428
-1253087
-1252109
-1251702
-1252102
-1252260
-1252326
-1252398
-1252203
-1252148
-1252137
-1252015
-1251691
-1251492
-1251972
-1251876
-1251999
-1251872
-1251988
-1252136
-1252118
-1252133
-1251768
-1251473
-1252036
-1252187
-1252216
-1252211
-1252180
-1252168
-1252188
-1252144
-1251750
-1251611
-1252019
-1252119
-1252245
-1252405
-1252213
-1252292
-1252273
-1252283
-1252054
-1251810
-1252230
-1252493
-1252718
-1252711
-1252628
-1252286
-1252616
-1252729
-1252610
-1252272
-1252811
-1252917
-1253050
-1253162
-1253056
-1253253
-1253263
-1253309
-1253147
-1253414
-1253484
-1253606
-1253827
-1253799
-1253705
-1253886
-1253907
-1253927
-1253689
-1253617
-1253979
-1254154
-1254389
-1254463
-1254370
-1254363
-1254410
-1254567
-1254099
-1254000
-1254301
-1254669
-1254768
-1254939
-1254846
-1254702
-1254754
-1254732
-1254702
-1254476
-1254720
-1255055
-1255135
-1255231
-1255138
-1255070
-1254968
-1255148
-1254698
-1254517
-1254681
-1254821
-1254777
-1254941
-1254728
-1254494
-1254381
-1254311
-1253624
-1253243
-1253421
-1253252
-1253054
-1252894
-1252613
-1252303
-1252159
-1251661
-1251155
-1250682
-1250672
-1250518
-1250364
-1250252
-1249345
-1249160
-1249118
-1249094
-1248522
-1247982
-1248228
-1248273
-1248171
-1248089
-1247693
-1247445
-1247224
-1247169
-1246628
-1246490
-1246605
-1246691
-1246734
-1246652
-1246446
-1246615
-1246421
-1246396
-1246181
-1245913
-1246255
-1246370
-1246418
-1246552
-1246436
-1246445
-1246588
-1246622
-1246233
-1246025
-1246535
-1246642
-1246879
-1247008
-1246932
-1247005
-1247099
-1247031
-1246834
-1246623
-1247154
-1247310
-1247476
-1247579
-1247525
-1247625
-1247801
-1247795
-1247495
-1247467
-1247944
-1248114
-1248372
-1248493
-1248332
-1248550
-1248507
-1248567
-1248603
-1248267
-1248741
-1249083
-1249152
-1249496
-1249331
-1249243
-1249368
-1249444
-1249185
-1249085
-1249599
-1249749
-1249774
-1250147
-1249923
-1250037
-1250067
-1250162
-1249851
-1249630
-1250064
-1250243
-1250519
-1250666
-1250700
-1250777
-1250881
-1250874
-1250626
-1250487
-1250813
-1251190
-1251408
-1251688
-1251519
-1251472
-1251730
-1251602
-1251344
-1251258
-1251641
-1251896
-1252081
-1252320
-1252212
-1252372
-1252309
-1252272
-1252122
-1252003
-1252290
-1252546
-1252660
-1252812
-1252764
-1252873
-1252806
-1252893
-1252637
-1252356
-1252802
-1252780
-1253031
-1253312
-1253107
-1253320
-1253299
-1253415
-1253258
-1253014
-1253381
-1253492
-1253555
-1253758
-1253583
-1253561
-1253449
-1253561
-1253199
-1252850
-1253348
-1253508
-1253596
-1253721
-1253473
-1253470
-1253247
-1253216
-1252998
-1252674
-1252964
-1253029
-1253155
-1254438
-1253285
-1252900
-1252833
-1252783
-1252482
-1252366
-1252641
-1252703
-1252808
-1252798
-1252621
-1252718
-1252807
-1252546
-1252514
-1252046
-1252433
-1252508
-1252543
-1252779
-1252662
-1252587
-1252508
-1252570
-1252287
-1252051
-1252446
-1252683
-1252712
-1252831
-1252556
-1252747
-1252619
-1252516
-1252248
-1252025
-1252422
-1252784
-1252959
-1253141
-1252871
-1252931
-1252826
-1252818
-1252626
-1252576
-1252804
-1253028
-1253141
-1253383
-1253090
-1253271
-1253319
-1253218
-1253277
-1253040
-1253279
-1253534
-1253677
-1253604
-1253519
-1253647
-1253574
-1253599
-1253439
-1253260
-1253605
-1253800
-1253960
-1254052
-1253932
-1253919
-1254032
-1253976
-1253851
-1253642
-1253886
-1254250
-1254356
-1254498
-1254385
-1254392
-1254435
-1254477
-1254387
-1254076
-1254515
-1254806
-1254781
-1254978
-1254976
-1255016
-1255034
-1255001
-1254836
-1254619
-1254769
-1255073
-1255174
-1255333
-1255142
-1254999
-1255537
-1255051
-1254484
-1254200
-1254357
-1254345
-1254276
-1254165
-1253934
-1253674
-1253524
-1253241
-1252624
-1252187
-1252058
-1251978
-1251902
-1251919
-1251393
-1250907
-1250592
-1250181
-1249815
-1249291
-1249194
-1249241
-1249006
-1248821
-1248458
-1248261
-1247957
-1247727
-1247263
-1246753
-1246876
-1247034
-1246974
-1246916
-1246629
-1246478
-1246395
-1246249
-1245925
-1245523
-1245790
-1245897
-1245824
-1245882
-1245735
-1245837
-1245741
-1245703
-1245525
-1245196
-1245534
-1245825
-1245887
-1246024
-1245703
-1245939
-1245963
-1245980
-1245920
-1245702
-1246033
-1246328
-1246297
-1246583
-1246376
-1246421
-1246519
-1246647
-1246742
-1246591
-1246722
-1246823
-1246899
-1247008
-1246894
-1247001
-1247177
-1247243
-1247273
-1247070
-1247134
-1247503
-1247686
-1247731
-1247520
-1247672
-1247767
-1247763
-1247784
-1247616
-1247872
-1248011
-1248140
-1248328
-1248160
-1248287
-1248290
-1248426
-1248208
-1248121
-1248212
-1248472
-1248587
-1248897
-1248669
-1248834
-1248940
-1249055
-1249086
-1248816
-1248977
-1249292
-1249453
-1249688
-1249527
-1249627
-1249654
-1249875
-1249805
-1249721
-1249816
-1250013
-1250068
-1250260
-1250289
-1250205
-1250299
-1250507
-1250461
-1250410
-1250590
-1250678
-1250967
-1251064
-1250852
-1250893
-1250976
-1251172
-1251067
-1251016
-1251015
-1251297
-1251527
-1251537
-1251298
-1251518
-1251622
-1251756
-1251722
-1251341
-1251435
-1251728
-1251710
-1251884
-1251579
-1251524
-1251752
-1251662
-1251754
-1251364
-1251539
-1251741
-1251449
-1251600
-1251459
-1251319
-1251233
-1251510
-1251514
-1251195
-1251108
-1251290
-1251261
-1251429
-1251111
-1251145
-1251088
-1251084
-1250763
-1250728
-1250886
-1250920
-1251039
-1250837
-1250745
-1250720
-1250726
-1250589
-1250386
-1250484
-1250637
-1250584
-1250643
-1250383
-1250311
-1250500
-1250415
-1250410
-1249835
-1249955
-1250246
-1250264
-1250272
-1250241
-1250183
-1250300
-1250286
-1250288
-1250146
-1250107
-1250256
-1250326
-1250624
-1250325
-1250330
-1250427
-1250585
-1250610
-1250323
-1250464
-1250664
-1250656
-1250908
-1250637
-1250623
-1250806
-1250852
-1250789
-1250590
-1250564
-1250891
-1250950
-1251128
-1250846
-1250957
-1251065
-1251099
-1251160
-1250951
-1251071
-1251356
-1251360
-1251640
-1251425
-1251372
-1251870
-1251783
-1251623
-1251407
-1251329
-1251683
-1251824
-1251986
-1251720
-1251776
-1251910
-1252010
-1251983
-1251917
-1251809
-1252210
-1252231
-1252370
-1252151
-1252261
-1252475
-1252414
-1252617
-1252275
-1252431
-1252575
-1252771
-1252865
-1252611
-1252624
-1252779
-1252903
-1252936
-1252865
-1252968
-1253044
-1253192
-1253206
-1253163
-1253121
-1253157
-1253251
-1253305
-1253146
-1253049
-1253284
-1253377
-1253430
-1253057
-1253004
-1253006
-1252912
-1252833
-1252410
-1252195
-1252046
-1252258
-1252155
-1251745
-1251264
-1251242
-1251036
-1250728
-1250288
-1249965
-1249812
-1249511
-1249295
-1248688
-1248262
-1248209
-1247980
-1247759
-1247149
-1246818
-1246702
-1246365
-1246200
-1245752
-1245329
-1245210
-1245001
-1244703
-1244294
-1244169
-1244073
-1244048
-1243980
-1243572
-1243498
-1243511
-1243433
-1243225
-1242918
-1242676
-1242859
-1242945
-1242853
-1242511
-1242356
-1242573
-1242530
-1242621
-1242511
-1242395
-1242676
-1242662
-1242769
-1242725
-1242640
-1242799
-1243010
-1242981
-1242880
-1242835
-1243088
-1243133
-1243237
-1243046
-1243018
-1243322
-1243378
-1243577
-1243331
-1243261
-1243636
-1243866
-1243883
-1243695
-1243755
-1244651
-1244121
-1244186
-1243887
-1243970
-1244253
-1244344
-1244501
-1244178
-1244105
-1244519
-1244510
-1244710
-1244428
-1244409
-1244880
-1245053
-1245180
-1244912
-1244824
-1244994
-1245304
-1245325
-1244994
-1245214
-1245337
-1245517
-1245785
-1245591
-1245593
-1245672
-1245758
-1246035
-1245707
-1245775
-1245999
-1246257
-1246522
-1246271
-1246160
-1246512
-1246518
-1246718
-1246486
-1246553
-1246894
-1246984
-1247134
-1246980
-1247019
-1247184
-1247436
-1247537
-1247300
-1247235
-1247546
-1247594
-1247872
-1247770
-1247758
-1247918
-1248095
-1248121
-1247994
-1248011
-1248197
-1248363
-1248469
-1248455
-1248424
-1248743
-1248665
-1248879
-1248644
-1248472
-1248878
-1249081
-1249157
-1249020
-1248755
-1249109
-1249149
-1249133
-1248689
-1248825
-1249038
-1249166
-1249243
-1248940
-1248774
-1248870
-1248934
-1249043
-1248804
-1248741
-1248771
-1248828
-1248998
-1248768
-1248449
-1248643
-1248622
-1248572
-1248460
-1248320
-1248423
-1248455
-1248502
-1248347
-1248074
-1248417
-1248397
-1248357
-1248202
-1248055
-1248297
-1248267
-1248289
-1248283
-1248101
-1248395
-1248334
-1248367
-1248141
-1248024
-1248210
-1248434
-1248538
-1248406
-1248178
-1248508
-1248493
-1248597
-1248408
-1248279
-1248575
-1248597
-1248826
-1248659
-1248674
-1248699
-1248863
-1248955
-1248698
-1248535
-1248934
-1248990
-1249151
-1248948
-1248856
-1249799
-1249322
-1249192
-1248964
-1248880
-1249145
-1249270
-1249401
-1249134
-1249029
-1249374
-1249413
-1249545
-1249256
-1249268
-1249535
-1250346
-1249843
-1249729
-1249574
-1249737
-1249938
-1249996
-1249814
-1249631
-1249850
-1250146
-1249908
-1249965
-1250061
-1250337
-1250506
-1250624
-1250301
-1250195
-1250551
-1250740
-1250788
-1250690
-1250604
-1250528
-1250837
-1251027
-1250744
-1250824
-1251108
-1251176
-1251186
-1251059
-1250990
-1251148
-1251356
-1251483
-1251319
-1251272
-1251466
-1251571
-1251705
-1251595
-1251536
-1251585
-1251822
-1251854
-1251770
-1251629
-1251860
-1252044
-1252169
-1252122
-1251844
-1252104
-1252140
-1252213
-1252236
-1252133
-1252390
-1252457
-1252732
-1252497
-1252356
-1252537
-1252664
-1252610
-1252572
-1252374
-1252661
-1252459
-1252785
-1252682
-1252631
-1252729
-1252671
-1252652
-1252445
-1252191
-1252305
-1252145
-1252063
-1251637
-1251257
-1251231
-1251131
-1250923
-1250371
-1249910
-1249979
-1249626
-1249026
-1248767
-1248362
-1248262
-1247987
-1247558
-1246992
-1246493
-1246454
-1246253
-1245841
-1245426
-1244885
-1244840
-1244712
-1244348
-1243950
-1243476
-1243511
-1243436
-1243147
-1242897
-1242658
-1242686
-1242559
-1242459
-1242279
-1241920
-1242163
-1242104
-1242078
-1241829
-1241630
-1241699
-1241640
-1241622
-1241459
-1241282
-1241581
-1241680
-1241860
-1241816
-1241480
-1241813
-1241781
-1241782
-1241789
-1241542
-1241878
-1242113
-1242083
-1242138
-1242089
-1242147
-1242313
-1242429
-1242196
-1242145
-1242566
-1242618
-1242875
-1242823
-1242803
-1242889
-1243102
-1243065
-1243094
-1242960
-1243170
-1243281
-1243538
-1243379
-1243484
-1243729
-1243747
-1243837
-1243737
-1243734
-1244125
-1244334
-1244513
-1244372
-1244150
-1244400
-1244672
-1244680
-1245461
-1244928
-1245002
-1245184
-1245340
-1245282
-1245116
-1245264
-1245447
-1245603
-1245577
-1245487
-1245691
-1245920
-1246007
-1245997
-1245972
-1246297
-1246379
-1246413
-1246245
-1246113
-1246498
-1246662
-1246814
-1246851
-1246739
-1246797
-1246913
-1247120
-1246988
-1246981
-1247195
-1247310
-1247505
-1247495
-1247426
-1247515
-1247765
-1247661
-1247647
-1247485
-1247763
-1247946
-1248040
-1248201
-1248000
-1248134
-1248265
-1247990
-1248114
-1247988
-1248187
-1248266
-1248508
-1248320
-1248213
-1248366
-1248284
-1248367
-1248175
-1248014
-1248352
-1248451
-1248270
-1248202
-1248008
-1248083
-1248258
-1248177
-1248078
-1247883
-1248105
-1248081
-1248098
-1247981
-1247730
-1247840
-1247841
-1247832
-1247783
-1247440
-1247539
-1247685
-1247665
-1247715
-1247279
-1247380
-1247662
-1247582
-1247068
-1246993
-1247334
-1247477
-1247563
-1247519
-1247282
-1247087
-1247272
-1247373
-1247116
-1246982
-1247151
-1247781
-1247576
-1247348
-1247294
-1247297
-1247439
-1247314
-1247206
-1247170
-1247305
-1247477
-1247672
-1247620
-1247264
-1247452
-1247566
-1247688
-1247615
-1247415
-1247597
-1247833
-1247934
-1247939
-1247710
-1247777
-1248060
-1247994
-1247836
-1247696
-1248037
-1248218
-1248182
-1248350
-1248156
-1248218
-1248053
-1248219
-1248303
-1248139
-1248455
-1248460
-1248590
-1248685
-1248358
-1248587
-1248593
-1248826
-1248785
-1248501
-1248894
-1248827
-1248861
-1248978
-1248768
-1248970
-1249019
-1248994
-1249098
-1249053
-1249232
-1249443
-1249525
-1249431
-1249372
-1249579
-1249598
-1249608
-1249535
-1249312
-1249665
-1249824
-1249871
-1249859
-1249716
-1250085
-1250139
-1250126
-1250205
-1250082
-1250249
-1250484
-1250550
-1250651
-1250332
-1250644
-1250891
-1250793
-1250840
-1250643
-1250973
-1251164
-1251176
-1251188
-1251116
-1251284
-1251411
-1251447
-1251386
-1251250
-1251548
-1251796
-1251752
-1251872
-1251627
-1251740
-1251547
-1251799
-1251689
-1251610
-1252032
-1252243
-1251880
-1252052
-1252037
-1252197
-1252396
-1252346
-1252320
-1252154
-1252351
-1252450
-1252511
-1252543
-1252508
-1252584
-1252619
-1252623
-1252670
-1252470
-1253362
-1253011
-1252886
-1252672
-1252322
-1252499
-1252601
-1252457
-1252265
-1251876
-1252072
-1251909
-1251732
-1251400
-1251097
-1250949
-1250673
-1250495
-1250180
-1249762
-1249587
-1249302
-1249022
-1249630
-1248432
-1248175
-1247610
-1247442
-1246844
-1246320
-1246193
-1245938
-1245822
-1245540
-1245607
-1244954
-1244601
-1244318
-1244004
-1243538
-1243672
-1243432
-1243207
-1243037
-1242591
-1242639
-1242590
-1242581
-1242121
-1241894
-1242072
-1242011
-1241920
-1242051
-1241813
-1241956
-1241940
-1241906
-1241762
-1241617
-1241854
-1241866
-1241975
-1242089
-1241952
-1242076
-1242129
-1242090
-1242044
-1241849
-1242151
-1242451
-1242584
-1242670
-1242371
-1242673
-1242667
-1242696
-1242809
-1242773
-1242962
-1243123
-1243205
-1243320
-1243110
-1243376
-1243446
-1243778
-1243760
-1243579
-1243842
-1243984
-1244206
-1244343
-1244153
-1244472
-1244619
-1244644
-1244345
-1244286
-1244751
-1244907
-1245007
-1245155
-1245004
-1245115
-1245387
-1245464
-1245549
-1245433
-1245699
-1245864
-1245906
-1246029
-1245738
-1245994
-1246042
-1246202
-1246322
-1245958
-1246268
-1246576
-1246727
-1246743
-1246622
-1246923
-1246914
-1247137
-1247053
-1246957
-1247277
-1247436
-1247511
-1247561
-1247504
-1247860
-1247897
-1247935
-1247571
-1247684
-1248061
-1248063
-1248170
-1248409
-1248220
-1248417
-1248524
-1248609
-1248340
-1248406
-1248789
-1248751
-1248720
-1248860
-1248754
-1248904
-1249107
-1249091
-1248993
-1248775
-1249105
-1249310
-1249176
-1249185
-1249040
-1249314
-1249226
-1249268
-1249055
-1248747
-1249115
-1249284
-1249267
-1249309
-1248965
-1249031
-1249151
-1249044
-1248839
-1248699
-1248869
-1248911
-1248765
-1248812
-1248492
-1248580
-1248693
-1248586
-1248573
-1248333
-1248411
-1249463
-1248590
-1248634
-1248164
-1248372
-1248256
-1248346
-1248051
-1247907
-1248070
-1248180
-1248227
-1248235
-1247987
-1248053
-1248003
-1247987
-1247812
-1248440
-1248010
-1248024
-1247964
-1248061
-1247939
-1247971
-1247969
-1247989
-1247896
-1247775
-1248016
-1248277
-1248337
-1248458
-1248063
-1248249
-1248416
-1248531
-1248254
-1248142
-1248497
-1248659
-1248594
-1248648
-1248387
-1248550
-1248758
-1248731
-1248524
-1248432
-1248688
-1248873
-1249052
-1249058
-1248907
-1249123
-1249188
-1249222
-1249215
-1248941
-1249248
-1249245
-1249443
-1249384
-1249218
-1249529
-1249506
-1249556
-1249394
-1249388
-1249585
-1249653
-1249737
-1250058
-1249874
-1250130
-1250195
-1250242
-1250672
-1249729
-1250079
-1250250
-1250340
-1250347
-1250319
-1250340
-1250545
-1250514
-1250353
-1250195
-1250665
-1250832
-1250910
-1250742
-1250704
-1250877
-1250846
-1251013
-1250967
-1250883
-1251286
-1251285
-1251361
-1251332
-1251241
-1251398
-1251489
-1251451
-1251551
-1251316
-1251624
-1251700
-1251756
-1251832
-1251726
-1251922
-1252126
-1252140
-1251986
-1251924
-1252128
-1252427
-1252547
-1252479
-1252486
-1252653
-1252754
-1252680
-1252624
-1252870
-1252935
-1253047
-1253185
-1253009
-1253299
-1253316
-1253286
-1253330
-1253945
-1253707
-1253816
-1253755
-1253781
-1253757
-1253987
-1254120
-1254080
-1253986
-1253807
-1254271
-1254423
-1254261
-1254436
-1254428
-1254380
-1254571
-1254675
-1254635
-1254397
-1254823
-1254989
-1255122
-1255070
-1254896
-1255240
-1255463
-1255490
-1255441
-1255171
-1255376
-1255643
-1255624
-1255472
-1255414
-1255681
-1255796
-1255777
-1255436
-1255286
-1255597
-1255620
-1255708
-1255625
-1255501
-1255571
-1255552
-1255388
-1255115
-1254671
-1254739
-1254698
-1254599
-1254437
-1254001
-1253742
-1253600
-1253318
-1252788
-1252222
-1252214
-1251892
-1251747
-1251352
-1250844
-1250604
-1250257
-1250016
-1249455
-1248955
-1249024
-1248912
-1248616
-1248242
-1247851
-1247462
-1247081
-1246916
-1246589
-1246742
-1246589
-1246402
-1246080
-1246032
-1245890
-1245958
-1245875
-1245700
-1244974
-1245430
-1245586
-1245502
-1245504
-1245285
-1245531
-1245480
-1245384
-1245317
-1245108
-1245484
-1245614
-1245583
-1245734
-1245563
-1245780
-1245874
-1245889
-1245829
-1245768
-1246089
-1246334
-1246395
-1246543
-1246422
-1246647
-1246616
-1246764
-1246798
-1246626
-1246956
-1247069
-1247201
-1247234
-1247096
-1247323
-1247543
-1247690
-1247662
-1247460
-1247963
-1248124
-1248048
-1248122
-1248228
-1248310
-1248565
-1248590
-1248489
-1248279
-1248529
-1248789
-1248813
-1248951
-1248823
-1249020
-1249189
-1249300
-1249181
-1249083
-1249511
-1249613
-1249555
-1249926
-1249801
-1249831
-1250557
-1250105
-1249957
-1249930
-1250213
-1250262
-1250514
-1250468
-1250352
-1250684
-1250777
-1250730
-1250665
-1250637
-1250914
-1251135
-1251353
-1251276
-1251228
-1251185
-1251416
-1251466
-1252698
-1251758
-1251859
-1251829
-1251818
-1251821
-1251824
-1252052
-1252168
-1252080
-1252595
-1252156
-1251940
-1252299
-1252440
-1252584
-1252329
-1252421
-1252580
-1252759
-1252548
-1252410
-1252581
-1252689
-1252651
-1252697
-1252589
-1252805
-1252903
-1252899
-1252815
-1252674
-1252728
-1252804
-1252985
-1252842
-1252637
-1252843
-1252626
-1252861
-1252715
-1252478
-1252883
-1252919
-1252826
-1252645
-1252553
-1252660
-1252624
-1252629
-1252368
-1252350
-1252468
-1252663
-1252568
-1252615
-1252345
-1252350
-1252382
-1252404
-1252272
-1251659
-1252310
-1252452
-1252548
-1252469
-1252293
-1252277
-1252236
-1251881
-1251997
-1251844
-1252055
-1252193
-1252235
-1252111
-1252008
-1252252
-1252315
-1252357
-1252229
-1252142
-1252026
-1252383
-1252404
-1252290
-1252399
-1252594
-1252689
-1252788
-1252498
-1252463
-1252599
-1252841
-1253006
-1252876
-1252694
-1253028
-1253098
-1252994
-1252843
-1252889
-1252923
-1253155
-1253227
-1253353
-1253212
-1253422
-1253337
-1253413
-1253409
-1253446
-1253562
-1253685
-1253877
-1253519
-1253562
-1253879
-1254066
-1254188
-1253960
-1253886
-1254205
-1254334
-1254418
-1254496
-1254267
-1254325
-1254563
-1254584
-1254440
-1254375
-1254654
-1254850
-1255019
-1255169
-1254778
-1254730
-1255030
-1255166
-1255102
-1254976
-1255226
-1255409
-1255598
-1255673
-1255539
-1255722
-1255836
-1255974
-1255753
-1255630
-1255821
-1256105
-1256197
-1256150
-1256011
-1256077
-1256178
-1256415
-1256085
-1256015
-1256269
-1256452
-1256405
-1256368
-1256320
-1256465
-1256519
-1256648
-1256507
-1256346
-1256647
-1256871
-1256902
-1256887
-1256673
-1256857
-1257157
-1257056
-1256929
-1256880
-1257035
-1257318
-1257278
-1257330
-1257195
-1257508
-1257412
-1257649
-1257601
-1257356
-1257697
-1257816
-1257928
-1257930
-1257925
-1257992
-1258289
-1258225
-1258146
-1258122
-1258316
-1258557
-1258751
-1258744
-1258726
-1258808
-1259022
-1259162
-1259043
-1258804
-1259202
-1259414
-1259507
-1259480
-1259325
-1259526
-1259631
-1259713
-1259580
-1259585
-1259810
-1260050
-1260106
-1259981
-1260027
-1260106
-1260565
-1260394
-1260234
-1260063
-1260466
-1260672
-1260595
-1260688
-1260556
-1261486
-1261057
-1260749
-1260519
-1260537
-1260789
-1260966
-1260906
-1260727
-1260579
-1260862
-1260853
-1260733
-1260463
-1260256
-1259910
-1259956
-1259904
-1259804
-1259617
-1259600
-1259328
-1258986
-1258586
-1258038
-1258067
-1257883
-1257493
-1257240
-1256826
-1256811
-1256510
-1256096
-1255520
-1255024
-1254998
-1254870
-1254586
-1254241
-1253814
-1253658
-1253391
-1253030
-1252757
-1252436
-1252394
-1252331
-1251991
-1251687
-1251528
-1251527
-1251606
-1251304
-1251173
-1250724
-1250700
-1250994
-1250956
-1250870
-1250566
-1250711
-1250876
-1250750
-1250514
-1250381
-1250222
-1250494
-1250625
-1250602
-1250454
-1250783
-1250918
-1250974
-1250730
-1250694
-1250923
-1251259
-1251232
-1251327
-1251180
-1251365
-1251152
-1251449
-1251494
-1251186
-1251932
-1252061
-1252280
-1252367
-1252260
-1252484
-1252513
-1252799
-1252621
-1252628
-1252999
-1253313
-1253356
-1253280
-1253255
-1253400
-1253809
-1253863
-1253783
-1253628
-1254042
-1254222
-1254439
-1254530
-1254305
-1254584
-1254771
-1254805
-1254692
-1254565
-1254806
-1255059
-1255188
-1255114
-1255226
-1255407
-1255527
-1255580
-1255614
-1255516
-1256047
-1256024
-1256238
-1256425
-1256074
-1256194
-1256468
-1256503
-1256553
-1256492
-1256756
-1256860
-1257097
-1257073
-1256981
-1257347
-1257393
-1257611
-1257603
-1257442
-1257791
-1257998
-1258027
-1257892
-1257917
-1258259
-1258367
-1258505
-1258357
-1258286
-1258675
-1258931
-1259025
-1258925
-1258717
-1258859
-1259034
-1259101
-1258954
-1258844
-1259098
-1259248
-1259328
-1259301
-1259263
-1259390
-1259519
-1259650
-1259403
-1259270
-1259368
-1259641
-1259541
-1259536
-1259491
-1259567
-1259590
-1259690
-1259500
-1259316
-1259567
-1259541
-1259422
-1259293
-1259081
-1259290
-1259350
-1259414
-1259129
-1258924
-1259037
-1259265
-1259253
-1259169
-1258816
-1259054
-1258991
-1258859
-1258731
-1258540
-1258847
-1258817
-1258863
-1258826
-1258545
-1258657
-1258719
-1258711
-1258366
-1258357
-1258577
-1258642
-1258751
-1258636
-1258133
-1258683
-1258670
-1258770
-1258559
-1258459
-1258495
-1258756
-1259015
-1258507
-1258616
-1258954
-1259090
-1259236
-1259131
-1258905
-1259128
-1259314
-1259379
-1259318
-1259394
-1259472
-1259506
-1259465
-1260305
-1259718
-1259803
-1259960
-1260003
-1259934
-1259844
-1260063
-1260186
-1260314
-1260095
-1260056
-1260055
-1260467
-1260762
-1260799
-1260808
-1261026
-1261164
-1262276
-1261466
-1260966
-1261194
-1261282
-1261499
-1261585
-1261508
-1261604
-1261850
-1261898
-1261936
-1261740
-1262002
-1262281
-1262295
-1261964
-1262107
-1262261
-1262446
-1262358
-1262118
-1262059
-1262494
-1262431
-1262700
-1262918
-1262428
-1262619
-1262725
-1262659
-1262477
-1262444
-1262891
-1263166
-1263182
-1263163
-1263113
-1263570
-1263649
-1263871
-1263810
-1263548
-1263867
-1263986
-1264169
-1264270
-1264208
-1264405
-1264564
-1264598
-1264795
-1264498
-1264836
-1264969
-1265082
-1265120
-1264973
-1265113
-1265121
-1265152
-1264998
-1264923
-1265024
-1265463
-1266409
-1265714
-1265629
-1265674
-1265843
-1265969
-1265811
-1265680
-1266139
-1266277
-1266367
-1266143
-1266271
-1266555
-1266782
-1266959
-1266969
-1266811
-1267071
-1267187
-1267383
-1267363
-1267429
-1267678
-1267686
-1267646
-1267693
-1267449
-1267721
-1267977
-1268005
-1267766
-1267837
-1268178
-1268156
-1268096
-1267943
-1268520
-1268316
-1268150
-1267946
-1267958
-1267525
-1267664
-1267590
-1267279
-1267042
-1266605
-1266726
-1266408
-1266210
-1266058
-1265546
-1265427
-1265040
-1264957
-1264528
-1263931
-1263809
-1263652
-1263534
-1263133
-1262666
-1262468
-1262158
-1261802
-1261431
-1260773
-1260665
-1260458
-1259975
-1259968
-1259697
-1259660
-1259631
-1259555
-1259306
-1258952
-1259042
-1258919
-1258960
-1258996
-1258725
-1258684
-1258666
-1258726
-1258653
-1258474
-1258489
-1258598
-1258646
-1258664
-1258531
-1258787
-1258981
-1259061
-1258787
-1258708
-1258889
-1259081
-1259192
-1259268
-1259206
-1259381
-1259542
-1259553
-1259529
-1259360
-1259707
-1259944
-1260219
-1260220
-1260237
-1260459
-1260518
-1260744
-1260922
-1260637
-1261027
-1261205
-1261380
-1261441
-1261319
-1261392
-1261401
-1261321
-1261082
-1261264
-1261404
-1261618
-1261817
-1262091
-1262133
-1262227
-1262392
-1262519
-1262472
-1262382
-1262614
-1262906
-1262934
-1263008
-1262923
-1263161
-1263278
-1263536
-1263354
-1263393
-1263703
-1264063
-1264201
-1263969
-1263942
-1264353
-1264607
-1264662
-1264833
-1264611
-1264889
-1265092
-1265274
-1265286
-1265269
-1265579
-1265758
-1266046
-1265939
-1265838
-1266091
-1266453
-1266601
-1266626
-1266700
-1266965
-1267081
-1267274
-1267317
-1266881
-1267134
-1267390
-1267491
-1267641
-1267532
-1267527
-1267887
-1267925
-1267902
-1267716
-1267927
-1268311
-1268278
-1268449
-1268133
-1268329
-1268350
-1268439
-1268330
-1268239
-1268436
-1268602
-1268745
-1268733
-1268022
-1268419
-1268575
-1268626
-1268579
-1268282
-1268331
-1268353
-1268511
-1268670
-1268193
-1268278
-1268307
-1268206
-1268156
-1267721
-1267929
-1268060
-1268033
-1267881
-1267556
-1267746
-1267859
-1267843
-1267934
-1267769
-1267826
-1267919
-1267962
-1267835
-1267809
-1267851
-1267854
-1268070
-1267892
-1267721
-1267812
-1268073
-1268112
-1268142
-1267946
-1267689
-1267806
-1268122
-1268395
-1268197
-1268307
-1268200
-1268241
-1268412
-1268247
-1268426
-1268587
-1268651
-1268512
-1268421
-1268540
-1268852
-1268926
-1268922
-1268860
-1269052
-1269111
-1269242
-1269219
-1269075
-1269219
-1269351
-1269389
-1269503
-1269469
-1269623
-1269789
-1269809
-1269874
-1269736
-1269908
-1269785
-1270142
-1270400
-1270326
-1270442
-1270597
-1270701
-1270867
-1270397
-1270583
-1270855
-1270934
-1270998
-1271116
-1271324
-1271352
-1271607
-1271440
-1271372
-1271527
-1271736
-1272036
-1272000
-1272026
-1272009
-1272204
-1272327
-1272235
-1271993
-1272226
-1272412
-1272667
-1272661
-1272512
-1273003
-1273039
-1273116
-1273016
-1272906
-1273172
-1273350
-1273265
-1273398
-1273389
-1273498
-1273671
-1274343
-1274046
-1273516
-1273761
-1273992
-1274199
-1274230
-1273991
-1274142
-1273922
-1274309
-1274340
-1274144
-1274262
-1274559
-1274560
-1274781
-1274527
-1274553
-1274749
-1274913
-1275082
-1274616
-1274713
-1275006
-1275117
-1275330
-1275247
-1275282
-1275320
-1275457
-1275208
-1275066
-1275337
-1275564
-1275556
-1275782
-1275376
-1275645
-1275701
-1275827
-1275926
-1275601
-1275707
-1276099
-1276163
-1276295
-1275956
-1275909
-1276146
-1276285
-1276467
-1276183
-1276287
-1276458
-1276639
-1276668
-1276479
-1276565
-1276648
-1276878
-1276817
-1277306
-1276810
-1277050
-1276970
-1277089
-1276856
-1276993
-1277124
-1277129
-1278054
-1277101
-1277051
-1277214
-1277380
-1277459
-1277253
-1277270
-1277397
-1277227
-1277151
-1276822
-1276923
-1276913
-1276795
-1276748
-1276353
-1276116
-1276162
-1275943
-1275738
-1275142
-1274889
-1274710
-1274570
-1274319
-1273823
-1273488
-1273326
-1272993
-1272597
-1271869
-1271619
-1271559
-1271254
-1271161
-1270671
-1270157
-1270009
-1269480
-1269572
-1269021
-1268941
-1269000
-1268694
-1268679
-1268260
-1267969
-1267878
-1267889
-1267695
-1267262
-1267324
-1268551
-1267703
-1267478
-1267243
-1266909
-1267215
-1267229
-1267341
-1266998
-1266955
-1267806
-1267495
-1267527
-1267510
-1267393
-1267607
-1267621
-1267613
-1267400
-1267716
-1267887
-1268078
-1268249
-1268064
-1267928
-1268543
-1268690
-1268784
-1268495
-1268700
-1269110
-1269279
-1269561
-1269486
-1269439
-1269600
-1269835
-1269925
-1269633
-1269716
-1269992
-1269755
-1270378
-1270346
-1270398
-1270637
-1270782
-1270741
-1270623
-1270737
-1271060
-1271129
-1271398
-1271263
-1271568
-1271713
-1271857
-1271485
-1271486
-1271800
-1271914
-1272212
-1272071
-1272053
-1272220
-1272310
-1272470
-1272318
-1272231
-1272650
-1272884
-1273001
-1272820
-1272811
-1273009
-1273131
-1273277
-1273063
-1273065
-1273481
-1273552
-1273700
-1273562
-1273602
-1273829
-1273890
-1273985
-1273866
-1273884
-1274182
-1274322
-1274305
-1274041
-1274026
-1274385
-1274395
-1274528
-1274207
-1274165
-1274472
-1274581
-1274764
-1274732
-1275212
-1274871
-1274750
-1275439
-1274723
-1274521
-1275060
-1274968
-1274946
-1274813
-1274629
-1274907
-1274851
-1274791
-1274474
-1274332
-1274614
-1274267
-1274556
-1274429
-1274391
-1274442
-1274549
-1274434
-1274052
-1274001
-1273998
-1273958
-1274018
-1273760
-1273439
-1273537
-1273520
-1273483
-1272991
-1272836
-1273054
-1273184
-1273132
-1272792
-1272708
-1272758
-1272721
-1272607
-1272284
-1271988
-1272328
-1272200
-1272221
-1271972
-1271836
-1271958
-1271909
-1271938
-1272044
-1271521
-1271623
-1271605
-1271643
-1271336
-1271157
-1271300
-1271310
-1271233
-1270952
-1270867
-1271171
-1271159
-1271218
-1271017
-1270972
-1271123
-1271056
-1271166
-1270906
-1270753
-1270970
-1271075
-1271058
-1270900
-1270709
-1271044
-1271073
-1271090
-1270811
-1270849
-1271047
-1271020
-1271080
-1270812
-1270880
-1271061
-1270799
-1271161
-1270910
-1270776
-1271132
-1271215
-1271314
-1271237
-1270977
-1271210
-1271229
-1271185
-1271051
-1271118
-1271322
-1271444
-1271685
-1271413
-1271243
-1271643
-1271551
-1271483
-1271328
-1271221
-1271649
-1271672
-1271502
-1271374
-1271503
-1271816
-1271689
-1271774
-1271612
-1271634
-1271812
-1272006
-1271950
-1271908
-1271691
-1271909
-1271926
-1272062
-1271770
-1271626
-1272060
-1272204
-1272364
-1271997
-1271891
-1272077
-1272331
-1272375
-1271990
-1272039
-1272341
-1272371
-1272558
-1272282
-1272285
-1272340
-1272398
-1272542
-1272222
-1272071
-1272352
-1272606
-1272744
-1272618
-1272375
-1272641
-1272674
-1272783
-1272443
-1272473
-1272784
-1272787
-1272988
-1272930
-1272743
-1272819
-1272925
-1273080
-1272681
-1272823
-1272991
-1273187
-1273323
-1273143
-1272976
-1272996
-1273014
-1272950
-1272726
-1272720
-1272977
-1272917
-1273135
-1273173
-1273016
-1273063
-1273076
-1273310
-1273161
-1272955
-1273216
-1273410
-1273413
-1273309
-1273171
-1273439
-1273519
-1273557
-1273306
-1273315
-1273455
-1273483
-1273323
-1273393
-1273379
-1273711
-1273668
-1273639
-1273351
-1273433
-1273736
-1273848
-1273815
-1273894
-1273669
-1273794
-1273887
-1273836
-1273661
-1273665
-1273896
-1274012
-1274043
-1274062
-1273776
-1273988
-1274060
-1273965
-1273427
-1273442
-1273871
-1274045
-1274071
-1273895
-1273555
-1273580
-1273333
-1273324
-1272779
-1272961
-1272681
-1272692
-1272326
-1271962
-1271770
-1271585
-1271272
-1270751
-1270316
-1270181
-1269734
-1269467
-1269513
-1268728
-1268562
-1268104
-1267802
-1267849
-1266976
-1266679
-1266513
-1266383
-1265845
-1265402
-1265348
-1265111
-1264908
-1264346
-1264169
-1264058
-1263933
-1263990
-1263701
-1263432
-1263339
-1263300
-1263183
-1262972
-1262758
-1262966
-1263062
-1263091
-1262968
-1262633
-1262860
-1262837
-1262980
-1262822
-1262629
-1262858
-1263183
-1263167
-1263308
-1263043
-1263361
-1263309
-1263376
-1263247
-1263274
-1263720
-1263865
-1264024
-1264042
-1263532
-1263893
-1264216
-1264286
-1264007
-1263981
-1264201
-1264506
-1264676
-1264602
-1264320
-1264721
-1264913
-1264971
-1264865
-1264901
-1265136
-1265262
-1265570
-1265531
-1265343
-1265618
-1265744
-1265878
-1265812
-1265594
-1266047
-1267352
-1266589
-1266344
-1266181
-1266370
-1266591
-1266779
-1266703
-1266527
-1266783
-1266953
-1267095
-1267019
-1267003
-1267154
-1267266
-1267331
-1267218
-1267086
-1267550
-1267726
-1267901
-1267773
-1267597
-1267805
-1267857
-1268009
-1267937
-1267863
-1268265
-1268453
-1268523
-1268505
-1268295
-1268420
-1268689
-1268687
-1268697
-1268710
-1269031
-1269157
-1269541
-1269419
-1269304
-1269501
-1270266
-1269805
-1269612
-1269508
-1269717
-1269849
-1270109
-1269958
-1269725
-1269985
-1270110
-1270132
-1270083
-1269930
-1270202
-1270369
-1270444
-1270303
-1270099
-1270266
-1270328
-1270477
-1270298
-1269965
-1270270
-1271080
-1270628
-1270451
-1269661
-1269984
-1270100
-1270011
-1269822
-1269719
-1269681
-1270004
-1269987
-1269914
-1269660
-1269771
-1269656
-1269705
-1269462
-1269132
-1269453
-1269457
-1269485
-1269294
-1269168
-1269189
-1269123
-1269151
-1268702
-1268321
-1268824
-1269069
-1268993
-1268876
-1268761
-1268814
-1268828
-1268785
-1268538
-1268438
-1268519
-1268532
-1268592
-1268441
-1268285
-1268377
-1268454
-1268226
-1268174
-1268028
-1268177
-1268308
-1268270
-1268325
-1268125
-1268202
-1268345
-1268422
-1268122
-1268002
-1268302
-1268424
-1268513
-1268388
-1268231
-1268324
-1268457
-1268571
-1268461
-1268122
-1268431
-1268506
-1268745
-1268656
-1268491
-1268659
-1268640
-1268660
-1268642
-1268551
-1268736
-1268777
-1268809
-1268895
-1268705
-1268832
-1268894
-1269123
-1268472
-1268692
-1269135
-1269263
-1269365
-1269196
-1269089
-1269177
-1269189
-1269398
-1269359
-1269248
-1269587
-1269667
-1269624
-1269723
-1269519
-1269570
-1269667
-1269818
-1269706
-1269464
-1269804
-1269830
-1270014
-1270038
-1269840
-1270057
-1270008
-1270061
-1270047
-1269948
-1270054
-1270205
-1270289
-1270429
-1270177
-1270576
-1270570
-1270715
-1270696
-1270550
-1270841
-1271028
-1271228
-1271236
-1271037
-1271213
-1271255
-1271227
-1271295
-1271116
-1271431
-1271565
-1271669
-1271781
-1271616
-1271710
-1271834
-1271845
-1271791
-1271674
-1271967
-1272026
-1272116
-1272209
-1272015
-1272126
-1272128
-1272239
-1272035
-1272083
-1272359
-1272427
-1272398
-1272476
-1272226
-1272376
-1272175
-1272203
-1272325
-1272240
-1272407
-1272575
-1272805
-1272744
-1272640
-1272678
-1272838
-1272813
-1272727
-1272438
-1272377
-1272794
-1272969
-1272825
-1272781
-1272933
-1272936
-1273031
-1272907
-1272804
-1272955
-1273197
-1273301
-1273308
-1273063
-1273293
-1273370
-1273325
-1273267
-1272941
-1273395
-1273425
-1273553
-1273668
-1273419
-1273525
-1273693
-1273725
-1273521
-1273414
-1273635
-1273641
-1273724
-1273841
-1273364
-1273434
-1273466
-1273368
-1273004
-1272636
-1272587
-1272630
-1272433
-1272057
-1271736
-1271596
-1271363
-1271126
-1270537
-1270076
-1270037
-1269868
-1269527
-1269049
-1268462
-1268295
-1268025
-1267844
-1267369
-1266841
-1266721
-1266525
-1266419
-1266092
-1265548
-1265527
-1265257
-1265103
-1264932
-1264325
-1264431
-1264278
-1264129
-1264103
-1263724
-1263830
-1263765
-1263557
-1263474
-1263104
-1263285
-1263473
-1263329
-1263456
-1263175
-1263286
-1263509
-1263580
-1263354
-1263188
-1263412
-1263537
-1263601
-1264320
-1263709
-1263593
-1263672
-1263776
-1263756
-1263599
-1263932
-1264204
-1264315
-1264456
-1264257
-1264478
-1264591
-1264692
-1264255
-1264515
-1264915
-1264841
-1265238
-1265248
-1265122
-1265441
-1265533
-1265595
-1265653
-1265533
-1265725
-1266097
-1266245
-1266213
-1266174
-1266380
-1266525
-1266399
-1266449
-1266400
-1266662
-1266982
-1266951
-1267036
-1266711
-1267138
-1267173
-1267092
-1266865
-1267375
-1267362
-1267596
-1267703
-1267518
-1267505
-1267588
-1267717
-1267844
-1267654
-1267917
-1268104
-1268080
-1268279
-1268245
-1268402
-1268549
-1268654
-1268670
-1268324
-1268881
-1268950
-1269208
-1269094
-1269006
-1269099
-1269378
-1269454
-1269310
-1269134
-1269344
-1269963
-1269845
-1269741
-1269742
-1269902
-1269963
-1270169
-1270129
-1269705
-1270018
-1270323
-1270481
-1270468
-1270247
-1270402
-1270411
-1270403
-1270492
-1270263
-1270492
-1270717
-1270685
-1270726
-1270468
-1270691
-1270595
-1270765
-1270636
-1270320
-1270584
-1270753
-1270713
-1270559
-1270507
-1270581
-1270467
-1270509
-1270352
-1270224
-1270379
-1270345
-1270422
-1270557
-1270180
-1270229
-1270262
-1270192
-1270112
-1269915
-1270127
-1271293
-1270473
-1270032
-1269754
-1269832
-1269983
-1269992
-1269727
-1269648
-1269715
-1269766
-1269658
-1269665
-1269343
-1269558
-1269635
-1269679
-1269626
-1269396
-1269533
-1269523
-1269584
-1269516
-1269304
-1269456
-1269564
-1269526
-1269222
-1269245
-1269473
-1269605
-1269655
-1269717
-1269508
-1269698
-1269820
-1269793
-1269775
-1269655
-1269865
-1270073
-1270166
-1270279
-1269954
-1269917
-1270138
-1270325
-1270220
-1270003
-1270253
-1270520
-1270605
-1270526
-1270446
-1270619
-1270684
-1270674
-1270526
-1270395
-1270666
-1270832
-1271022
-1271135
-1270952
-1271025
-1271225
-1271336
-1271044
-1270963
-1271180
-1271383
-1271512
-1271544
-1271258
-1271676
-1271688
-1271858
-1271637
-1271339
-1271515
-1271706
-1271909
-1271995
-1271818
-1272035
-1272001
-1271996
-1271852
-1271740
-1272030
-1272182
-1272278
-1272197
-1272132
-1272190
-1272368
-1272379
-1272251
-1272037
-1272437
-1272507
-1272617
-1272625
-1272475
-1272640
-1272819
-1272908
-1272819
-1272568
-1272741
-1273017
-1273215
-1273036
-1272917
-1273203
-1273359
-1273338
-1273109
-1273118
-1273016
-1273497
-1273517
-1273512
-1273422
-1273749
-1273764
-1273804
-1273721
-1273463
-1273755
-1274108
-1274027
-1273934
-1273418
-1274026
-1274207
-1274193
-1274146
-1273939
-1274171
-1274433
-1274572
-1274640
-1274398
-1274459
-1274521
-1274828
-1274589
-1274498
-1274869
-1274863
-1275107
-1275073
-1274922
-1274981
-1275145
-1275196
-1275315
-1275165
-1275333
-1275457
-1275637
-1275647
-1275633
-1275768
-1275749
-1275820
-1275860
-1275563
-1275624
-1276085
-1276193
-1276211
-1276067
-1276056
-1276337
-1276411
-1276169
-1276159
-1276353
-1276318
-1276453
-1276454
-1276257
-1276247
-1276234
-1276125
-1276198
-1275635
-1275731
-1275705
-1275514
-1276323
-1275353
-1275020
-1274669
-1274554
-1273932
-1273533
-1273479
-1273414
-1273167
-1272769
-1272236
-1272113
-1271817
-1271474
-1271038
-1270604
-1270545
-1270349
-1269964
-1269782
-1269213
-1269077
-1268858
-1268689
-1268388
-1267899
-1268035
-1267894
-1267690
-1267569
-1267413
-1267370
-1267263
-1267124
-1266730
-1266569
-1266740
-1266871
-1266746
-1266698
-1266628
-1266808
-1266819
-1266774
-1266510
-1266392
-1266685
-1266932
-1267085
-1266946
-1266805
-1267003
-1267188
-1267382
-1267178
-1266956
-1267270
-1267464
-1267586
-1267722
-1267534
-1267792
-1267973
-1268044
-1267948
-1267974
-1268154
-1268467
-1268606
-1268634
-1268569
-1268794
-1268845
-1268941
-1268888
-1268882
-1269235
-1269298
-1269479
-1269443
-1269331
-1269612
-1269915
-1269894
-1269910
-1269734
-1270019
-1270212
-1270398
-1270307
-1270217
-1270499
-1270657
-1270791
-1270601
-1270675
-1270889
-1271234
-1271281
-1272130
-1271584
-1271732
-1271673
-1271663
-1271699
-1271559
-1271879
-1271945
-1271997
-1272152
-1271985
-1272333
-1272441
-1272407
-1272415
-1272307
-1272533
-1272761
-1272897
-1273118
-1272935
-1273110
-1272992
-1273250
-1273210
-1273112
-1273331
-1273692
-1273788
-1273924
-1274314
-1274050
-1274000
-1274160
-1274074
-1273763
-1274103
-1274265
-1274321
-1274337
-1274293
-1274355
-1274504
-1274643
-1274400
-1274176
-1274349
-1274600
-1274923
-1274609
-1274347
-1274475
-1274620
-1274605
-1274356
-1274335
-1274395
-1274526
-1274602
-1274519
-1274435
-1274498
-1274461
-1274320
-1273968
-1274279
-1274367
-1274280
-1274115
-1274025
-1274018
-1274230
-1274073
-1273695
-1273640
-1273805
-1273878
-1273846
-1273762
-1273636
-1273659
-1273728
-1273719
-1273433
-1273267
-1273429
-1273506
-1273540
-1273617
-1273512
-1273426
-1273535
-1273594
-1273517
-1273279
-1273569
-1273705
-1273611
-1273614
-1273491
-1273597
-1273653
-1273701
-1273527
-1273494
-1273755
-1273877
-1273759
-1273914
-1273780
-1273911
-1273960
-1274125
-1273906
-1273873
-1274172
-1274349
-1274495
-1274488
-1274385
-1274549
-1274592
-1274496
-1274071
-1274286
-1274642
-1274934
-1274996
-1274884
-1274781
-1274853
-1275140
-1275165
-1274989
-1274910
-1275172
-1275364
-1275456
-1275480
-1275394
-1275629
-1275699
-1275599
-1275663
-1275493
-1275620
-1275888
-1276049
-1276012
-1275852
-1275988
-1276282
-1276277
-1276143
-1276043
-1276241
-1276392
-1276425
-1276398
-1276298
-1276429
-1276525
-1276555
-1276514
-1276421
-1276746
-1276774
-1276713
-1276843
-1276607
-1276757
-1276890
-1276915
-1276816
-1276765
-1277057
-1277067
-1277087
-1277193
-1276913
-1277098
-1277917
-1277499
-1277234
-1277020
-1277165
-1277439
-1277454
-1277352
-1277262
-1277476
-1277509
-1277577
-1277539
-1277306
-1277625
-1277726
-1277806
-1277886
-1277630
-1277992
-1277918
-1278108
-1277979
-1277905
-1278137
-1278255
-1278454
-1278318
-1278166
-1278238
-1278593
-1278624
-1278453
-1278298
-1278582
-1278857
-1279032
-1278885
-1278736
-1279023
-1279196
-1279889
-1279165
-1278980
-1279022
-1279153
-1279272
-1279068
-1278855
-1278955
-1279109
-1278936
-1278623
-1278343
-1278682
-1278591
-1278429
-1278297
-1277970
-1277620
-1277427
-1277294
-1276509
-1276033
-1276143
-1276127
-1275854
-1275575
-1274813
-1274778
-1274497
-1274138
-1273690
-1273248
-1273071
-1273073
-1272731
-1272382
-1272062
-1271879
-1271750
-1271618
-1271245
-1270874
-1270826
-1270765
-1270617
-1270486
-1270174
-1270328
-1270218
-1270122
-1269770
-1269473
-1269759
-1269757
-1269746
-1269697
-1269441
-1269664
-1269694
-1269700
-1269533
-1269392
-1269701
-1269808
-1269806
-1269854
-1269705
-1270007
-1270106
-1270189
-1269898
-1269768
-1270145
-1270275
-1270424
-1270526
-1270392
-1270590
-1272060
-1271108
-1270770
-1270696
-1271047
-1271229
-1271414
-1271366
-1271230
-1271486
-1271726
-1271712
-1271545
-1271488
-1271938
-1272166
-1272336
-1272454
-1272251
-1272635
-1272626
-1272817
-1272612
-1272516
-1272777
-1273115
-1273198
-1273182
-1273106
-1273401
-1273527
-1273626
-1273454
-1273402
-1273797
-1273973
-1273815
-1273984
-1273986
-1274265
-1274468
-1274524
-1274570
-1274373
-1274608
-1274863
-1275015
-1274958
-1274957
-1275285
-1275262
-1275277
-1275213
-1275107
-1275519
-1275690
-1275800
-1275759
-1275767
-1276122
-1276372
-1276362
-1276102
-1276136
-1276472
-1276653
-1276818
-1276753
-1276727
-1276977
-1277095
-1277126
-1277016
-1276886
-1276971
-1277002
-1277130
-1277146
-1277143
-1277398
-1277315
-1277363
-1277085
-1276929
-1277393
-1277407
-1277424
-1277501
-1277278
