PPG
-657614
-657558
-657448
-657521
-657458
-657412
-657404
-657336
-657355
-657425
-657433
-657503
-657540
-657505
-657439
-657584
-657618
-657711
-657723
-657821
-657951
-657952
-658074
-658180
-658194
-658296
-658429
-658496
-658654
-658637
-658811
-658853
-658978
-658983
-659040
-659166
-659214
-659226
-659277
-659249
-659390
-659393
-659265
-659483
-659433
-659482
-659324
-659411
-659429
-659359
-659448
-659378
-659468
-659431
-659292
-659318
-659316
-659212
-659154
-659134
-659061
-659134
-658972
-659002
-658984
-658972
-658995
-658947
-658868
-658941
-658841
-658834
-658852
-658826
-658878
-658842
-658908
-658948
-658870
-658883
-658878
-659041
-659048
-659085
-659147
-659166
-658999
-659139
-659203
-659283
-659305
-659466
-659485
-659456
-659603
-659639
-659657
-659698
-659709
-659881
-659875
-659994
-659945
-659962
-659956
-660073
-660240
-660255
-660275
-660392
-660393
-660517
-660480
-660493
-660544
-660685
-660617
-660565
-660677
-660822
-660852
-660903
-660866
-660905
-660893
-660904
-660969
-660962
-660986
-661024
-661062
-661168
-661073
-661130
-661570
-661396
-661328
-661246
-661379
-661425
-661445
-661505
-661528
-661313
-661455
-661488
-661507
-661517
-661596
-661654
-661582
-661667
-661672
-661497
-661564
-661690
-661725
-661693
-661801
-661833
-661829
-661882
-661849
-661838
-661942
-661983
-661923
-662002
-661910
-661997
-662108
-662107
-662145
-662214
-662152
-662068
-662190
-662244
-662295
-662266
-662292
-662375
-662404
-662449
-662521
-662583
-662489
-662509
-662600
-662603
-662659
-662614
-662698
-662662
-662721
-662747
-662765
-662823
-662916
-662898
-662926
-663373
-663075
-662909
-663001
-663043
-663007
-663051
-663066
-663096
-663128
-663082
-663095
-663198
-663135
-663147
-663088
-663278
-663306
-663348
-663352
-663348
-663302
-663341
-663421
-663390
-663469
-663518
-663590
-663524
-663585
-664101
-663780
-663689
-663729
-663680
-663711
-663835
-663875
-663850
-663925
-664000
-664007
-664049
-664032
-664086
-664092
-664185
-664224
-664277
-664175
-664267
-664269
-664319
-664396
-664328
-664419
-664442
-664487
-664525
-664458
-664520
-664610
-664686
-664623
-664638
-664793
-664812
-664846
-664802
-664844
-664903
-664878
-664940
-665054
-665019
-664999
-665108
-665131
-665220
-665226
-665152
-665217
-665297
-665405
-665335
-665433
-665465
-665480
-665515
-665893
-665690
-665628
-665575
-665712
-665627
-665751
-665861
-665866
-665844
-665906
-665969
-666036
-665973
-665969
-666127
-666106
-666157
-666184
-666311
-666263
-666236
-666316
-666454
-666406
-666347
-666412
-666535
-666534
-666512
-666582
-666650
-666742
-666692
-666689
-666694
-666826
-666868
-666834
-666850
-666791
-666898
-666948
-666976
-666958
-666914
-667002
-667061
-667117
-667120
-667084
-667093
-667239
-667251
-667175
-667150
-667237
-667162
-667187
-667225
-667089
-667068
-667129
-666980
-666752
-666674
-666561
-666356
-666155
-665891
-665553
-665324
-665006
-664688
-664348
-663947
-663658
-663296
-662929
-662561
-662193
-661885
-661519
-661265
-660852
-660486
-660097
-659892
-659593
-659333
-659098
-658862
-658750
-658626
-658971
-658388
-658170
-658051
-658009
-657962
-657906
-657931
-657871
-657973
-658030
-657994
-658020
-658086
-658223
-658357
-658362
-658578
-658776
-658806
-658919
-658930
-659063
-659224
-659090
-659415
-659507
-659555
-659773
-660251
-660074
-660248
-660259
-660305
-660327
-660496
-660558
-660630
-660675
-660739
-660703
-660667
-660771
-660941
-660947
-660929
-660923
-660962
-660996
-660969
-660981
-660893
-660868
-660898
-660783
-660743
-660681
-660740
-660720
-660642
-660621
-660602
-660694
-660594
-660608
-660636
-660622
-660598
-660673
-660721
-660809
-660865
-660898
-660874
-660905
-660979
-661077
-661212
-661258
-661368
-661350
-661406
-661473
-661593
-661689
-661708
-661814
-661949
-661759
-661961
-662093
-662111
-662255
-662574
-662385
-662364
-662290
-662373
-662465
-662420
-662502
-662426
-662402
-662442
-662468
-662405
-662334
-662514
-662397
-662443
-662423
-662764
-662481
-662386
-662261
-662206
-662195
-662158
-662218
-662163
-662212
-662102
-662093
-662117
-662105
-662103
-661980
-662033
-661949
-661995
-662026
-661979
-661980
-662011
-662112
-662071
-662087
-662101
-662150
-662188
-662223
-662191
-662247
-662218
-662270
-662203
-662226
-662387
-662270
-662420
-662421
-662436
-662592
-662602
-662632
-662705
-662720
-662779
-662667
-662883
-662910
-662855
-662949
-663002
-663089
-663065
-663091
-663138
-663168
-663243
-663296
-663318
-663419
-663429
-663377
-663548
-663461
-663550
-663529
-663645
-663746
-663701
-663814
-663605
-663881
-663910
-663915
-664063
-664050
-664069
-664066
-664034
-664287
-664257
-664324
-664376
-664055
-664277
-664379
-664343
-664444
-664448
-664508
-664493
-664501
-664476
-664519
-664567
-664598
-664643
-664614
-664623
-664538
-664660
-664610
-664655
-664665
-664679
-664717
-664665
-664646
-664705
-664741
-664695
-664772
-664855
-664744
-664844
-664852
-664831
-664920
-664932
-664972
-664952
-665401
-665110
-665065
-665126
-665139
-665070
-665226
-665232
-665238
-665278
-665173
-665279
-665303
-665382
-665328
-665359
-665375
-665342
-665413
-665432
-665435
-665522
-665637
-665752
-665821
-665824
-665887
-665821
-665831
-665833
-665825
-665911
-665946
-666032
-666097
-665996
-665958
-665994
-666114
-666104
-666202
-666270
-666165
-666230
-666197
-666196
-666313
-666371
-666376
-666355
-666321
-666361
-666384
-666440
-666524
-666572
-666555
-666480
-666575
-666619
-666709
-666726
-666692
-666792
-666739
-666819
-666904
-666858
-666943
-666975
-666922
-666929
-666957
-667104
-667077
-667049
-667098
-667119
-667200
-667241
-667231
-667389
-667354
-667428
-667390
-667427
-667400
-667446
-667529
-667554
-667542
-667598
-667600
-667656
-667747
-667788
-667798
-667860
-667947
-667835
-667977
-668049
-668022
-668033
-668039
-668128
-668193
-668206
-668220
-668327
-668325
-668315
-668311
-668424
-668406
-668446
-668573
-668563
-668621
-668641
-668632
-668648
-668720
-668856
-668769
-668864
-668908
-668893
-668960
-668919
-669009
-668983
-669103
-669034
-669160
-669119
-669271
-669249
-669246
-669314
-669299
-669358
-669378
-669455
-669447
-669433
-669455
-669488
-669516
-669545
-669529
-669635
-669595
-669688
-669752
-669765
-669739
-669728
-669771
-669739
-669722
-669786
-669740
-669829
-669759
-669739
-669724
-669611
-669494
-669413
-669300
-669131
-668992
-668776
-668578
-668300
-667934
-667591
-667322
-667107
-666660
-666362
-666022
-665639
-665323
-664929
-664482
-664290
-663861
-663502
-663216
-662957
-662624
-662285
-662117
-661789
-661632
-661384
-661224
-661098
-660936
-660790
-660703
-660618
-660616
-660536
-660562
-660494
-660645
-660550
-660568
-660724
-660669
-660768
-660896
-660973
-661140
-661213
-661315
-661434
-661523
-661674
-661745
-661918
-662071
-662152
-662276
-662413
-662452
-662564
-662671
-662833
-662906
-662999
-663087
-663137
-663191
-663324
-663369
-663452
-663355
-663438
-663552
-663545
-663543
-663574
-663596
-663625
-663697
-663722
-663690
-663624
-663648
-663691
-663714
-663581
-663660
-663602
-663640
-663586
-663561
-663545
-663549
-663587
-663499
-663557
-663560
-663656
-663613
-663741
-663649
-663760
-663810
-663923
-663926
-663916
-664084
-664062
-664100
-664251
-664256
-664282
-664459
-664467
-664486
-664487
-664505
-664591
-664692
-664728
-664672
-664750
-664627
-664745
-664709
-664737
-664689
-664728
-664740
-664778
-664731
-664800
-664769
-664616
-664706
-664703
-664681
-664599
-664639
-664632
-664588
-664536
-664504
-664457
-664394
-664435
-664401
-664352
-664282
-664331
-664239
-664366
-664250
-664224
-664197
-664178
-664215
-664191
-664203
-664169
-664141
-664249
-664260
-664269
-664245
-664255
-664305
-664401
-664315
-664279
-664445
-664493
-664522
-664595
-664576
-664614
-664658
-664688
-664726
-664757
-664842
-664942
-664931
-665037
-665057
-665045
-665171
-665227
-665271
-665396
-665423
-665575
-665591
-665705
-665762
-665691
-665797
-665808
-665885
-665959
-666006
-666130
-666123
-666249
-666286
-666279
-666311
-666336
-666300
-666519
-666516
-666548
-666573
-666539
-666638
-666575
-666594
-666718
-666788
-666803
-666798
-666831
-666838
-666887
-666822
-666795
-666893
-666883
-666905
-667056
-666943
-667019
-667096
-667064
-667079
-666996
-667037
-667101
-667063
-667062
-667111
-667010
-667116
-667139
-667158
-667060
-667144
-667090
-667203
-667173
-667260
-667301
-667215
-667394
-667365
-667351
-667383
-667341
-667461
-667534
-667543
-667538
-667561
-667565
-667576
-667639
-667659
-667594
-667626
-667728
-667730
-667838
-667709
-667795
-667869
-667828
-667861
-667933
-668021
-667969
-667962
-667952
-668002
-668006
-668105
-668103
-668125
-668070
-668168
-668215
-668146
-668204
-668187
-668247
-668244
-668260
-668199
-668219
-668294
-668207
-668334
-668352
-668397
-668416
-668476
-668484
-668289
-668366
-668392
-668465
-668571
-668680
-668547
-668684
-668714
-668668
-668683
-668671
-668726
-668828
-668904
-668936
-668843
-668948
-668964
-668928
-668993
-668955
-669068
-669090
-669161
-669073
-669171
-669151
-669291
-669253
-669387
-669329
-669365
-669374
-669367
-669477
-669507
-669613
-669571
-669692
-669717
-669662
-669717
-669700
-669803
-669930
-669844
-669863
-669869
-669953
-669970
-670000
-670163
-670110
-670175
-670183
-670117
-669932
-670069
-669945
-670223
-670476
-670280
-670371
-670022
-670136
-670278
-670259
-670266
-670410
-670443
-670430
-670495
-670465
-670494
-670505
-670411
-670568
-670655
-671259
-670809
-670764
-670820
-670807
-670750
-670804
-670826
-670887
-670853
-670924
-670899
-670994
-671498
-671141
-671526
-671191
-671126
-671140
-671128
-671654
-671277
-671221
-671345
-671426
-671429
-671372
-671392
-671508
-671454
-671532
-671539
-671643
-671614
-671690
-671773
-671652
-671708
-671725
-671730
-671828
-671825
-671835
-671902
-671821
-672007
-671942
-671936
-671989
-672036
-671859
-671952
-671966
-671915
-671854
-671907
-671781
-671733
-671678
-671503
-671314
-671168
-670849
-670685
-670364
-670103
-669780
-669426
-669206
-668863
-668483
-667991
-667783
-667419
-667035
-666658
-666252
-665818
-665519
-665287
-664994
-664625
-664338
-664111
-663840
-663537
-663256
-663124
-663020
-662916
-662782
-662547
-662481
-662509
-662407
-662443
-662182
-662425
-662339
-662418
-662387
-662422
-662504
-662562
-662698
-662777
-662824
-662999
-663034
-663175
-663343
-663391
-663463
-663676
-663718
-663848
-663760
-664008
-664112
-664290
-664304
-664315
-664457
-664576
-664636
-664701
-664832
-664960
-665004
-664986
-665148
-665037
-665053
-665202
-665194
-665241
-665154
-665215
-665182
-665260
-665271
-665285
-665302
-665246
-665275
-665259
-665209
-665261
-665123
-665190
-665188
-665084
-665230
-665125
-665239
-665234
-665224
-665131
-665169
-665199
-665183
-665185
-665273
-665331
-665348
-665465
-665513
-665476
-665429
-665637
-665809
-665790
-665895
-665744
-665968
-665988
-666055
-666159
-666237
-666260
-666378
-666350
-666370
-666394
-666339
-666338
-666411
-666370
-666352
-666461
-666388
-666352
-666368
-666401
-666459
-666486
-666405
-666439
-666418
-666420
-666341
-666264
-666273
-666213
-666234
-666165
-665926
-666083
-666086
-666165
-666140
-665957
-665912
-665987
-666046
-665955
-665951
-665833
-665839
-665803
-665866
-665790
-665799
-665569
-665814
-665866
-665861
-665940
-665876
-665926
-665976
-665997
-665946
-666017
-666000
-666090
-666082
-666171
-666240
-666215
-666249
-666218
-666353
-666447
-666444
-666560
-666525
-666624
-666725
-666803
-666777
-666827
-666880
-667010
-667100
-667022
-667107
-667156
-667306
-667396
-667360
-667492
-667547
-667624
-667628
-667680
-667745
-667862
-668092
-667946
-667919
-667976
-668110
-668128
-668218
-668167
-668567
-668427
-668366
-668408
-668463
-668539
-668592
-668674
-668916
-668757
-668696
-668734
-668789
-668815
-668872
-668852
-668879
-669227
-669066
-668912
-668966
-668961
-668969
-669035
-669092
-669250
-669479
-669265
-669225
-669640
-669380
-669092
-669238
-669278
-669303
-669223
-669306
-669392
-669422
-669495
-669391
-669431
-669406
-669513
-669448
-669440
-669510
-669590
-669550
-669673
-669516
-669607
-669646
-669622
-669725
-669671
-669750
-669684
-669722
-669760
-669782
-669854
-669835
-669913
-669937
-669969
-669920
-669928
-669955
-670040
-670031
-670054
-670041
-670027
-670171
-670140
-670175
-670305
-670237
-670274
-670200
-670300
-670402
-670290
-670315
-670465
-670480
-670466
-670525
-670564
-670531
-670564
-670715
-670654
-670709
-670740
-670849
-670850
-670910
-670865
-670904
-670994
-670977
-671048
-671125
-671102
-671172
-671320
-671345
-671331
-671479
-671411
-671433
-671513
-671366
-671548
-671609
-671763
-671660
-672006
-672089
-671868
-671809
-671835
-671819
-671905
-671917
-671944
-672273
-672120
-672141
-672116
-672149
-672167
-672156
-672207
-672504
-672361
-672358
-672290
-672270
-672269
-672228
-672284
-672669
-672742
-672554
-672390
-672381
-672481
-672540
-672553
-672541
-672658
-672563
-673054
-672819
-672647
-672679
-672675
-672726
-672737
-672743
-672808
-672745
-672871
-672898
-672853
-672881
-672931
-673015
-673007
-673113
-673135
-673057
-673103
-673155
-673212
-673266
-673323
-673322
-673401
-673447
-673444
-673423
-673368
-673457
-673506
-673657
-673585
-673706
-673681
-673739
-673756
-673858
-673856
-673919
-673970
-673998
-673978
-674135
-674136
-674116
-674200
-674105
-674215
-674232
-674276
-674304
-674329
-674288
-674369
-674468
-674491
-674510
-674534
-674532
-674630
-674632
-674620
-674595
-674655
-674677
-674653
-674636
-674573
-674495
-674431
-674246
-674181
-674076
-673846
-673638
-673359
-673127
-672830
-672424
-672218
-671793
-671452
-671405
-670843
-670192
-669893
-669479
-669181
-668791
-668478
-668133
-667634
-667344
-665450
-665124
-665033
-664844
-664693
-664699
-664577
-664889
-664731
-664737
-664792
-664836
-664982
-664985
-665015
-665287
-665462
-665297
-665523
-665649
-665830
-665840
-665990
-666068
-666166
-666291
-666371
-666526
-666668
-666797
-666867
-666848
-667018
-667100
-667215
-667320
-667374
-667376
-667510
-667493
-667650
-667640
-667629
-667718
-667801
-667866
-667755
-667790
-667827
-667823
-667898
-667830
-667897
-667797
-668313
-668005
-667879
-667920
-667971
-667868
-667909
-667934
-667941
-667925
-668000
-668055
-668035
-668034
-668105
-668079
-668243
-668188
-668213
-668364
-668340
-668394
-668389
-668536
-668633
-668675
-668728
-668676
-668662
-668786
-668825
-668799
-668723
-668855
-668793
-668843
-668869
-668850
-668891
-668822
-668783
-668855
-668686
-669020
-668779
-668701
-668517
-668478
-668495
-668483
-668484
-668649
-668800
-668364
-668360
-668235
-668181
-668087
-668072
-668070
-668284
-668077
-667936
-667939
-667807
-667835
-667778
-667735
-668066
-667872
-667816
-667773
-667635
-667730
-667777
-667814
-667897
-667763
-667676
-667848
-667901
-667816
-667852
-667832
-667939
-667952
-668050
-667963
-668054
-668145
-668213
-668296
-668273
-668263
-668196
-668374
-668454
-668477
-668500
-668579
-668638
-668702
-668697
-668741
-668803
-668903
-668991
-668920
-668961
-669004
-669106
-669213
-669230
-669170
-669319
-669323
-669428
-669459
-669500
-669553
-669581
-669683
-669571
-669585
-669737
-669791
-669733
-669781
-669862
-669873
-669898
-669954
-669933
-669921
-669908
-669912
-670055
-670066
-670017
-670120
-670175
-670146
-670198
-670129
-670167
-670155
-670227
-670263
-670250
-670197
-670321
-670334
-670244
-670227
-670334
-670283
-670325
-670268
-670313
-670377
-670411
-670466
-670393
-670474
-670733
-670603
-670493
-670467
-670509
-670512
-670559
-670587
-670921
-670734
-670747
-670647
-670663
-670710
-670743
-670723
-670946
-671058
-670797
-670761
-670738
-670860
-670895
-670806
-670776
-671124
-670966
-670909
-670963
-670856
-670929
-670926
-670933
-670954
-670968
-671080
-671072
-671656
-671262
-671193
-671209
-671159
-671204
-671175
-671192
-671177
-671264
-671230
-671331
-671371
-671354
-671300
-671384
-671318
-671375
-671362
-671467
-671457
-671458
-671406
-671507
-671485
-671547
-671513
-671545
-671629
-671687
-671686
-671643
-671640
-671535
-671794
-671780
-671809
-671839
-671993
-672041
-671939
-671895
-672030
-672058
-672062
-672103
-672063
-672174
-672229
-672224
-672316
-672376
-672433
-672418
-672503
-672489
-672487
-672523
-672531
-672586
-672663
-672726
-672771
-672788
-672780
-672764
-673316
-673101
-672982
-672934
-672986
-672914
-672962
-673014
-672993
-673049
-673055
-673074
-673169
-673174
-673170
-673220
-673130
-673271
-673263
-673291
-673312
-673361
-673436
-673381
-673360
-673531
-673539
-673538
-673544
-673519
-674124
-673712
-673656
-673586
-673647
-673686
-673676
-673776
-673709
-673970
-674063
-673913
-674600
-674165
-674076
-674164
-674049
-674118
-674153
-674207
-674212
-674224
-674314
-674347
-674279
-674285
-674357
-674405
-674491
-674527
-674583
-674565
-674552
-674515
-674578
-674608
-674655
-674775
-674796
-674839
-674838
-674789
-674753
-674847
-674649
-674750
-674748
-674766
-674813
-674641
-674728
-674440
-674339
-674552
-674283
-673895
-673597
-673253
-673067
-672770
-672404
-672111
-672049
-671358
-670972
-670556
-670165
-669695
-669320
-668975
-668860
-668296
-667870
-667584
-667203
-666928
-666643
-666253
-666333
-665926
-665716
-665455
-665235
-665141
-664882
-664694
-664526
-664486
-664445
-664360
-664403
-664389
-664255
-664362
-664377
-664409
-664420
-664507
-664563
-664594
-664712
-664663
-664708
-664937
-664968
-665119
-665167
-665250
-665347
-665404
-665585
-665648
-665640
-665806
-665979
-666099
-666097
-666216
-666243
-666293
-666365
-666364
-666440
-666549
-666609
-666683
-666739
-666757
-666820
-666875
-666855
-666945
-666876
-666918
-667000
-666982
-666904
-666933
-667027
-667326
-667076
-666939
-666997
-666921
-667012
-666899
-666867
-666906
-666821
-666846
-666797
-666836
-666860
-666930
-666909
-666880
-666906
-666932
-666982
-667011
-666912
-666877
-666905
-667024
-667011
-667111
-667183
-667167
-667156
-667247
-667219
-667183
-667288
-667300
-667443
-667422
-667337
-667428
-667504
-667448
-667352
-667236
-667405
-667425
-667396
-667416
-667434
-667438
-667439
-667300
-667365
-667335
-667195
-667242
-667172
-667152
-667153
-667055
-667021
-667060
-666917
-666980
-666875
-666844
-666833
-666739
-666694
-666747
-666726
-666622
-666576
-666553
-666474
-666496
-666616
-666471
-666378
-666512
-666517
-666501
-666485
-666501
-666458
-666496
-666498
-666515
-666489
-666573
-666612
-666542
-666621
-666635
-666581
-666657
-666748
-666816
-666935
-666965
-667030
-667081
-667087
-667132
-667140
-667315
-667286
-667273
-667491
-667788
-667687
-667580
-667653
-667718
-667729
-667755
-667832
-668177
-668015
-668091
-668085
-668079
-668545
-668340
-668346
-668363
-668348
-668399
-668396
-668816
-668561
-668607
-668538
-668459
-668588
-668653
-668709
-668663
-668637
-668668
-668699
-668705
-668727
-668867
-668786
-668813
-668841
-668901
-668888
-668845
-669008
-668928
-668930
-668922
-669035
-669018
-669085
-669047
-669204
-669193
-669213
-669142
-669178
-669234
-669250
-669134
-669169
-669296
-669365
-669405
-669416
-669379
-669420
-669372
-669421
-669432
-669376
-669404
-669456
-669501
-669457
-669494
-669613
-669518
-669559
-669575
-669580
-669567
-669634
-669733
-669658
-669601
-669717
-669680
-669721
-669718
-669776
-669761
-669862
-669973
-669863
-669810
-669831
-669882
-669910
-670007
-669962
-669973
-669951
-670033
-669987
-670015
-670050
-670101
-670207
-670164
-670116
-670174
-670260
-670339
-670400
-670364
-670365
-670390
-670446
-670506
-670492
-670565
-670400
-670571
-670586
-670618
-670676
-670642
-670801
-670751
-670680
-670762
-670788
-670813
-670864
-670762
-670754
-670755
-670880
-670877
-670858
-670962
-670926
-670970
-670976
-670993
-670844
-670967
-671079
-671114
-671068
-671287
-671179
-671248
-671250
-671313
-671383
-671386
-671385
-671419
-671406
-671411
-671520
-671526
-671507
-671495
-671638
-671706
-671602
-671776
-671711
-671767
-671826
-671855
-671821
-671597
-671771
-671826
-671905
-671977
-672436
-672178
-672104
-672105
-672152
-672171
-672236
-672199
-672267
-672318
-672401
-672676
-672557
-672514
-672496
-672513
-672469
-672553
-672660
-672899
-672939
-672805
-672802
-672777
-672753
-672787
-672777
-672912
-673209
-672916
-672940
-672960
-673062
-673000
-672971
-672967
-673295
-673240
-673177
-673060
-673144
-673170
-673139
-673093
-673027
-673034
-673180
-673128
-673065
-672919
-672785
-672675
-672379
-672419
-672350
-672153
-671914
-671634
-671397
-671081
-670768
-670805
-670229
-669859
-669409
-669083
-668718
-668323
-667974
-667506
-667190
-666791
-666473
-666192
-665810
-665547
-665289
-665001
-664738
-664330
-664298
-664127
-663894
-663791
-663588
-663439
-663261
-663120
-663137
-663053
-663040
-663063
-663046
-663008
-663016
-663022
-663125
-663134
-663183
-663265
-663331
-663415
-663472
-663548
-663649
-663816
-663857
-664025
-664158
-664192
-664271
-664380
-664531
-664675
-664658
-664862
-664938
-664984
-665066
-665142
-665238
-665306
-665395
-665369
-665323
-665318
-665360
-665466
-665493
-665417
-665463
-665411
-665369
-665390
-665320
-665340
-665396
-665305
-665279
-665128
-665813
-665360
-665186
-665128
-665052
-665102
-665104
-665041
-665104
-665060
-665093
-664974
-664995
-665060
-665058
-665093
-665173
-665141
-665162
-665205
-665283
-665268
-665342
-665346
-665337
-665296
-665416
-665403
-665432
-665399
-665506
-665418
-665481
-665375
-665371
-665392
-665321
-665381
-665363
-665308
-665242
-665230
-665233
-665174
-665136
-664948
-664968
-664796
-664758
-664710
-664699
-664555
-664431
-664393
-664411
-664316
-664218
-664233
-664153
-664029
-663961
-663933
-663850
-663881
-664051
-664193
-663871
-663731
-663715
-663727
-663670
-663652
-663648
-663887
-663755
-663665
-663702
-663642
-663710
-663704
-663723
-664002
-663844
-663835
-663751
-663890
-663884
-663871
-663892
-664143
-664241
-663879
-664424
-664239
-664137
-664084
-663999
-664004
-664170
-664220
-664181
-664202
-664175
-664212
-664236
-664280
-664253
-664226
-664288
-664268
-664357
-664333
-664335
-664400
-664414
-664468
-664496
-664450
-664526
-664534
-664523
-664568
-664569
-664622
-664485
-664614
-664607
-664580
-664597
-664608
-664660
-664694
-664608
-664465
-664660
-664597
-664560
-664521
-664571
-664603
-664586
-664531
-664572
-664629
-664609
-664511
-664513
-664545
-664512
-664581
-664533
-664524
-664496
-664530
-664508
-664576
-664505
-664551
-664482
-664397
-664363
-664442
-664417
-664347
-664337
-664355
-664442
-664444
-664389
-664405
-664382
-664456
-664525
-664466
-664493
-664475
-664462
-664444
-664328
-664439
-664381
-664500
-664437
-664499
-664496
-664490
-664577
-664565
-664559
-664543
-664458
-664502
-664511
-664557
-664520
-664546
-664551
-664473
-664587
-664552
-664587
-664554
-664646
-664607
-664594
-664588
-664607
-664624
-664580
-664538
-664626
-664681
-664721
-664728
-664660
-664701
-664695
-664692
-664780
-664684
-664734
-664786
-664763
-664807
-664785
-664875
-664821
-664923
-664916
-664885
-664842
-664954
-664999
-664937
-664964
-664981
-664974
-664999
-664898
-665093
-665068
-665113
-665178
-665032
-665150
-665142
-665082
-665126
-665158
-665236
-665181
-665484
-665289
-665165
-665222
-665210
-665221
-665296
-665247
-665578
-665418
-665314
-665275
-665252
-665397
-665422
-665440
-665531
-665737
-665536
-665597
-665502
-665544
-665525
-665596
-665654
-666035
-665824
-665699
-665651
-665844
-665806
-665855
-665922
-665848
-665920
-665879
-665896
-665905
-665974
-666036
-665993
-666115
-665936
-666086
-666190
-666230
-666148
-666035
-666124
-666154
-666229
-666173
-666178
-666175
-666213
-666169
-666116
-666051
-666069
-666071
-666035
-666041
-665890
-665939
-665870
-665759
-665584
-665320
-665241
-665065
-664844
-664693
-664405
-664146
-663784
-663574
-663231
-662818
-662606
-662213
-662016
-661553
-661191
-660879
-660620
-660291
-659962
-659580
-659222
-659057
-658685
-658397
-657987
-657908
-657686
-657515
-657324
-657085
-656931
-656745
-656650
-656606
-656383
-656354
-656344
-656200
-656234
-656160
-656129
-656251
-656168
-656230
-656135
-656177
-656228
-656380
-656399
-656438
-656609
-656578
-656634
-656774
-656850
-656853
-656907
-656975
-657081
-657080
-657071
-657044
-657052
-657206
-657131
-657223
-657232
-657230
-657240
-657184
-657222
-657164
-657047
-657096
-657004
-657043
-656950
-656833
-656821
-656790
-656711
-656684
-656573
-656518
-656446
-656401
-656338
-656236
-656208
-656209
-656074
-656027
-655957
-656063
-656148
-656060
-655944
-655995
-656016
-656070
-656075
-656109
-656104
-656159
-656181
-656191
-656332
-656315
-656450
-656522
-656532
-656352
-656310
-656559
-656582
-656644
-656625
-656689
-656591
-656696
-656641
-656690
-656617
-656693
-656599
-656847
-656793
-656625
-656574
-656551
-656468
-656591
-656465
-656477
-656690
-656316
-656243
-656067
-656092
-656053
-655992
-655887
-656146
-655969
-655861
-655760
-655703
-655644
-655587
-655811
-655712
-655504
-655453
-655475
-655424
-655400
-655317
-655313
-655129
-655173
-655239
-655253
-655274
-655197
-655246
-655248
-655234
-655289
-655327
-655418
-655367
-655206
-655234
-655235
-655333
-655357
-655349
-655400
-655334
-655447
-655446
-655433
-655427
-655562
-655637
-655607
-655653
-655637
-655713
-655755
-655673
-655678
-655681
-655717
-655855
-655824
-655869
-655963
-655954
-655912
-656038
-656019
-656113
-656138
-656049
-655985
-655973
-656019
-656113
-656158
-656225
-656180
-656141
-656241
-656237
-656231
-656100
-656213
-656212
-656159
-656152
-656055
-656133
-656118
-656158
-656149
-656077
-656115
-656038
-656082
-656071
-656006
-656041
-656115
-656076
-655984
-656027
-655943
-656028
-656023
-655925
-655945
-655994
-656065
-656046
-655971
-656024
-656020
-655927
-656003
-655989
-656020
-656068
-656112
-656089
-656085
-656045
-656243
-656549
-656263
-656238
-656213
-656314
-656253
-656311
-656214
-656249
-656338
-656347
-656339
-656321
-656452
-656348
-656353
-656334
-656316
-656270
-656258
-656245
-656314
-656288
-656383
-656330
-656374
-656443
-656319
-656412
-656426
-656368
-656465
-656367
-656369
-656467
-656476
-656433
-656377
-656398
-656504
-656496
-656536
-656488
-656603
-656497
-656617
-656571
-656538
-656561
-656583
-656657
-656582
-656663
-656624
-656766
-656731
-656759
-656633
-656696
-656722
-656788
-656895
-656887
-656927
-656786
-656784
-656758
-656856
-656863
-656884
-656893
-656861
-656914
-656980
-656957
-657005
-656948
-656960
-657038
-656999
-657040
-657069
-657090
-657164
-657171
-657231
-657138
-657152
-657182
-657252
-657295
-657268
-657312
-657315
-657239
-657409
-657346
-657370
-657375
-657409
-657526
-657531
-657514
-657607
-657619
-657723
-657739
-657796
-657797
-657859
-657866
-657815
-657952
-657902
-658024
-658062
-658094
-658075
-658113
-658127
-658177
-658176
-658175
-658578
-658403
-658166
-658233
-658157
-658313
-658317
-658332
-658299
-658240
-658364
-658342
-658370
-658618
-658436
-658407
-658358
-658428
-658373
-658247
-658320
-658559
-658328
-658258
-658195
-658172
-658356
-658020
-657954
-658087
-657835
-657521
-657281
-657135
-656879
-656599
-656432
-656130
-656045
-655473
-655193
-654798
-654580
-654230
-653817
-653515
-653237
-652901
-652492
-652133
-651789
-651495
-651166
-650952
-650681
-650445
-650210
-649944
-649804
-649554
-649463
-649378
-649231
-649016
-648875
-648899
-648837
-648705
-648738
-648648
-648600
-648740
-648685
-648785
-648717
-648818
-648840
-648857
-648952
-649003
-649074
-649183
-649195
-649319
-649344
-649526
-649510
-649588
-649693
-649705
-649713
-649772
-649871
-649888
-649899
-649981
-650009
-650034
-650117
-650045
-650010
-650400
-650215
-650116
-649980
-649997
-649900
-649890
-649922
-649890
-649867
-649814
-649673
-649630
-649472
-649513
-649366
-649270
-649290
-649236
-649183
-649149
-649128
-649084
-649002
-649055
-649017
-649177
-649205
-649257
-649298
-649231
-649402
-649444
-649541
-649580
-649541
-649736
-649787
-649923
-649999
-649959
-650112
-650156
-650187
-650206
-650226
-650329
-650386
-650303
-650367
-650303
-650477
-650400
-650235
-650467
-650401
-650445
-650394
-650487
-650325
-650289
-650274
-650266
-650186
-650197
-650203
-650153
-650050
-649971
-649967
-650014
-649928
-649878
-649767
-649669
-649746
-649709
-649652
-649617
-649635
-649645
-649620
-649643
-649554
-649468
-649573
-649564
-649487
-649515
-649437
-649546
-649625
-649577
-649569
-649614
-649623
-649688
-649728
-649792
-649690
-649753
-649895
-649831
-649904
-649952
-650006
-650071
-649984
-650019
-650058
-650257
-650265
-650263
-650426
-650388
-650513
-650519
-650468
-650551
-650655
-650670
-650726
-650784
-650845
-650879
-650913
-650885
-650952
-650995
-650945
-651066
-651198
-651190
-651132
-651110
-651144
-651194
-651230
-651302
-651224
-651249
-651202
-651345
-651333
-651327
-651369
-651396
-651442
-651346
-651326
-651393
-651315
-651435
-651549
-651515
-651574
-651498
-651439
-651534
-651454
-651553
-651507
-651548
-651525
-651551
-651566
-651590
-651613
-651693
-651448
-651664
-651713
-651763
-651758
-651599
-651806
-651722
-651808
-652142
-651956
-651849
-651886
-652010
-651949
-651935
-651997
-652337
-652294
-652170
-652096
-652088
-652176
-652134
-652218
-652237
-652452
-652257
-652267
-652254
-652265
-652231
-652317
-652367
-652542
-652473
-652381
-652414
-652420
-652456
-652407
-652490
-652582
-652449
-652560
-652521
-652627
-652670
-652719
-652775
-652726
-652780
-652805
-652820
-652918
-652843
-652877
-652994
-653009
-653043
-653009
-653103
-653156
-653173
-653245
-653205
-653200
-653366
-653382
-653378
-653445
-653412
-653503
-653473
-653510
-653524
-653516
-653615
-653674
-653717
-653677
-653700
-653761
-653730
-653825
-653774
-653931
-653896
-653805
-653971
-653709
-653926
-653925
-654062
-654099
-654094
-654228
-654159
-654120
-654165
-654179
-654228
-654221
-654272
-654370
-654387
-654475
-654485
-654455
-654444
-654538
-654593
-654596
-654677
-654803
-654763
-654792
-654720
-654865
-654910
-654968
-654970
-655099
-655065
-655101
-655060
-655179
-655321
-655194
-655330
-655387
-655467
-655473
-655514
-655588
-655590
-655665
-655782
-655717
-655778
-655852
-655925
-655882
-656028
-656009
-656041
-656057
-656102
-656129
-656217
-656146
-656185
-656110
-656159
-656191
-656207
-656257
-656227
-656327
-656322
-656285
-656368
-656373
-656368
-656334
-656373
-656371
-656350
-656300
-656202
-656053
-655965
-655885
-655819
-655682
-655433
-655187
-655046
-654860
-654589
-654322
-654071
-653684
-653439
-653074
-652868
-652542
-652187
-651894
-651703
-651369
-651044
-650730
-650513
-650192
-649929
-649695
-649494
-649390
-649208
-648912
-648858
-648787
-648668
-648558
-648472
-648479
-648388
-648360
-648447
-648347
-648478
-648449
-648440
-648517
-648515
-648690
-648752
-648744
-648866
-648864
-649036
-649184
-649254
-649367
-649425
-649569
-649597
-649745
-649795
-649770
-649902
-650035
-650040
-650209
-650193
-650374
-650411
-650368
-650407
-650477
-650541
-650511
-650554
-650591
-650544
-650477
-650510
-650544
-650423
-650332
-650386
-650329
-650287
-650273
-650235
-650144
-650161
-650188
-650031
-650034
-649995
-650001
-649981
-649972
-649967
-649993
-650023
-650093
-650069
-650162
-650180
-650246
-650281
-650346
-650412
-650516
-650688
-650756
-650951
-651137
-650964
-651049
-651208
-651238
-651196
-651275
-651337
-651731
-651647
-651582
-651607
-651618
-651714
-651759
-651755
-652045
-651881
-651755
-651780
-651709
-651672
-651710
-651606
-651714
-651830
-651519
-651380
-651297
-651207
-651145
-651134
-651048
-651076
-650891
-650911
-650817
-650788
-650695
-650597
-650574
-650549
-650533
-650362
-650383
-650341
-650313
-650300
-650355
-650234
-650372
-650357
-650376
-650394
-650408
-650372
-650394
-650460
-650403
-650507
-650617
-650680
-650753
-650717
-650801
-650884
-650895
-650857
-650952
-651037
-651140
-651212
-651337
-651350
-651316
-651369
-651456
-651410
-651502
-651517
-651575
-651709
-651742
-651724
-651763
-651772
-651845
-651835
-651859
-651948
-651958
-652020
-652017
-652020
-652150
-652208
-652235
-652282
-652250
-652317
-652369
-652302
-652422
-652436
-652432
-652456
-652513
-652591
-652559
-652618
-652643
-652671
-652772
-652752
-652828
-652857
-652909
-652885
-653009
-653027
-653040
-653095
-653226
-653123
-653147
-653143
-653252
-653275
-653298
-653385
-653312
-653329
-653330
-653314
-653384
-653367
-653433
-653461
-653423
-653465
-653470
-653410
-653534
-653491
-653506
-653520
-653511
-653624
-653726
-653707
-653637
-653681
-653644
-653703
-653708
-653832
-653805
-653773
-653830
-653906
-653883
-653910
-653935
-653873
-653867
-653962
-653956
-653967
-653965
-653923
-653906
-654000
-654020
-654024
-653973
-653918
-654032
-654082
-654113
-654167
-654191
-654112
-654130
-654217
-654234
-654331
-654335
-654401
-654485
-654500
-654631
-654551
-654724
-654674
-654856
-654879
-654917
-654906
-654988
-655103
-655111
-655206
-655287
-655252
-655303
-655354
-655469
-655481
-655476
-655663
-655668
-655722
-655671
-655670
-655736
-655941
-655912
-655900
-655951
-655977
-656010
-655938
-656091
-656097
-656093
-656248
-656267
-656282
-656302
-656420
-656485
-656395
-656450
-656462
-656532
-656695
-656638
-656746
-656702
-656794
-656872
-656811
-656882
-656843
-656975
-656983
-657098
-657114
-657065
-657084
-657227
-657226
-657233
-657230
-657283
-657284
-657378
-657446
-657459
-657504
-657528
-657632
-657635
-657965
-657808
-657785
-657807
-657872
-657797
-657891
-658008
-658383
-658230
-658083
-658081
-658153
-658196
-658349
-658360
-658503
-658677
-658495
-658479
-658447
-658595
-658582
-658599
-658715
-659017
-658756
-658798
-659150
-658934
-658759
-658705
-658667
-658689
-658548
-658453
-658428
-658241
-658057
-657885
-657709
-657448
-657143
-656918
-656780
-656499
-656179
-655861
-655583
-655220
-654796
-654561
-654223
-653945
-653587
-653342
-653081
-652738
-652559
-652344
-652062
-651902
-651768
-651707
-651461
-651357
-651282
-651228
-651164
-651101
-651053
-651027
-651092
-651115
-651147
-651151
-651551
-651365
-651421
-651518
-651527
-651652
-651683
-651782
-651807
-651774
-651892
-651985
-652023
-652051
-652101
-652154
-652184
-652303
-652280
-652220
-652256
-652379
-652409
-652445
-652402
-652280
-652363
-652436
-652401
-652295
-652297
-652330
-652214
-652170
-652158
-652080
-652056
-651978
-651883
-651825
-651749
-651764
-651687
-651654
-651484
-651439
-651283
-651716
-651424
-651288
-651188
-651117
-651193
-651126
-651085
-651143
-651065
-651085
-651054
-651037
-651089
-651130
-651225
-651352
-651356
-651449
-651600
-651628
-651669
-651706
-651836
-651982
-652064
-652211
-652229
-652367
-652510
-652660
-652643
-652726
-652870
-652886
-653016
-652969
-653028
-653170
-653207
-653245
-653261
-653333
-653335
-653381
-653286
-653212
-653276
-653289
-653372
-653359
-653225
-653177
-653164
-653118
-653138
-653139
-653088
-653051
-653012
-652978
-652999
-653041
-653042
-652959
-653008
-652884
-652841
-652967
-653027
-652932
-652900
-653012
-652974
-653042
-653034
-653112
-653123
-653266
-653365
-653343
-653364
-653425
-653539
-653604
-653689
-653696
-653743
-653825
-653899
-653968
-653951
-653965
-654063
-654115
-654223
-654199
-654320
-654445
-654451
-654498
-654484
-654537
-654577
-654696
-654622
-654703
-654701
-654726
-654715
-654816
-654739
-654801
-654852
-654886
-654965
-654882
-654922
-655039
-655073
-655033
-655052
-655230
-655184
-655084
-655196
-655161
-655206
-655162
-655569
-655461
-655311
-655375
-655376
-655476
-655504
-655448
-655570
-655595
-655660
-655618
-655588
-655675
-655758
-655820
-655868
-656077
-656230
-656066
-656027
-655939
-655920
-656022
-656043
-656029
-656401
-656184
-656117
-656196
-656195
-656246
-656183
-656227
-656566
-656374
-656299
-656334
-656346
-656379
-656465
-656432
-656712
-656881
-656582
-656597
-656383
-656534
-656617
-656619
-656645
-656753
-656653
-656687
-656756
-656797
-656858
-656886
-656988
-656929
-656984
-657113
-657078
-657200
-657102
-657249
-657312
-657257
-657293
-657367
-657492
-657508
-657513
-657551
-657554
-657567
-657714
-657686
-657757
-657791
-657861
-657910
-657901
-657879
-658015
-658016
-658015
-658051
-658076
-658107
-658139
-658180
-658170
-658273
-658320
-658349
-658357
-658362
-658428
-658425
-658443
-658616
-658554
-658639
-658707
-658734
-658806
-658818
-658792
-658859
-658883
-658991
-658923
-659033
-659115
-659116
-659009
-659121
-659216
-659237
-659338
-659325
-659388
-659373
-659428
-659336
-659350
-659422
-659531
-659508
-659512
-659590
-659608
-659620
-659645
-659563
-659598
-659594
-659538
-659700
-659656
-659706
-659750
-659691
-659784
-659827
-659730
-659732
-659764
-659861
-659918
-659901
-659955
-660013
-660011
-660051
-660094
-660222
-660273
-660227
-660347
-660331
-660424
-660336
-660462
-660486
-660513
-660581
-660606
-660733
-660740
-660806
-660780
-660816
-660960
-660922
-660960
-661040
-661062
-661081
-661139
-661130
-661113
-661194
-661291
-661194
-661195
-661269
-661378
-661264
-661356
-661393
-661431
-661484
-661469
-661510
-661517
-661510
-661581
-661616
-661610
-661593
-661621
-661657
-661651
-661657
-661549
-661500
-661516
-661398
-661318
-661120
-661076
-660902
-660816
-660613
-660389
-660135
-659847
-659676
-659347
-659037
-658826
-658517
-658273
-657870
-657563
-657427
-656056
-655803
-655577
-655939
-655323
-655019
-654849
-654711
-654579
-654503
-654437
-654417
-654278
-654355
-654115
-654242
-654322
-654376
-654436
-654388
-654464
-654591
-654643
-654470
-654651
-654750
-654834
-654904
-654916
-654966
-655173
-655219
-655274
-655339
-655458
-655571
-655623
-655606
-655742
-655734
-655747
-655790
-655930
-655976
-656009
-656036
-656063
-656132
-656165
-656132
-656124
-656074
-656107
-656101
-656019
-656286
-656087
-656002
-655947
-655908
-655914
-655924
-655868
-656118
-656014
-655854
-655787
-655697
-655687
-655707
-655621
-655742
-655869
-655734
-655675
-655698
-655694
-655844
-655965
-655928
-656286
-656197
-656202
-656228
-656251
-656414
-656504
-656652
-656722
-656610
-656806
-656919
-657057
-657155
-657215
-657361
-657219
-657369
-657507
-657467
-657650
-657674
-657733
-657781
-657770
-657834
-657916
-657975
-658000
-657957
-657978
-657908
-657983
-657905
-657868
-657884
-657903
-657947
-657868
-657816
-657820
-657898
-657745
-657768
-657706
-657727
-657654
-657632
-657626
-657615
-657651
-657685
-657683
-657651
-657557
-657670
-657601
-657704
-657693
-657607
-657719
-657619
-657688
-657816
-657778
-657805
-657785
-657811
-657760
-657848
-657864
-657960
-658124
-658220
-658055
-658097
-658214
-658326
-658365
-658316
-658439
-658458
-658510
-658586
-658573
-658650
-658671
-658695
-658874
-658818
-658796
-658925
-658893
-658945
-659005
-659044
-659098
-659553
-659369
-659178
-659221
-659304
-659369
-659394
-659377
-659529
-659606
-659670
-659768
-659713
-659762
-659810
-659978
-659995
-659931
-660056
-660139
-660034
-660134
-660261
-660436
-660439
-660443
-660532
-660551
-660583
-660639
-660681
-660772
-660853
-660929
-660933
-660967
-661013
-661025
-661087
-661152
-661161
-661208
-661230
-661345
-661322
-661499
-661345
-661362
-661433
-661479
-661642
-661559
-661548
-661661
-661741
-661790
-661814
-661809
-661824
-661852
-661857
-661941
-661903
-661978
-661929
-662005
-662068
-662014
-662065
-662037
-662170
-662103
-662154
-662164
-662191
-662232
-662285
-662315
-662275
-662371
-662487
-662524
-662459
-662458
-662499
-662521
-662625
-662556
-662628
-662557
-662631
-662702
-662676
-662668
-662626
-662588
-662637
-662659
-662626
-662651
-662700
-662699
-662711
-662721
-662629
-662603
-662656
-662613
-662739
-662556
-662650
-662581
-662590
-662716
-662762
-662681
-662639
-662686
-662796
-662776
-662796
-662812
-662725
-662846
-662771
-662902
-662923
-662885
-662984
-662931
-663053
-663106
-663009
-662991
-663163
-663215
-663155
-663183
-663273
-663349
-663431
-663460
-663431
-663550
-663624
-663677
-663684
-663698
-663978
-663840
-663851
-663840
-663827
-663860
-663946
-663970
-664033
-664277
-664072
-664046
-664092
-664184
-664112
-664200
-664231
-664501
-664387
-664365
-664390
-664427
-664444
-664520
-664558
-664921
-664804
-664772
-664842
-664808
-664881
-664910
-665105
-665142
-665239
-665191
-665263
-665403
-665383
-665413
-665489
-665472
-665512
-665588
-665597
-665638
-665721
-665822
-665801
-665815
-665838
-665850
-665844
-665823
-665855
-665862
-665949
-665941
-665961
-665945
-666052
-666022
-666065
-666126
-666095
-666133
-666158
-666234
-666326
-666219
-666248
-666410
-666377
-666413
-666368
-666451
-666462
-666488
-666473
-666490
-666523
-666550
-666688
-666654
-666695
-666712
-666741
-667362
-666991
-666847
-666744
-666673
-666620
-666587
-666395
-666332
-666296
-666024
-665867
-665566
-665372
-665099
-664843
-664542
-664227
-664022
-663720
-663308
-663033
-662730
-662427
-662108
-661788
-661423
-661019
-660801
-660444
-660197
-659955
-659607
-659479
-659229
-659040
-658810
-658606
-658513
-658379
-658252
-658244
-658177
-658153
-658011
-658087
-658125
-658029
-658151
-658113
-658187
-658170
-658177
-658347
-658357
-658462
-658497
-658602
-658697
-658813
-658875
-658917
-658818
-659086
-659139
-659245
-659266
-659330
-659388
-659528
-659649
-659677
-659670
-659812
-659866
-659901
-659972
-659987
-660057
-660169
-659948
-660011
-660014
-660039
-660031
-660582
-660240
-660047
-659998
-660017
-659970
-659929
-659870
-659866
-659918
-659897
-659854
-659940
-659900
-659815
-659966
-659854
-659924
-659944
-659960
-659951
-660631
-660206
-660187
-660336
-660353
-660400
-660495
-660554
-660633
-660749
-660876
-660929
-661022
-661582
-661559
-661672
-661695
-661814
-661879
-661922
-661984
-661954
-661945
-661968
-662112
-662039
-662029
-662002
-661983
-661974
-661897
-662086
-662068
-662044
-661950
-661958
-661986
-662038
-662014
-661910
-661903
-661883
-661797
-661882
-661789
-661854
-661829
-661849
-661897
-661942
-662069
-661913
-661908
-661985
-662102
-662119
-662085
-662136
-662142
-662251
-662271
-662229
-662332
-662396
-662491
-662490
-662421
-662507
-662586
-662702
-662646
-662724
-662816
-662876
-662906
-662845
-662863
-662912
-662990
-663091
-663001
-663034
-663091
-663129
-663158
-663258
-663329
-663352
-663385
-663289
-663351
-663430
-663413
-663512
-663463
-663415
-663543
-663632
-663640
-663681
-663779
-663816
-663847
-663922
-663974
-664022
-663961
-664014
-663998
-664086
-664186
-664279
-664280
-664375
-664355
-664228
-664452
-664543
-664649
-664718
-664610
-664735
-664599
-664636
-664764
-664853
-664852
-664911
-664878
-664832
-664794
-664833
-665000
-664947
-664954
-664931
-664997
-664947
-665019
-665094
-665005
-665081
-665039
-665133
-665040
-665069
-664985
-665098
-665089
-665156
-665084
-665107
-665073
-665093
-665212
-665186
-665145
-665144
-665251
-665593
-665349
-665226
-665280
-665246
-665377
-665338
-665342
-665340
-665375
-665472
-665483
-665532
-665568
-665549
-665442
-665704
-665404
-665684
-665841
-666399
-666012
-666071
-666026
-666108
-666185
-666222
-666656
-666428
-666462
-666398
-666440
-666999
-666645
-666711
-666634
-666595
-666734
-666697
-666713
-666776
-666658
-666807
-666901
-666942
-667044
-666947
-666977
-667033
-667053
-667065
-667153
-667060
-667161
-667162
-667185
-667181
-667267
-667255
-667336
-667497
-667776
-667607
-667556
-667674
-667717
-667636
-667699
-667814
-667835
-667793
-667906
-667931
-668002
-667954
-668032
-668095
-668258
-668202
-668224
-668296
-668339
-668368
-668397
-668489
-668577
-668553
-668579
-668578
-668400
-668563
-668603
-668619
-668822
-668788
-668904
-669006
-669018
-669064
-669015
-669081
-669056
-669231
-669509
-669340
-669370
-669246
-669243
-669359
-669376
-669402
-669636
-669551
-669522
-669554
-669579
-669570
-669578
-669557
-669930
-669924
-669731
-669745
-669824
-669903
-669924
-669998
-670062
-670346
-670124
-670096
-670068
-670161
-670155
-670222
-670188
-670274
-670292
-670387
-670439
-670409
-670378
-670409
-670425
-670554
-670556
-670618
-670566
-670569
-670814
-670668
-670562
-670556
-670575
-670532
-670642
-670552
-670635
-670624
-670667
-670754
-670727
-670585
-670596
-670632
-670586
-670443
-670466
-670270
-670164
-669997
-669830
-669583
-669414
-669208
-668893
-668671
-668310
-668095
-667699
-667421
-667048
-666564
-666321
-666027
-665736
-665408
-665194
-664861
-664542
-664270
-664081
-663779
-663599
-663384
-663237
-663019
-662831
-662773
-662582
-662531
-662408
-662342
-662398
-662354
-662351
-662371
-662432
-662404
-662472
-662491
-662622
-662675
-662776
-662864
-662984
-663002
-663094
-663168
-663267
-663409
-663548
-663708
-663841
-663913
-664017
-664078
-664232
-664278
-664447
-664550
-664582
-664528
-664757
-664912
-664947
-665011
-665072
-665077
-665191
-665164
-665216
-665267
-665253
-665342
-665236
-665178
-665192
-665289
-665364
-665244
-665145
-665156
-665222
-665156
-665223
-665172
-665068
-665034
-665109
-665030
-664964
-664745
-664847
-665029
-665042
-664968
-665051
-665006
-665007
-665079
-665086
-665110
-665255
-665320
-665509
-665465
-665580
-665599
-665650
-665795
-665822
-665860
-666088
-666152
-666236
-666315
-666370
-666394
-666563
-666618
-666606
-666728
-666756
-666748
-666697
-666821
-666896
-666848
-666882
-666958
-666909
-666896
-667017
-666947
-666954
-666971
-667054
-666983
-667427
-667050
-666942
-666820
-666919
-666905
-666915
-666908
-666870
-666885
-666829
-666809
-666817
-666812
-666797
-666796
-666850
-666861
-666749
-666775
-666791
-666789
-666778
-666729
-666804
-666891
-666880
-666933
-666936
-666946
-666973
-666954
-667022
-667172
-666977
-667441
-667353
-667249
-667400
-667399
-667450
-667553
-667585
-667604
-667692
-667711
-667777
-667895
-667917
-668044
-668045
-668102
-668220
-668264
-668271
-668374
-668395
-668492
-668533
-668653
-668651
-668706
-668794
-668826
-668909
-668966
-669003
-668990
-669062
-669140
-669272
-669189
-669248
-669262
-669293
-669430
-669399
-669461
-669509
-669532
-669709
-669727
-669833
-669848
-669847
-669939
-669938
-669986
-669965
-670101
-669931
-670135
-670225
-670205
-670331
-670318
-670437
-670393
-670321
-670408
-670398
-670558
-670506
-670591
-670570
-670593
-670731
-670595
-670695
-670663
-670784
-670750
-670829
-670928
-670950
-670952
-670904
-670910
-670950
-671060
-671148
-671174
-671182
-671264
-671240
-671269
-671246
-671433
-671505
-671445
-671436
-671463
-671538
-671598
-671607
-671605
-671685
-671762
-671837
-671814
-671816
-671663
-671864
-671929
-671922
-671939
-671877
-672173
-672139
-672153
-672141
-672249
-672168
-672247
-672251
-672335
-672303
-672255
-672368
-672333
-672476
-672462
-672485
-672511
-672586
-672614
-672639
-672626
-672657
-672782
-672796
-672828
-672796
-672888
-672946
-672949
-673055
-673191
-672956
-673162
-673248
-673335
-673363
-673356
-673446
-673503
-673493
-673587
-673662
-673736
-673727
-673749
-673736
-673839
-673945
-673937
-673920
-673962
-673945
-674123
-674139
-674124
-674082
-674174
-674171
-674163
-674325
-674254
-674263
-674311
-674365
-674370
-674452
-674526
-674461
-674506
-674476
-674592
-674620
-674755
-674780
-674805
-674764
-674758
-674812
-674933
-675058
-675031
-675005
-675060
-675081
-675138
-675157
-675195
-675330
-675322
-675410
-675352
-675402
-675509
-675521
-675578
-675581
-675662
-675711
-675774
-675791
-675765
-675816
-675960
-675908
-675976
-675992
-676087
-676116
-676077
-676088
-676157
-676163
-676540
-676466
-676489
-676384
-676448
-676537
-676579
-676617
-676861
-677052
-676883
-676882
-676904
-676828
-676856
-676860
-676909
-677319
-677212
-677129
-677267
-677330
-677313
-677302
-677191
-677723
-677546
-677472
-677506
-677576
-677730
-677763
-677785
-677748
-677739
-677833
-677813
-677828
-677834
-677703
-677793
-677759
-677590
-677507
-677319
-677198
-677098
-676910
-676650
-676340
-675978
-675700
-675414
-675054
-674677
-674213
-673948
-673765
-673306
-672895
-672652
-672209
-671913
-671604
-671348
-670992
-670795
-670609
-670241
-669859
-669726
-669713
-669525
-669338
-669189
-669075
-669056
-669012
-668963
-668852
-668878
-668874
-668888
-668885
-668944
-668988
-669181
-669165
-669256
-669346
-669485
-669639
-669822
-669793
-669988
-670031
-670172
-670352
-670378
-670529
-670706
-670842
-671006
-670982
-671095
-671284
-671344
-671498
-671571
-671709
-671810
-671890
-671957
-671991
-672109
-672121
-672139
-672228
-672279
-672284
-672418
-672411
-672392
-672420
-672427
-672482
-672383
-672369
-672271
-672255
-672353
-672409
-672325
-672305
-672257
-672216
-672266
-672189
-672180
-672657
-672290
-672228
-672161
-672145
-672195
-672229
-672310
-672372
-672533
-672600
-672540
-672645
-672656
-672694
-672772
-672809
-672997
-672908
-673070
-673187
-673136
-673235
-673261
-673377
-673485
-673561
-673563
-673519
-673583
-673658
-673725
-673726
-673715
-673697
-673746
-673821
-673858
-673884
-673878
-673930
-673928
-673918
-673892
-673808
-673862
-673925
-673855
-673818
-673820
-673873
-673936
-673878
-673779
-673686
-673715
-673723
-673716
-673665
-673718
-673691
-673634
-673597
-673534
-673621
-673647
-673641
-673670
-673644
-673590
-673542
-673738
-673717
-673579
-673681
-673658
-673710
-673734
-673758
-673794
-673965
-674003
-673981
-673947
-674039
-674171
-674157
-674220
-674248
-674327
-674399
-674521
-674565
-674560
-674622
-674635
-674632
-674687
-674804
-674608
-674841
-675052
-675078
-675113
-675172
-675210
-675199
-675336
-675415
-675429
-675443
-675568
-675681
-675754
-675735
-675764
-675809
-675933
-675867
-675942
-676465
-676160
-676076
-676153
-676169
-676178
-676181
-676267
-676299
-676262
-676333
-676395
-676480
-676507
-676592
-676648
-677170
-676827
-676585
-676762
-676730
-676729
-676812
-676760
-676824
-676884
-676912
-676925
-676927
-677010
-677095
-677109
-677099
-677139
-677267
-677290
-677200
-677252
-677230
-677298
-677319
-677412
-677394
-677403
-677518
-677505
-677506
-677464
-677552
-677614
-677739
-677762
-677659
-677726
-678060
-677854
-677888
-677818
-677878
-677910
-677914
-677996
-677936
-677950
-678037
-678052
-678078
-678124
-678213
-678186
-678208
-678278
-678291
-678234
-678378
-678381
-678486
-678500
-678452
-678609
-678520
-678572
-678592
-678601
-678668
-678627
-678746
-678785
-678792
-678806
-678921
-678945
-678894
-678856
-678906
-678908
-678900
-679021
-679048
-679112
-679131
-679200
-679589
-679343
-679266
-679281
-679366
-679330
-679413
-679418
-679483
-679527
-679519
-679521
-679706
-679685
-679727
-679763
-679692
-679805
-679893
-679858
-679834
-679952
-680004
-680071
-680138
-680135
-680101
-680158
-680231
-680317
-680354
-680339
-680391
-680441
-680557
-680566
-680574
-680563
-680613
-680581
-680754
-680784
-680745
-680849
-680887
-680842
-680887
-680917
-680903
-680937
-680942
-681004
-681067
-681197
-681263
-681146
-681225
-681451
-681479
-681477
-681574
-681556
-681498
-681644
-681749
-681644
-681792
-681737
-681830
-681905
-682028
-681943
-682003
-682078
-682142
-682193
-682218
-682246
-682300
-682425
-682493
-682484
-682537
-682532
-682595
-682465
-682773
-682668
-682728
-682842
-682875
-682792
-682909
-682988
-682983
-683093
-683038
-683131
-683128
-683184
-683217
-683190
-683209
-683348
-683388
-683427
-683396
-683342
-683428
-683344
-683502
-683461
-683428
-683351
-683288
-683165
-683036
-682822
-682648
-682295
-682159
-681993
-681768
-681417
-681137
-680755
-680616
-680114
-679722
-679462
-679049
-678700
-678234
-678017
-677562
-677254
-677285
-676760
-676525
-676212
-675919
-675636
-675437
-675269
-675114
-674933
-674705
-674563
-674538
-674514
-674383
-674374
-674265
-674348
-674381
-674302
-674295
-674292
-674470
-674527
-674682
-674639
-674716
-674836
-674977
-675083
-675267
-675215
-675393
-675582
-675717
-675767
-675944
-676129
-676274
-676350
-676358
-676469
-676589
-676647
-676829
-676876
-676908
-677018
-677113
-677182
-677288
-677287
-677420
-677470
-677570
-677514
-677563
-677618
-677601
-677684
-677649
-677647
-677680
-677591
-677599
-677579
-677574
-677488
-677497
-677572
-677249
-677383
-677491
-677538
-677508
-677459
-677455
-677484
-677466
-677488
-677515
-677501
-677562
-677612
-677671
-677645
-677730
-677787
-677839
-677979
-678048
-678065
-678156
-678248
-678229
-678228
-678273
-678331
-678358
-678439
-678469
-678466
-678613
-678678
-678686
-678672
-678724
-678735
-678793
-678809
-678808
-678784
-678695
-678709
-678610
-678714
-678776
-678700
-678780
-678788
-678785
-678716
-678739
-678778
-678653
-678675
-678525
-678638
-678617
-678519
-678501
-678614
-678329
-678423
-678448
-678500
-678541
-678508
-678566
-678481
-678513
-678470
-678581
-678513
-678598
-678384
-678569
-678671
-678636
-678653
-678722
-678733
-678772
-678812
-678890
-679011
-679451
-679293
-679146
-679229
-679317
-679353
-679418
-679559
-679488
-679514
-679606
-679697
-679613
-679763
-679722
-679912
-680013
-680016
-680065
-680108
-680253
-680276
-680409
-680361
-680371
-680419
-680527
-680565
-680649
-680663
-680767
-680846
-680903
-680924
-681210
-681103
-681102
-681167
-681070
-681110
-681215
-681267
-681265
-681210
-681248
-681286
-681340
-681903
-681520
-681439
-681334
-681435
-681428
-681484
-681426
-681489
-681510
-681552
-681647
-681627
-681734
-681777
-681809
-681876
-681746
-681566
-681595
-681829
-681876
-681922
-681916
-682091
-682058
-682062
-682033
-682113
-682130
-682188
-682251
-682196
-682220
-682305
-682389
-682310
-682373
-682458
-682472
-682542
-682436
-682478
-682539
-682588
-682553
-682507
-682571
-682689
-682784
-682690
-682747
-682718
-682815
-682881
-682954
-683381
-683017
-682854
-683030
-682914
-683028
-683101
-683228
-683247
-683382
-683410
-683430
-683458
-683588
-683508
-683514
-683648
-683673
-683702
-683849
-683873
-683810
-683920
-683973
-683993
-683960
-684057
-684141
-684128
-684090
-684125
-684153
-684156
-683979
-684103
-684238
-684286
-684331
-684193
-684289
-684277
-684285
-684377
-684443
-684418
-684448
-684497
-684587
-684601
-684624
-684619
-684514
-684640
-684660
-684748
-684655
-685180
-685001
-684957
-684935
-684977
-684900
-684983
-684980
-685076
-685107
-685149
-685260
-685178
-685312
-685296
-685350
-685408
-685295
-685418
-685459
-685504
-685602
-685699
-685681
-685743
-685716
-685806
-685752
-685823
-685887
-685899
-685960
-685981
-686071
-686041
-686078
-686060
-686125
-686169
-686212
-686165
-686217
-686335
-686453
-686330
-686346
-686407
-686451
-686621
-686571
-686609
-686717
-686751
-686852
-686805
-686810
-686898
-687021
-687085
-687082
-687049
-687077
-687228
-687272
-687251
-687315
-687439
-687523
-687474
-687483
-687519
-687588
-687644
-687749
-687715
-687840
-687854
-687942
-688002
-687960
-687968
-688068
-688161
-688143
-688227
-688211
-688218
-688275
-688267
-688331
-688275
-688462
-688416
-688356
-688380
-688412
-688458
-688507
-688379
-688369
-688288
-688199
-688106
-688105
-687933
-687622
-687525
-687264
-687079
-686776
-686373
-686056
-685745
-685488
-685083
-684618
-684353
-683917
-683491
-683043
-682588
-682197
-681848
-681484
-681123
-680723
-680453
-680150
-679842
-679450
-679176
-678965
-678649
-678480
-678187
-678069
-677854
-677799
-677642
-677525
-677479
-677333
-677328
-677340
-677273
-677287
-677357
-677305
-677285
-677434
-677396
-677553
-677621
-677624
-677690
-678229
-678416
-678240
-678220
-678263
-678309
-678397
-678416
-678590
-678693
-678824
-679036
-679157
-679249
-679280
-679341
-679467
-679474
-679590
-679606
-679624
-679725
-679728
-679883
-679920
-679850
-679853
-679915
-679980
-679962
-679929
-679877
-679948
-679943
-679926
-679958
-679880
-679823
-679834
-679791
-679551
-679775
-679750
-679670
-679648
-679597
-679710
-679682
-679648
-679646
-679648
-679731
-679722
-679636
-679630
-679585
-679676
-679763
-679823
-679807
-679916
-679941
-680013
-680168
-680271
-680239
-680432
-680517
-680619
-680631
-680599
-680702
-680774
-680845
-680931
-680955
-680989
-680981
-681055
-680855
-680981
-681123
-680991
-681093
-681126
-681107
-681063
-681053
-681081
-681061
-680988
-681049
-681054
-681051
-681032
-680987
-680953
-681035
-680975
-681001
-680877
-680940
-680883
-680898
-680863
-680765
-680680
-680790
-680767
-680804
-680760
-680755
-680735
-680767
-680569
-680575
-680868
-680851
-680827
-680813
-680856
-680901
-680990
-681081
-681060
-681061
-681129
-681115
-681194
-681490
-681332
-681329
-681297
-681274
-681395
-681414
-681483
-681878
-681778
-681666
-681708
-681715
-681698
-681781
-681808
-682020
-682364
-682207
-682151
-682129
-682085
-682212
-682283
-682314
-682293
-682367
-682558
-682600
-682588
-682647
-682741
-682775
-682818
-682901
-682946
-682893
-682996
-683001
-683049
-683086
-683097
-683448
-683243
-683250
-683161
-683077
-683165
-683134
-683233
-683345
-683110
-683209
-683247
-683182
-683105
-683093
-683171
-683405
-683293
-683015
-683153
-683151
-683119
-683070
-683052
-683229
-683182
-683118
-683101
-683071
-683102
-683109
-683180
-683247
-683373
-683146
-683093
-683137
-683104
-683134
-683103
-683166
-683857
-684004
-683374
-683287
-683260
-683310
-683178
-683199
-683219
-683513
-683309
-683353
-683225
-683196
-683190
-683218
-683254
-683491
-683270
-683233
-683225
-683240
-683226
-683155
-683114
-683067
-683438
-683118
-683231
-683158
-682970
-682964
-682951
-682970
-683022
-683063
-683021
-682940
-683095
-683494
-683265
-683165
-683205
-683357
-683296
-683360
-683316
-683310
-683434
-683495
-683489
-683540
-683603
-683700
-683725
-683737
-683712
-683876
-683803
-683828
-683853
-683965
-684091
-684065
-684230
-684288
-684238
-684332
-684445
-684462
-684419
-684449
-684570
-684701
-684694
-684606
-684724
-684710
-684825
-684833
-684865
-684799
-684974
-684890
-685016
-685053
-685064
-685028
-685119
-685174
-685170
-685199
-685266
-685441
-685421
-685417
-685511
-685556
-685552
-685643
-685635
-685647
-685676
-685742
-685795
-685748
-685892
-685908
-685974
-686010
-685986
-686071
-686095
-686067
-686200
-686080
-686124
-686227
-686224
-686223
-686281
-686217
-686189
-686277
-686319
-686400
-686385
-686425
-686470
-686513
-686531
-686495
-686561
-686553
-686614
-686680
-686686
-686728
-686788
-686780
-686896
-686846
-687060
-687049
-687171
-687051
-687059
-687223
-687243
-687315
-687421
-687402
-687431
-687432
-687482
-687604
-687569
-687622
-687698
-687767
-687811
-687793
-687748
-687828
-687888
-687900
-687871
-687863
-687808
-687783
-687683
-687502
-687473
-687410
-687049
-686927
-686711
-686385
-686182
-685903
-685446
-685122
-684741
-684373
-684069
-683562
-683195
-682697
-682457
-681996
-681618
-681192
-680876
-680508
-680152
-679801
-679466
-679271
-679057
-678725
-678502
-678230
-678055
-677905
-677799
-677705
-677385
-677353
-677323
-677350
-677920
-677350
-677228
-677154
-677118
-677179
-677210
-677246
-677392
-677433
-677427
-677526
-677386
-677672
-677812
-677851
-677993
-678067
-678211
-678240
-678392
-678478
-678560
-678652
-678765
-678846
-678922
-679128
-679146
-679248
-679238
-679315
-679381
-679486
-679500
-679556
-679551
-679636
-679732
-679796
-679664
-679618
-679685
-679781
-679797
-679739
-679527
-679607
-679653
-679577
-679506
-679351
-679416
-679403
-679324
-679767
-679296
-679256
-679155
-679093
-678841
-679271
-679297
-679044
-678801
-678848
-678759
-678767
-678811
-678835
-678784
-678770
-678857
-678840
-678884
-678896
-678947
-678989
-679013
-679080
-679071
-679088
-679128
-679278
-679327
-679287
-679152
-679337
-679450
-679514
-679550
-679490
-679498
-679592
-679594
-679663
-679568
-679540
-679701
-679727
-679539
-679642
-679669
-679656
-679697
-679579
-679607
-679576
-679555
-679578
-679628
-679578
-679484
-679562
-679522
-679426
-679350
-679401
-679409
-679382
-679379
-679365
-679283
-679309
-679306
-679285
-679315
-679326
-679321
-679340
-679233
-679254
-679358
-679352
-679390
-679389
-679368
-679470
-679504
-679429
-679452
-679462
-679534
-679668
-679727
-679625
-679663
-679725
-679811
-679848
-679857
-679910
-680065
-680133
-680176
-680143
-680167
-680238
-680257
-680398
-680365
-680387
-680473
-680486
-680510
-680599
-680657
-680595
-680828
-680749
-680813
-680790
-680867
-680836
-680888
-680921
-680954
-681049
-681069
-681023
-681038
-681105
-681072
-681130
-681161
-681069
-681111
-681182
-681206
-681288
-681208
-681196
-681328
-681337
-681476
-681391
-681348
-681432
-681479
-681527
-681610
-681640
-681696
-681699
-681726
-681693
-681692
-681785
-681827
-681595
-681770
-681864
-681942
-681963
-681974
-681984
-681898
-681907
-681885
-681734
-682333
-682007
-681968
-682007
-681989
-682003
-681915
-682009
-681956
-682020
-682012
-682037
-681997
-682048
-682029
-682139
-682087
-682086
-682047
-682168
-682043
-682030
-682152
-682200
-682278
-682292
-682231
-682235
-682414
-682315
-682387
-682406
-682347
-682448
-682486
-682410
-682425
-682569
-682602
-682670
-682602
-682586
-682667
-682677
-682790
-682821
-682777
-682770
-682872
-682800
-682905
-682833
-682911
-682932
-682956
-682973
-682934
-683060
-683090
-683137
-683110
-683124
-683243
-683182
-683202
-683237
-683312
-683343
-683348
-683302
-683257
-683329
-683402
-683343
-683383
-683482
-683497
-683525
-683491
-683537
-683917
-683653
-683601
-683546
-683562
-683531
-683555
-683597
-683588
-683614
-683585
-683594
-683622
-683579
-683557
-683575
-683562
-683575
-683646
-683712
-683645
-683648
-683703
-683754
-683742
-683766
-683741
-683768
-683816
-683859
-683854
-683902
-683922
-683893
-683956
-684014
-684115
-684126
-684086
-684206
-684241
-684112
-684285
-684174
-684155
-684161
-684167
-684176
-684298
-684340
-684380
-684246
-684287
-684269
-684337
-684347
-684304
-684385
-684270
-684266
-684300
-684197
-684348
-684303
-684405
-684369
-684303
-684406
-684423
-684438
-684247
-684369
-684807
-684711
-684691
-684745
-684653
-684667
-684760
-684765
-684839
-684820
-684813
-684825
-684986
-685023
-684931
-685003
-685011
-685088
-684992
-685022
-685107
-685099
-685046
-685118
-685086
-684980
-684906
-684893
-684788
-684695
-684499
-684385
-684231
-684003
-683860
-683645
-683311
-683107
-682794
-682487
-682127
-681827
-681461
-681120
-680757
-680273
-679916
-679549
-679070
-678771
-678466
-678137
-677746
-677417
-677096
-676832
-676511
-676327
-675972
-675756
-675556
-675378
-675215
-674969
-674791
-674778
-674755
-674595
-674542
-674490
-674449
-674331
-674444
-674416
-674527
-674506
-674278
-674691
-674637
-674698
-674801
-675030
-675151
-675159
-675200
-675380
-675518
-675584
-675597
-675783
-675914
-676026
-676033
-676240
-676375
-676474
-676483
-676553
-676551
-676638
-676763
-676746
-676826
-676884
-676897
-676930
-677001
-676899
-676942
-677018
-677103
-677160
-677096
-677076
-677132
-677082
-677096
-677024
-677018
-676965
-676959
-676927
-676891
-676908
-676946
-676945
-676915
-676920
-676874
-676835
-676899
-676991
-677024
-676995
-677144
-677094
-677231
-677234
-677246
-677354
-677358
-677460
-677570
-677586
-677720
-677727
-677751
-677848
-677807
-677839
-677884
-677900
-677963
-677955
-677945
-678022
-677944
-677908
-677865
-677813
-677803
-677703
-677780
-677731
-677741
-677696
-677735
-677639
-677522
-677469
-677506
-677421
-677389
-677341
-677356
-677336
-677286
-677291
-677225
-676984
-677118
-677094
-677009
-676923
-676984
-677074
-677029
-676984
-676960
-676967
-677019
-676981
-676979
-676924
-676932
-676981
-676915
-676907
-676946
-676967
-676856
-676943
-676996
-676995
-676962
-676945
-676964
-676843
-676928
-677032
-677114
-677074
-677114
-677183
-677150
-677211
-677341
-677200
-677212
-677374
-677402
-677424
-677562
-677833
-677846
-677905
-678024
-677992
-678020
-678121
-678139
-678278
-678307
-678350
-678412
-678492
-678604
-678531
-678534
-678658
-678756
-678827
-678892
-678897
-678885
-678989
-678980
-679079
-679028
-679128
-679121
-679175
-678968
-679070
-679941
-679419
-679248
-679328
-679283
-679246
-679365
-679485
-679361
-679323
-679365
-679459
-679966
-679627
-679445
-679389
-679515
-679504
-679477
-679510
-679502
-679576
-679549
-679599
-679503
-679573
-679574
-679585
-679563
-679508
-679565
-679579
-679617
-679639
-679595
-679597
-679630
-679626
-679631
-679586
-679507
-679543
-679654
-679670
-679610
-679696
-679623
-679687
-679621
-679585
-679628
-679622
-679706
-679554
-679559
-679667
-679682
-679672
-679660
-679694
-679850
-679812
-679914
-679757
-679754
-679964
-679927
-679968
-679926
-679900
-680010
-680038
-680149
-680188
-680575
-680341
-680373
-680328
-680317
-680411
-680442
-680534
-680563
-680528
-680546
-680591
-680599
-680677
-680694
-680652
-680765
-680846
-680850
-680990
-680966
-681054
-681059
-681107
-681169
-681243
-681268
-681277
-681289
-681414
-681385
-681554
-681609
-681693
-681769
-681670
-681796
-681895
-681846
-681939
-682042
-682099
-682164
-682177
-682261
-682286
-682376
-682342
-682439
-682514
-682472
-682605
-682595
-682704
-682661
-682777
-682783
-682842
-682856
-682846
-682964
-683047
-683099
-683191
-683197
-683282
-683285
-683344
-683411
-683373
-683518
-683549
-683648
-683698
-683632
-683726
-683689
-683751
-683745
-683784
-683817
-683883
-683903
-683877
-683923
-684004
-683894
-683962
-683971
-683980
-684055
-684093
-683991
-683987
-684390
-684199
-684173
-684110
-684414
-684218
-684214
-684220
-684242
-684158
-684134
-684233
-684197
-684283
-684308
-684359
-684325
-684386
-684407
-684457
-684419
-684497
-684536
-684527
-684536
-684421
-684493
-684540
-684592
-684535
-684658
-684583
-684624
-684709
-684653
-684748
-684780
-684779
-684699
-684676
-684632
-684686
-684626
-684691
-684591
-684437
-684245
-684095
-683899
-683671
-683463
-683273
-682961
-682634
-682165
-681768
-681363
-681094
-680680
-680167
-679919
-679556
-679039
-678583
-678255
-677850
-677480
-677109
-676861
-676397
-676137
-675853
-675526
-675304
-674939
-674758
-674675
-674528
-674258
-674133
-674079
-673894
-673850
-673698
-673619
-673710
-673747
-673759
-673714
-673682
-673713
-673778
-673908
-673900
-673898
-674016
-674232
-674262
-674338
-674490
-674669
-674806
-674972
-675020
-675044
-675217
-675309
-675408
-675529
-675641
-675743
-675872
-675915
-676028
-676160
-676226
-676383
-676425
-676449
-676545
-676604
-676668
-676686
-676825
-676869
-676845
-676944
-676983
-677036
-676965
-677018
-677023
-677036
-677054
-677058
-677023
-677003
-677070
-676973
-676916
-676881
-676974
-676910
-676860
-676853
-676844
-676852
-676842
-676794
-676713
-676825
-676788
-676950
-676943
-676997
-677014
-677042
-677082
-677063
-677095
-677173
-677172
-677296
-677307
-677218
-677234
-677299
-677320
-677280
-677307
-677245
-677319
-677303
-677399
-677265
-677381
-677410
-677320
-677283
-677236
-677204
-677274
-677162
-677168
-677131
-677047
-677086
-677037
-677029
-676965
-676961
-676928
-676889
-676865
-676741
-676682
-676673
-676645
-676597
-676478
-676514
-676413
-676418
-676385
-676312
-676289
-676211
-676199
-676230
-676210
-676245
-676234
-676149
-676155
-676156
-676225
-676164
-676148
-676126
-676013
-676018
-676085
-676139
-676148
-676093
-676063
-676053
-676107
-676197
-676163
-676208
-676149
-676038
-676043
-676018
-676159
-676101
-676167
-676147
-676124
-676135
-676085
-676113
-676159
-676106
-676119
-676152
-676201
-676171
-676145
-676105
-676052
-676112
-676085
-676082
-676101
-676102
-676132
-676098
-676113
-676087
-676017
-676064
-676078
-676093
-676086
-676057
-676119
-675814
-675925
-675907
-675896
-675903
-675828
-675779
-675883
-675802
-675823
-675819
-675805
-675747
-675803
-675686
-675652
-675648
-675676
-675616
-675707
-675608
-675614
-675669
-675450
-675618
-675581
-675685
-675598
-675549
-675544
-675535
-675624
-675630
-675575
-675598
-675616
-675542
-675516
-675582
-675528
-675500
-675443
-675542
-675500
-675465
-675546
-675512
-675530
-675476
-675421
-675404
-675506
-675553
-675573
-675483
-675428
-675470
-675558
-675594
-675566
-675496
-675524
-675526
-675578
-675574
-675567
-675562
-675360
-675513
-675488
-675536
-675594
-675606
-675670
-675697
-675719
-675744
-675820
-675761
-675790
-676234
-675907
-675805
-675784
-675730
-675852
-675824
-675951
-675930
-675976
-676013
-676079
-676102
-676118
-676139
-676231
-676243
-676247
-676357
-676267
-676382
-676524
-676488
-676480
-676540
-676585
-676643
-676608
-676686
-676708
-676770
-676795
-676814
-676712
-676769
-676880
-676916
-676933
-676843
-676813
-676823
-676857
-676801
-676797
-676823
-676866
-676901
-676939
-676904
-676999
-676969
-677057
-677035
-676958
-676910
-676978
-676976
-676950
-676991
-676996
-677053
-677040
-677074
-677003
-677027
-677051
-677085
-677076
-677071
-677108
-677091
-677055
-676995
-677067
-677105
-677047
-677109
-677204
-677170
-677186
-677229
-677220
-677234
-677164
-677289
-677347
-677358
-677372
-677364
-677337
-677422
-677501
-677531
-677439
-677529
-677560
-677597
-677613
-677570
-677628
-677734
-677742
-677828
-677796
-677818
-677795
-677924
-677980
-677912
-677992
-678097
-678074
-678190
-678208
-678257
-678239
-678293
-678277
-678338
-678271
-678226
-678225
-678098
-678060
-678068
-678117
-678055
-677924
-677822
-677734
-677531
-677384
-677165
-677024
-676755
-676498
-676181
-675806
-675524
-675144
-674763
-674481
-674147
-673624
-673221
-672933
-672511
-672122
-671697
-671363
-670941
-670529
-670167
-669748
-669458
-669226
-668937
-668630
-668247
-668040
-667767
-667667
-667366
-667223
-666987
-666888
-666873
-666708
-666661
-666553
-666560
-666549
-666531
-666467
-666497
-666508
-666612
-666607
-666622
-666659
-666768
-666908
-666979
-666975
-667047
-667227
-667298
-667406
-667496
-667564
-667687
-667810
-667892
-667912
-668032
-668250
-668347
-668410
-668415
-668605
-668707
-668803
-668889
-668901
-668953
-668961
-669144
-669169
-669160
-669264
-669252
-669266
-669236
-669239
-669346
-669222
-669288
-669433
-669345
-669323
-669444
-669484
-669440
-669381
-669196
-669325
-669335
-669320
-669363
-669324
-669444
-669422
-669393
-669373
-669439
-669468
-669425
-669413
-669530
-669542
-669553
-669636
-669534
-669496
-669495
-669380
-669427
-669378
-669356
-669435
-669379
-669329
-669259
-669334
-669294
-669333
-669208
-669135
-669012
-668963
-668931
-668933
-668747
-668696
-668674
-668640
-668570
-668444
-668370
-668319
-668365
-668289
-668170
-668116
-668061
-668004
-667990
-667755
-667684
-667668
-667618
-667556
-667423
-667413
-667336
-667425
-667371
-667199
-667231
-667127
-667192
-667153
-667139
-667117
-667122
-667080
-667029
-667036
-667058
-667180
-667143
-667206
-667246
-667190
-667237
-667329
-667362
-667365
-667418
-667429
-667503
-667491
-667502
-667627
-667579
-667684
-667689
-667715
-667752
-667796
-667899
-667868
-667903
-667972
-668001
-668067
-668011
-668014
-668044
-668046
-668178
-668135
-668210
-668232
-668316
-668369
-668304
-668352
-668378
-668443
-668393
-668305
-668416
-668390
-668455
-668519
-668432
-668471
-668508
-668460
-668441
-668461
-668526
-668482
-668584
-668574
-668481
-668523
-668495
-668514
-668597
-668502
-668573
-668590
-668665
-668612
-668573
-668590
-668602
-668584
-668602
-668604
-668667
-668685
-668703
-668667
-668690
-668751
-668737
-668755
-668698
-668674
-668775
-668808
-668673
-668710
-668770
-668744
-668718
-668798
-668785
-668774
-668748
-668839
-668767
-668863
-668765
-668873
-668806
-668853
-668859
-668816
-668855
-668908
-668909
-668862
-668842
-668873
-668959
-668879
-668877
-668995
-669003
-669012
-669028
-669078
-668999
-669110
-669118
-669115
-669118
-669112
-669164
-669229
-669203
-669289
-669204
-669330
-669282
-669329
-669274
-669369
-669286
-669413
-669467
-669474
-669443
-669484
-669479
-669464
-669526
-669535
-669593
-669662
-669695
-669665
-669666
-669634
-669663
-669672
-669694
-669723
-669710
-669779
-669762
-669797
-669849
-669891
-670037
-670048
-670059
-669974
-670097
-670165
-670113
-670256
-670178
-670294
-670320
-670342
-670275
-670280
-670366
-670535
-670556
-670519
-670566
-670544
-670609
-670654
-670701
-670562
-670679
-670665
-670645
-670677
-670631
-670718
-670704
-670748
-670807
-670745
-670848
-670871
-670855
-670908
-670918
-670951
-671018
-671055
-671069
-671063
-670899
-671083
-671156
-671132
-671077
-671146
-671233
-671282
-671293
-671285
-671371
-671382
-671384
-671439
-671383
-671422
-671460
-671487
-671530
-671583
-671609
-671542
-671601
-671731
-671714
-671831
-671812
-671844
-671973
-671997
-672035
-671990
-672049
-672065
-672075
-672212
-672171
-672280
-672320
-672275
-672319
-672591
-672464
-672476
-672321
-672433
-672441
-672475
-672386
-672384
-672400
-672333
-672290
-672165
-672011
-672021
-671786
-671622
-671480
-671183
-670867
-670614
-670247
-670046
-669627
-669341
-668982
-668514
-668107
-667668
-667293
-666924
-666543
-666139
-665803
-665315
-665046
-664738
-664345
-664031
-663703
-663347
-662981
-662745
-662489
-662191
-661968
-661778
-662192
-661666
-661418
-661305
-661181
-660998
-660987
-660939
-660975
-661019
-661049
-660904
-660945
-661039
-661140
-661177
-661282
-661312
-661422
-661454
-661558
-661578
-661772
-661914
-661957
-662090
-662120
-662346
-662397
-662482
-662690
-662733
-662789
-662936
-662889
-662992
-663072
-663126
-663206
-663249
-663213
-663250
-663376
-663370
-663466
-663498
-663470
-663471
-663501
-663441
-663500
-663479
-663513
-663516
-663512
-663436
-663433
-663382
-663435
-663283
-663321
-663238
-663283
-663307
-663322
-663207
-663159
-663261
-663206
-663187
-663217
-663204
-663174
-663304
-663285
-663349
-663355
-663429
-663467
-663444
-663419
-663410
-663463
-663454
-663487
-663478
-663428
-663562
-663501
-663544
-663594
-663497
-663527
-663535
-663575
-663603
-663514
-663429
-663510
-663487
-663444
-663385
-663382
-663383
-663211
-663233
-663147
-663227
-663134
-663026
-663029
-662978
-662929
-662837
-662803
-662797
-662710
-662654
-662597
-662608
-662344
-662430
-662532
-662446
-662429
-662405
-662393
-662351
-662289
-662239
-662242
-662183
-662181
-662145
-662233
-662183
-662127
-662118
-662104
-662129
-662104
-662055
-662039
-662071
-662047
-662028
-661922
-661985
-662043
-662021
-662028
-662052
-662076
-662101
-662129
-662179
-662122
-662223
-662299
-662288
-662287
-662255
-662359
-662412
-662537
-662508
-662469
-662445
-662459
-662542
-662667
-662614
-662688
-662733
-662686
-662754
-662756
-662773
-662904
-662892
-662960
-662869
-662984
-663009
-662988
-663040
-662968
-662973
-662997
-663052
-663176
-663071
-663062
-663096
-663123
-663204
-663179
-663162
-663195
-663297
-663304
-663224
-663250
-663318
-663369
-663344
-663312
-663301
-663402
-663362
-663361
-663367
-663412
-663444
-663446
-663482
-663512
-663505
-663501
-663558
-663562
-663545
-663574
-663579
-663602
-663536
-663505
-663563
-663552
-663634
-663543
-663596
-663675
-663640
-663568
-663621
-663540
-663578
-663539
-663477
-663582
-663592
-663556
-663532
-663544
-663552
-663499
-663582
-663547
-663564
-663626
-663613
-663591
-663570
-663695
-663605
-663493
-663657
-663624
-663595
-663613
-663615
-663609
-663598
-663580
-663612
-663571
-663557
-663588
-663671
-663709
-663688
-663675
-663671
-663655
-663767
-663676
-663707
-663629
-663709
-663676
-663804
-663803
-663817
-663803
-663719
-663889
-663817
-663844
-663840
-663839
-663872
-663913
-663941
-663901
-663972
-664017
-663912
-664006
-664025
-663899
-663963
-664047
-664092
-664376
-664052
-664146
-664073
-664080
-664168
-664039
-664188
-664141
-664197
-664263
-664298
-664343
-664438
-664377
-664400
-664394
-664503
-664574
-664686
-664636
-664509
-664593
-664709
-664671
-664622
-664581
-664675
-664810
-664772
-664750
-664733
-664768
-664861
-664964
-664950
-664914
-665012
-665142
-665096
-665083
-665130
-665199
-665298
-665346
-665333
-665440
-665591
-665541
-665546
-665397
-665619
-665818
-665912
-665936
-666025
-666096
-666181
-666185
-666240
-666350
-666428
-666480
-666614
-666696
-666701
-666759
-666815
-666874
-666985
-667016
-666964
-667110
-667096
-667127
-667224
-667251
-667348
-667380
-667320
-667360
-667266
-667329
-667365
-667387
-667276
-667280
-667246
-667194
-667072
-666916
-666704
-666681
-666424
-666201
-665899
-665613
-665335
-665079
-664749
-664402
-664023
-663626
-663321
-662949
-662504
-662044
-661748
-661319
-660902
-660664
-660166
-659910
-659490
-659142
-658822
-658488
-658250
-658021
-657704
-657469
-657312
-657061
-656865
-656774
-656585
-656514
-656296
-656277
-656229
-656177
-656037
-656044
-656068
-655868
-655931
-655953
-656075
-656117
-656214
-656268
-656210
-656317
-656424
-656447
-656547
-656609
-656696
-656739
-656881
-656997
-656928
-657116
-657119
-657191
-657193
-657267
-657309
-657409
-657363
-657409
-657394
-657422
-657506
-657437
-657418
-657509
-657465
-657421
-657358
-657390
-657299
-657272
-657220
-657182
-657173
-657012
-656999
-657013
-656929
-656908
-656783
-656775
-656673
-656627
-656509
-656214
-656371
-656414
-656314
-656282
-656235
-656186
-656165
-656099
-656062
-656152
-656163
-656174
-656020
-656033
-656005
-656089
-656049
-655965
-655891
-655886
-655972
-655811
-655738
-655668
-655585
-655612
-655652
-655577
-655429
-655297
-655232
-655191
-655067
-655023
-654932
-654881
-654720
-654715
-654630
-654532
-654457
-654309
-654230
-654159
-654065
-654042
-653912
-653871
-653808
-653634
-653635
-653497
-653538
-653357
-653279
-653345
-653218
-653196
-653127
-652999
-652961
-652973
-652835
-652856
-652830
-652788
-652781
-652737
-652712
-652642
-652751
-652655
-652587
-652573
-652529
-652576
-652573
-652669
-652695
-652589
-652657
-652695
-652760
-652710
-652684
-652744
-652787
-652850
-652871
-652836
-652904
-652978
-653081
-653076
-653149
-653162
-653204
-653291
-653292
-653259
-653397
-653446
-653485
-653506
-653485
-653564
-653667
-653720
-653664
-653690
-653751
-653760
-653926
-653946
-653995
-654017
-654073
-654046
-654136
-654044
-654156
-654163
-654186
-654211
-654259
-654220
-654273
-654329
-654412
-654399
-654417
-654403
-654515
-654897
-654531
-654538
-654503
-654487
-654792
-654539
-654711
-654666
-654617
-654677
-654702
-654773
-654715
-654785
-654790
-654758
-654928
-654859
-654914
-654959
-655005
-655118
-655088
-655167
-655174
-655264
-655354
-655308
-655384
-655455
-655449
-655519
-655484
-655532
-655564
-655555
-655647
-655704
-655718
-655620
-655684
-655729
-655856
-655877
-655899
-655872
-656003
-656022
-655970
-656001
-655931
-656019
-656166
-656106
-656207
-656197
-656279
-656322
-656435
-656390
-656418
-656496
-656451
-656514
-656603
-656552
-656701
-656738
-656767
-656661
-656714
-656881
-656921
-656952
-656947
-656965
-657071
-657095
-657204
-657232
-656983
-657170
-657271
-657322
-657329
-657323
-657419
-657566
-657563
-657479
-657647
-657704
-657721
-657743
-657795
-657842
-658353
-658120
-658084
-658137
-658155
-658169
-658262
-658186
-658166
-658276
-658282
-658318
-658336
-658370
-658503
-658455
-658587
-658534
-658607
-658561
-658570
-658502
-658565
-658615
-658683
-658671
-658733
-658718
-658701
-658810
-658821
-658756
-658777
-658847
-658814
-658904
-658933
-658898
-659064
-659131
-659163
-659195
-659145
-659134
-659303
-659318
-659275
-659339
-659459
-659514
-659649
-659671
-659710
-659664
-659630
-659790
-659803
-659879
-659983
-659880
-659961
-659931
-660035
-660071
-660030
-659930
-660138
-660177
-660128
-660107
-660206
-660343
-660284
-660316
-660400
-660401
-660445
-660474
-660565
-660537
-660518
-660567
-660566
-660595
-660508
-660614
-660597
-660541
-660475
-660448
-660354
-660373
-660251
-660058
-659911
-659729
-659597
-659369
-659095
-658827
-658507
-658187
-657908
-657404
-657123
-656832
-656484
-656135
-655663
-655307
-654933
-654534
-654172
-653798
-653541
-653122
-652806
-652487
-652057
-651840
-651578
-651321
-651094
-650828
-650654
-650516
-650429
-650244
-650047
-650019
-649915
-649812
-649852
-649665
-649679
-649726
-649737
-649785
-649635
-649802
-649865
-649829
-649833
-649922
-649962
-650061
-650055
-650178
-650278
-650283
-650356
-650441
-650622
-650651
-650678
-650767
-650889
-650846
-650934
-650999
-650980
-651088
-651213
-651161
-651198
-651248
-651093
-651169
-651118
-651246
-651224
-651202
-651233
-651146
-651184
-651154
-651186
-651212
-651066
-651028
-651070
-650982
-650907
-650810
-650652
-650898
-650807
-650619
-650667
-650683
-650691
-650606
-650667
-650545
-650587
-650578
-650594
-650508
-650469
-650854
-650662
-650655
-650621
-650731
-650734
-650789
-650805
-650892
-650842
-651013
-650922
-651017
-651126
-651146
-651181
-651123
-651198
-651305
-651186
-651228
-651203
-651219
-651248
-651170
-651261
-651283
-651290
-651623
-651305
-651166
-651170
-651207
-651252
-651134
-651081
-651059
-651043
-651057
-650945
-650935
-650996
-650999
-650927
-650855
-650710
-650862
-650807
-650817
-650671
-650975
-650811
-650653
-650608
-650616
-650698
-650585
-650634
-650608
-650567
-650605
-650598
-650581
-650636
-650664
-650690
-650603
-650634
-650687
-650699
-650729
-650731
-650818
-650698
-650807
-650841
-650823
-650852
-650823
-650978
-651033
-650997
-651094
-651174
-651218
-651188
-651202
-651378
-651318
-651317
-651390
-651468
-651523
-651543
-651607
-651689
-651728
-651670
-651794
-651849
-651800
-651893
-652006
-652011
-652121
-652073
-652125
-652257
-652251
-652350
-652253
-652441
-652429
-652419
-652477
-652533
-652618
-652672
-652677
-652669
-652781
-652814
-652830
-652788
-652813
-652931
-652938
-652981
-653002
-653086
-653149
-653096
-653094
-653214
-653238
-653302
-653572
-653527
-653346
-653413
-653409
-653393
-653351
-653446
-653393
-653450
-653504
-653474
-653504
-653516
-653585
-653626
-653547
-653620
-653661
-653662
-653664
-653675
-653724
-653761
-653804
-653882
-653823
-653810
-653815
-653832
-653908
-653893
-653981
-653972
-654000
-654017
-654031
-654119
-654120
-654153
-654083
-654161
-654193
-654204
-654257
-654341
-654233
-654391
-654439
-654496
-654514
-654508
-654498
-654549
-654547
-654629
-654563
-654627
-654713
-654773
-654786
-654788
-654799
-654846
-654822
-654882
-654937
-655293
-655175
-655069
-655054
-655107
-655188
-655192
-655155
-655149
-655237
-655324
-655463
-655327
-655432
-655522
-655460
-655536
-655674
-655691
-655607
-655568
-655647
-655732
-655709
-655767
-655856
-655851
-655870
-655785
-655880
-655895
-655945
-656085
-655951
-655945
-656110
-656054
-656078
-656151
-656232
-656268
-656369
-656423
-656354
-656462
-656484
-656521
-656655
-656566
-656772
-656708
-656792
-656907
-656860
-656808
-656824
-656925
-656913
-656942
-657122
-657143
-657217
-657228
-657237
-657262
-657329
-657396
-657394
-657355
-657464
-657550
-657585
-657405
-657537
-657672
-657750
-657834
-657873
-657807
-657881
-657901
-657962
-658061
-658026
-658149
-658154
-658152
-658189
-658155
-658254
-658291
-658328
-658365
-658335
-658347
-658449
-658482
-658585
-658557
-658646
-658701
-658531
-658545
-658571
-658664
-658576
-658638
-658576
-658449
-658383
-658336
-658189
-657881
-657887
-657630
-657421
-657169
-656896
-654634
-653223
-650953
-650606
-650458
-650198
-650180
-650023
-649993
-649934
-649883
-649829
-649850
-649857
-649849
-649932
-649762
-649912
-650043
-650120
-650106
-650295
-650864
-651044
-650739
-650671
-650810
-650896
-650897
-651068
-651094
-651716
-651461
-651446
-651653
-651621
-651703
-651845
-651967
-652096
-652062
-652159
-652250
-652255
-652330
-652311
-652387
-652491
-652611
-652499
-653006
-652720
-652590
-652388
-652521
-652540
-652548
-652600
-652497
-652406
-652507
-652446
-652367
-652386
-652404
-652476
-652443
-652390
-652408
-652447
-652443
-652477
-652502
-652609
-652643
-652729
-652792
-652775
-652783
-652907
-652952
-652903
-653019
-653027
-653120
-653218
-653175
-653291
-653304
-653743
-653433
-653328
-653347
-653318
-653243
-653261
-653252
-653266
-653351
-653283
-653217
-653279
-653243
-653216
-653136
-653118
-653091
-653012
-653037
-652960
-652879
-652875
-652801
-652732
-652686
-652579
-652611
-652566
-652629
-652515
-652488
-652567
-652442
-652435
-652392
-652348
-652263
-652270
-652316
-652307
-652014
-652111
-652193
-652149
-652172
-652218
-652245
-652307
-652208
-652145
-652235
-652277
-652445
-652425
-652508
-652594
-652632
-652718
-652846
-652794
-652923
-653070
-653043
-653132
-652996
-653318
-653289
-653531
-653621
-653659
-653767
-653867
-653821
-654020
-654139
-654390
-654377
-654347
-654551
-654676
-654817
-654912
-654914
-655053
-655126
-655257
-655305
-655431
-655586
-655529
-655665
-655772
-655817
-655851
-656001
-656092
-656117
-656174
-656132
-656206
-656351
-656438
-656469
-656463
-656538
-656537
-656669
-656784
-656658
-656668
-656747
-656697
-656728
-656740
-656757
-656863
-656997
-656921
-656948
-656934
-656916
-656988
-657000
-656978
-657135
-657104
-657135
-657145
-657162
-657134
-657234
-657304
-657368
-657393
-657420
-657475
-657512
-657481
-657490
-657648
-657583
-657678
-657720
-657784
-657824
-657833
-657918
-657891
-657951
-657992
-658067
-658204
-658238
-658141
-658246
-658309
-658343
-658311
-658228
-658380
-658446
-658462
-658498
-658524
-658556
-658539
-658605
-658652
-658637
-658778
-658728
-658830
-658805
-658892
-658889
-659034
-659066
-658834
-658972
-659070
-659145
-659248
-659301
-659286
-659352
-659442
-659487
-659520
-659496
-660002
-659821
-659837
-659828
-659870
-659955
-659944
-660017
-660107
-660140
-660204
-660190
-660275
-660255
-660264
-660352
-660400
-660456
-660535
-660532
-660699
-660716
-660770
-660786
-660723
-660857
-660848
-660956
-661038
-661055
-661103
-661077
-661149
-661235
-661201
-661368
-661429
-661419
-661583
-661509
-661592
-661684
-661729
-661747
-661866
-661993
-662027
-662150
-662144
-662204
-662294
-662295
-662387
-662427
-662502
-662547
-662492
-662630
-662748
-662762
-662884
-662965
-663049
-663156
-663099
-663253
-663295
-663378
-663412
-663434
-663602
-663564
-663669
-663597
-663626
-663675
-663749
-663854
-663886
-663869
-663906
-663999
-664116
-664080
-664027
-664109
-664141
-664184
-664155
-664161
-664150
-664161
-664227
-664136
-664134
-664039
-664010
-663963
-663872
-663655
-663574
-663399
-663259
-663027
-662742
-662550
-662289
-662027
-661780
-661497
-661167
-660852
-661004
-660435
-660001
-659615
-659275
-658992
-658725
-658361
-658239
-658009
-657761
-657514
-656957
-656940
-656929
-656797
-656613
-656481
-656323
-656302
-656219
-656092
-656051
-656006
-656013
-656004
-656121
-656065
-656249
-656187
-656176
-656309
-656311
-656382
-656375
-656525
-656620
-657345
-656984
-656928
-656975
-656979
-657114
-657264
-657292
-657408
-657511
-657547
-657639
-657711
-657785
-657798
-657774
-657977
-657979
-658021
-657992
-658028
-658070
-658230
-658225
-658303
-658257
-658205
-658250
-658185
-658161
-658146
-658283
-658185
-658163
-658174
-658067
-658047
-658053
-658111
-658163
-657983
-658026
-658019
-657985
-658001
-657995
-658091
-658033
-658118
-658107
-658109
-658158
-658186
-658305
-658337
-658359
-658455
-658521
-658616
-658647
-658707
-658794
-658813
-658876
-659032
-659010
-659077
-659062
-659216
-659280
-659360
-659458
-659507
-659530
-659537
-659473
-659556
-659690
-659662
-659706
-659755
-659697
-659716
-659730
-659749
-659792
-659787
-659814
-659863
-659763
-659682
-659736
-659809
-659768
-659832
-659823
-659798
-659885
-659863
-659739
-659747
-659756
-660344
-660005
-659841
-659734
-659764
-659765
-659815
-659751
-659708
-659817
-659815
-659866
-659887
-659818
-659852
-659859
-659872
-659892
-660390
-660182
-660092
-660211
-660163
-660208
-660377
-660380
-660518
-660570
-660583
-660751
-660797
-660858
-660920
-660952
-661101
-661245
-661297
-661468
-661474
-661578
-661742
-661821
-662125
-662064
-662135
-662255
-662357
-662477
-662492
-662579
-662623
-662650
-662719
-662815
-662969
-663036
-663121
-663143
-663172
-663268
-663310
-663378
-663293
-663426
-663499
-663570
-663601
-663652
-663670
-663654
-663763
-663694
-663794
-663711
-663693
-663698
-663782
-663829
-663789
-663823
-663976
-663951
-664076
-664411
-664205
-664243
-664272
-664300
-664296
-664263
-664283
-664396
-664455
-664479
-664531
-664579
-664613
-664767
-664679
-664773
-664797
-664935
-665000
-664977
-664794
-664931
-665012
-665058
-665117
-665281
-665382
-665404
-665537
-665480
-665561
-665676
-665708
-665804
-665780
-665889
-665878
-666001
-666148
-666097
-666270
-666314
-666446
-666411
-666467
-666538
-666582
-666638
-666724
-666678
-666811
-666857
-666970
-667098
-667087
-667137
-667124
-667316
-667301
-667321
-667404
-667513
-667550
-667505
-667531
-667679
-667767
-667760
-667697
-667811
-668155
-668020
-667990
-668156
-668147
-668211
-668244
-668330
-668316
-668264
-668455
-668512
-668518
-668564
-668568
-668708
-668677
-668728
-668768
-669428
-669138
-668995
-668996
-669005
-668990
-669246
-669318
-669295
-669318
-669290
-669375
-669445
-669462
-669525
-669530
-669563
-669680
-669671
-669688
-669766
-669858
-669914
-669984
-670058
-669953
-670106
-670137
-670295
-670315
-670250
-670336
-670432
-670542
-670594
-670620
-670570
-670602
-670699
-670790
-670707
-670870
-670903
-670900
-670944
-670899
-670992
-671026
-671095
-671811
-671363
-671371
-671427
-671407
-671455
-671514
-671567
-671509
-671608
-671663
-671708
-671850
-671895
-671990
-672025
-672044
-672034
-672134
-672245
-672375
-672402
-672509
-672494
-672501
-672617
-672687
-672753
-672859
-672974
-673121
-673053
-673085
-673107
-673267
-673257
-673270
-673373
-673403
-673557
-673560
-673535
-673620
-673753
-673833
-673939
-673866
-673976
-673874
-673867
-673942
-673917
-673869
-673973
-673925
-673876
-673789
-673680
-673484
-673443
-673213
-673004
-672866
-672641
-672357
-672096
-671728
-671498
-671172
-670855
-670649
-670322
-669948
-669713
-669462
-669123
-668843
-668489
-668287
-668040
-667769
-667437
-667319
-667189
-666911
-666769
-666643
-666547
-666473
-666458
-666373
-666337
-666259
-666380
-666453
-666418
-666433
-666557
-666623
-666725
-666798
-666751
-666967
-666956
-667161
-667225
-667277
-667434
-667512
-667646
-667769
-667911
-667981
-668022
-668248
-668318
-668330
-668374
-668501
-668520
-668567
-668659
-668791
-668840
-668859
-668836
-668965
-669023
-669075
-669133
-669042
-669065
-669103
-669030
-669178
-669239
-669113
-669218
-669183
-669171
-669192
-669076
-669025
-669007
-669011
-668946
-668870
-668956
-668893
-668862
-668863
-668808
-668709
-668767
-668778
-668768
-668788
-668790
-668624
-668769
-668939
-668878
-669095
-669134
-669211
-669288
-669306
-669370
-669493
-669585
-669951
-669781
-669771
-669860
-669926
-670109
-670098
-670259
-670298
-670406
-670462
-670355
-670539
-670667
-670702
-670786
-670800
-670919
-670954
-671026
-671094
-671072
-671076
-671195
-671206
-671230
-671202
-671287
-671358
-671383
-671401
-671432
-671490
-671438
-671313
-671336
-671244
-671350
-671452
-671416
-671414
-671322
-671388
-671360
-671326
-671386
-671355
-671412
-671427
-671397
-671343
-671366
-671457
-671553
-671587
-671508
-671429
-671512
-671447
-671498
-671532
-671461
-671541
-671581
-671670
-671588
-671558
-671694
-671771
-671827
-671782
-671792
-671948
-672051
-672069
-672112
-672126
-672183
-672246
-672316
-672356
-672376
-672542
-672493
-672543
-672608
-672658
-672710
-672883
-672893
-672960
-672928
-673011
-673062
-673214
-673315
-673247
-673429
-673361
-673402
-673542
-673601
-673657
-673706
-673718
-673702
-673788
-673834
-673970
-673955
-674034
-674039
-674050
-674057
-674230
-674220
-674249
-674232
-674295
-674292
-674375
-674499
-674534
-674546
-674679
-674632
-674730
-674817
-674899
-674983
-674916
-675031
-675071
-675048
-675212
-675250
-675289
-675356
-675404
-675426
-675534
-675608
-675615
-675710
-675782
-675811
-675857
-676025
-676044
-676108
-676159
-676210
-676209
-676211
-676411
-676360
-676450
-676482
-676566
-676736
-676675
-676688
-676668
-676574
-676770
-676763
-676908
-677048
-676997
-677109
-677001
-677111
-677069
-677162
-677186
-677220
-677304
-677288
-677343
-677274
-677338
-677308
-677315
-677338
-677328
-677275
-677368
-677452
-677405
-677417
-677419
-677469
-677522
-677571
-677591
-677503
-677488
-677605
-677627
-677703
-677744
-677634
-677674
-677790
-677745
-677788
-677822
-677880
-677917
-677918
-677983
-678007
-678104
-678167
-678231
-678152
-678193
-678288
-678309
-678394
-678418
-678458
-678600
-678622
-678611
-678771
-678850
-678858
-678939
-678924
-679090
-679215
-679219
-679254
-679402
-679374
-679414
-679469
-679540
-679617
-679670
-679764
-679852
-679874
-679817
-679919
-680044
-680119
-680082
-680148
-680233
-680272
-680295
-680274
-680264
-680338
-680382
-680403
-680529
-680435
-680492
-680516
-680582
-680609
-680599
-680666
-680798
-680805
-680812
-680887
-680949
-681496
-681154
-681055
-680972
-681060
-681043
-681084
-681164
-681114
-681222
-681198
-681296
-681246
-681268
-681310
-681438
-681450
-681486
-681401
-681382
-681388
-681363
-681530
-681535
-681445
-681887
-681684
-681507
-681465
-681523
-681504
-681578
-681524
-681420
-681511
-681463
-681487
-681460
-681453
-681417
-681391
-681276
-681173
-681022
-680910
-680871
-680681
-680426
-680222
-680005
-679834
-679609
-679271
-678923
-678651
-678177
-677955
-677587
-677193
-676869
-676513
-676172
-675773
-675463
-675153
-674795
-674558
-674212
-673818
-673503
-673372
-673060
-673301
-672763
-672509
-672309
-672237
-672172
-672112
-672031
-672011
-671969
-671923
-671891
-671841
-671965
-672032
-672089
-672113
-672236
-672307
-672399
-672467
-672580
-672737
-672681
-672786
-672927
-673106
-673197
-673368
-673445
-673538
-673594
-673782
-673771
-673837
-674046
-674031
-674168
-674267
-674332
-674435
-674487
-674529
-674597
-674680
-674745
-674779
-674798
-674880
-674873
-674824
-674748
-674840
-674811
-674804
-674838
-674751
-674808
-674764
-674685
-674647
-674596
-674589
-674524
-674519
-674552
-674302
-674350
-674362
-674415
-674311
-674261
-674296
-674307
-674399
-674368
-674399
-674446
-674470
-674465
-674565
-674526
-674676
-674671
-674824
-674882
-674917
-674925
-674968
-675053
-675105
-675211
-675300
-675421
-675442
-675704
-675724
-675699
-675730
-675696
-675626
-675653
-675681
-675715
-675696
-675640
-675698
-675772
-675755
-675717
-675565
-675627
-675623
-675614
-675635
-675633
-675603
-675606
-675551
-675556
-675546
-675527
-675493
-675508
-675514
-675488
-675376
-675480
-675426
-675359
-675475
-675353
-675866
-675621
-675619
-675523
-675576
-675602
-675533
-675584
-675550
-675574
-675747
-675744
-675794
-675629
-675690
-675857
-675863
-675939
-676038
-676001
-676123
-676194
-676142
-676196
-676210
-676312
-676304
-676430
-676517
-676481
-676608
-676720
-676805
-676792
-676824
-676927
-676930
-677101
-677070
-677108
-677125
-677074
-677185
-677263
-677206
-677373
-677446
-677384
-677510
-677399
-677549
-677675
-677745
-677698
-677766
-677729
-677828
-677814
-677825
-677800
-677883
-677968
-678031
-678020
-677967
-678002
-677905
-678002
-677920
-677881
-677905
-677937
-677965
-677910
-677817
-677915
-677828
-677859
-677821
-677824
-677847
-677800
-677836
-677700
-677709
-677617
-677676
-677711
-677689
-677688
-677694
-677706
-677723
-677718
-677734
-677739
-677788
-677761
-677763
-677793
-677791
-677810
-677986
-677988
-678036
-678213
-678181
-678198
-678362
-678324
-678371
-678481
-678599
-678584
-678628
-678705
-678757
-678846
-678868
-678919
-679045
-679119
-679078
-679134
-679221
-679250
-679320
-679396
-679409
-679402
-679508
-679557
-679654
-679732
-679740
-680227
-680062
-679885
-679819
-679782
-679776
-679906
-679985
-680077
-680085
-680063
-680164
-680228
-680118
-680347
-680410
-680394
-680371
-680389
-680363
-680940
-680747
-680679
-680735
-680728
-680783
-680827
-680803
-680884
-680900
-680932
-681293
-681149
-681091
-681247
-681232
-681311
-681327
-681328
-681320
-681308
-681368
-681519
-681405
-681460
-681567
-681604
-681620
-681643
-681588
-681696
-681613
-681702
-681671
-681744
-681789
-681692
-681794
-681876
-681908
-681980
-681938
-681929
-681928
-681916
-682014
-681988
-682090
-682104
-682116
-682122
-682098
-682071
-682156
-682881
-682483
-682316
-682275
-682286
-682352
-682438
-682408
-682468
-682455
-682617
-682566
-682760
-682623
-682665
-682743
-682787
-682919
-682902
-682761
-682854
-683087
-683136
-683083
-682920
-682906
-683152
-683261
-683166
-683302
-683361
-683395
-683355
-683393
-683561
-683594
-683581
-683576
-683582
-683745
-683793
-683834
-683762
-683705
-683803
-683772
-683855
-683994
-683927
-684041
-683971
-684077
-684099
-684081
-684219
-684145
-684241
-684261
-684112
-684206
-684078
-684072
-684054
-683844
-683801
-683783
-683609
-683361
-683126
-682926
-682768
-682479
-682268
-681886
-681632
-681208
-680844
-680568
-680181
-680112
-679569
-679200
-678790
-678416
-678122
-677770
-677552
-677307
-677007
-676804
-676568
-676438
-676174
-675944
-675892
-675803
-675747
-675655
-675542
-675454
-675467
-675442
-675439
-675186
-675444
-675521
-675632
-675695
-675720
-675772
-675907
-675914
-676000
-676008
-676174
-676297
-676450
-676538
-676574
-676717
-676859
-676934
-676937
-677031
-676999
-677254
-677323
-677422
-677436
-677388
-677433
-677509
-677570
-677572
-677600
-677697
-677644
-677552
-677521
-677566
-677640
-677673
-677705
-677660
-677680
-677566
-677562
-677426
-677316
-677375
-677339
-677281
-677303
-677239
-677110
-677097
-677181
-677134
-677110
-677173
-677133
-677137
-677157
-677177
-677255
-677210
-677319
-677356
-677367
-677467
-677405
-677523
-677651
-677609
-677673
-677778
-677895
-677983
-678057
-678138
-678304
-678387
-678395
-678585
-678566
-678684
-678553
-678580
-678768
-678797
-678880
-678987
-678801
-678937
-678861
-678912
-678947
-678862
-678988
-679020
-678979
-678952
-678948
-679019
-678903
-678876
-678975
-678801
-678809
-678835
-678785
-678831
-678767
-678782
-678828
-678748
-678737
-678727
-678798
-678771
-678824
-678721
-678732
-678805
-678760
-678744
-678587
-678704
-678809
-678793
-678866
-678767
-678817
-678845
-678963
-678983
-678896
-678958
-679118
-679068
-679056
-679080
-679125
-679220
-679301
-679250
-679333
-679480
-679468
-679592
-679654
-679585
-679703
-679797
-679918
-679951
-680080
-680056
-680085
-680138
-680198
-680266
-680288
-680372
-680416
-680425
-680516
-680494
-680535
-680561
-680490
-680610
-680624
-680632
-680674
-680586
-680618
-680717
-680697
-680641
-680403
-680601
-680551
-681002
-680738
-680659
-680629
-680601
-680640
-680701
-680609
-680534
-680532
-680505
-680568
-680478
-680544
-680557
-680461
-680492
-680364
-680508
-680412
-680376
-680397
-680307
-680317
-680327
-680317
-680420
-680330
-680491
-680331
-680452
-680413
-680396
-680407
-680459
-680527
-680510
-680512
-680550
-680583
-680362
-680545
-680476
-680527
-680664
-680680
-680715
-680697
-680761
-680821
-680801
-680866
-680934
-680927
-680888
-681009
-681027
-681037
-681080
-681106
-681117
-681146
-681142
-681181
-681247
-681278
-681267
-681249
-681248
-681335
-681463
-681473
-681417
-681502
-681511
-681600
-681512
-681555
-681588
-682020
-681851
-681673
-681654
-681720
-681752
-681738
-681830
-681756
-681856
-681899
-682022
-682000
-681813
-681962
-682008
-682053
-682078
-681989
-682010
-682065
-682156
-682198
-682319
-682250
-682275
-682197
-682222
-682264
-682382
-682416
-682520
-682484
-682493
-682446
-682563
-682528
-682495
-682440
-683006
-682784
-682738
-682835
-682752
-682794
-682688
-682808
-682881
-682932
-682886
-682870
-682901
-682902
-682945
-682974
-682988
-683085
-683177
-683060
-683160
-683219
-683287
-683261
-683320
-683391
-683327
-683397
-683422
-683407
-683466
-683482
-683544
-683598
-683698
-683791
-683694
-683808
-683809
-683803
-683878
-684002
-683963
-684001
-684060
-684117
-684246
-684200
-684162
-684347
-684367
-684349
-684337
-684350
-684401
-684388
-684577
-684540
-684494
-684365
-684647
-684755
-684813
-684747
-684791
-684806
-684824
-684991
-684897
-685039
-685052
-685144
-685112
-685116
-685196
-685218
-685221
-685257
-685242
-685403
-685342
-685411
-685455
-685452
-685465
-685435
-685471
-685494
-685486
-685473
-685374
-685472
-685514
-685406
-685290
-685209
-685169
-685031
-684860
-684701
-684487
-684363
-684122
-683820
-683566
-683332
-683032
-682691
-682353
-682005
-681735
-681394
-680969
-680614
-680365
-679985
-679612
-679411
-678986
-678771
-678476
-678214
-678083
-677787
-677634
-677479
-677248
-677520
-677101
-676955
-676954
-676910
-676777
-676774
-676720
-676849
-676828
-677326
-677105
-677049
-677059
-677212
-677268
-677345
-677521
-677607
-677814
-677866
-677999
-678181
-678243
-678246
-678464
-678638
-679122
-679016
-679115
-679160
-679277
-679492
-679602
-679730
-679802
-679798
-680040
-680081
-680139
-680200
-680348
-680463
-680549
-680577
-680659
-680621
-680680
-680701
-680679
-680641
-680633
-680789
-680756
-680752
-680533
-680668
-680748
-680701
-680725
-680698
-680739
-680699
-680754
-680674
-680804
-680868
-680820
-680983
-680991
-681017
-681063
-681035
-681269
-681273
-681472
-681523
-681499
-681547
-681613
-681733
-681819
-681740
-681834
-681885
-681960
-682040
-681957
-682058
-682100
-682130
-682264
-682117
-682296
-682364
-682237
-682315
-682398
-682418
-682377
-682443
-682438
-682406
-682414
-682489
-682540
-682522
-682497
-682401
-682513
-682495
-682539
-682474
-682451
-682521
-682420
-682448
-682314
-682393
-682320
-682343
-682479
-682428
-682403
-682409
-682440
-682411
-682300
-682342
-682404
-682400
-682419
-682426
-682546
-682482
-682283
-682383
-682435
-682468
-682606
-682666
-682702
-682614
-682581
-682810
-682842
-682963
-682994
-683133
-683209
-683115
-683221
-683157
-683194
-683270
-683295
-683355
-683346
-683531
-683541
-683486
-683602
-683597
-683600
-683738
-683774
-683786
-683764
-683948
-683997
-684004
-684005
-684083
-684132
-684453
-684201
-684246
-684215
-684340
-684325
-684452
-684382
-684457
-684591
-684534
-684637
-684644
-684636
-684746
-684777
-684820
-684861
-684846
-685010
-684989
-685066
-685138
-685195
-685212
-685336
-685393
-685411
-685394
-685436
-685466
-685513
-685500
-685568
-685671
-685691
-685703
-685794
-685744
-685807
-685795
-685870
-685867
-685882
-685991
-685914
-685963
-686010
-685919
-685975
-685969
-686005
-686009
-686080
-686097
-686060
-686088
-686051
-686011
-686137
-686192
-686242
-686229
-686246
-686270
-686216
-686388
-686411
-686425
-686395
-686506
-686568
-686609
-686432
-686609
-686692
-686683
-686688
-686759
-686830
-686825
-686836
-686896
-686841
-686926
-686971
-687022
-687131
-687077
-687249
-687274
-687297
-687336
-687366
-687461
-687415
-687919
-688074
-687770
-687781
-687660
-687630
-687656
-687748
-687830
-687966
-687946
-687905
-687903
-687954
-688046
-688107
-688131
-688123
-688246
-688218
-688241
-688315
-688668
-688443
-688456
-688481
-688577
-688561
-688688
-688644
-688640
-688656
-688705
-688796
-688808
-688892
-688844
-688839
-689028
-689048
-689070
-689052
-688983
-689032
-689104
-689196
-689184
-689109
-689256
-689274
-689246
-689239
-689269
-689478
-689441
-689467
-689478
-689469
-689595
-689553
-689664
-689721
-689708
-689700
-689863
-689834
-689926
-689846
-689956
-689867
-689865
-689918
-689924
-690048
-690147
-690220
-690058
-690199
-690288
-690309
-690320
-690342
-690389
-690425
-690412
-690449
-690500
-690583
-690532
-690655
-690659
-690623
-690661
-690714
-690762
-690849
-690815
-690900
-690980
-691012
-691042
-691156
-691143
-691170
-691199
-691220
-691121
-691290
-691385
-691412
-691481
-691573
-691617
-691607
-691635
-691599
-691755
-691775
-691804
-691933
-691889
-691980
-691928
-692014
-691914
-692056
-692022
-692168
-692066
-692151
-692150
-692152
-692198
-692099
-691995
-691903
-691949
-691868
-691643
-691579
-691271
-691087
-690879
-690708
-690537
-690249
-689918
-689686
-689305
-688953
-688660
-688405
-688040
-687708
-687529
-687149
-686911
-686584
-686413
-686113
-685922
-685620
-685464
-685276
-685053
-684886
-684774
-684556
-684513
-684440
-684362
-684388
-684310
-684259
-684254
-684294
-684351
-684422
-684420
-684351
-684535
-684641
-684655
-684760
-684929
-685048
-685203
-685335
-685890
-685737
-685751
-685902
-686074
-686185
-686333
-686467
-686574
-686712
-686963
-687073
-687210
-687394
-687496
-687659
-687801
-688060
-688119
-688107
-688212
-688303
-688859
-688636
-688526
-688699
-688808
-688847
-688919
-688996
-689053
-689097
-689092
-689075
-689210
-689135
-689237
-689220
-689360
-689335
-689424
-689469
-689433
-689510
-689512
-689619
-689621
-689718
-689786
-689810
-689962
-690053
-690047
-690140
-690201
-690283
-690354
-690320
-690393
-690434
-690471
-690493
-690425
-690548
-690575
-690608
-690667
-690575
-690600
-690623
-690568
-690659
-690636
-690702
-690608
-690635
-690634
-690548
-690626
-690572
-690487
-690475
-690447
-690522
-690435
-690456
-690401
-690290
-690386
-690312
-690338
-690229
-690351
-690261
-690242
-690319
-690362
-690224
-690272
-690323
-690306
-690357
-690393
-690481
-690510
-690451
-690454
-690627
-690547
-690648
-690628
-690735
-690714
-690804
-690839
-690939
-691015
-691084
-691102
-691232
-691274
-691260
-691266
-691442
-691587
-691604
-691698
-691699
-691776
-691826
-691891
-691869
-691939
-692120
-692119
-692165
-692162
-692329
-692357
-692501
-692535
-692567
-692559
-692711
-692680
-692762
-692799
-692918
-692934
-692931
-693036
-693082
-693130
-693149
-693254
-693195
-693219
-693336
-693372
-693439
-693509
-693495
-693528
-693536
-693633
-693778
-693761
-693809
-693910
-693850
-693941
-693918
-694058
-694054
-694105
-694132
-694149
-694098
-694128
-694210
-694279
-694243
-694274
-694325
-694351
-694452
-694395
-694447
-694495
-694458
-694523
-694424
-694564
-694592
-694652
-694610
-694625
-694706
-694682
-694733
-694854
-694847
-694863
-694898
-694976
-694956
-694896
-694918
-695049
-695201
-695262
-695270
-695198
-695326
-695274
-695373
-695354
-695447
-695481
-695461
-695426
-695526
-695628
-695661
-695741
-695731
-695795
-695915
-695831
-695853
-695833
-695915
-695952
-696007
-696130
-696155
-696056
-696116
-696150
-696165
-696170
-696239
-696241
-696262
-696360
-696363
-696405
-696400
-696414
-696481
-696501
-696561
-696586
-696570
-696651
-696638
-696470
-696971
-696721
-696713
-696684
-696808
-696843
-696828
-696806
-696891
-696935
-696934
-697005
-697097
-697083
-697085
-697225
-697128
-697257
-697334
-697277
-697141
-697322
-697389
-697500
-697528
-697519
-697443
-697545
-697629
-697651
-697740
-697666
-697724
-697830
-697912
-697886
-697810
-697956
-697916
-697839
-697912
-697946
-698028
-698154
-698082
-698137
-698129
-698147
-698227
-698172
-698234
-698237
-698267
-698239
-698327
-698457
-698416
-698481
-698424
-698380
-698518
-698439
-698535
-698513
-698599
-698602
-698677
-698748
-698756
-698849
-698860
-698972
-699024
-699076
-699172
-699102
-699118
-699146
-699242
-699298
-699370
-699452
-699426
-699515
-699522
-699661
-699620
-699647
-699887
-699837
-699954
-700013
-699986
-700109
-700078
-700070
-700129
-700236
-700266
-700355
-700367
-700461
-700426
-700472
-700487
-700604
-700586
-700658
-700707
-700655
-700642
-700775
-700761
-700818
-700835
-700894
-700884
-700879
-700934
-700931
-700981
-700984
-700964
-700917
-700851
-700725
-700650
-700583
-700357
-700049
-699965
-699687
-699410
-699155
-698802
-698398
-698120
-697777
-697427
-697017
-696658
-696329
-695950
-695652
-695237
-694929
-694524
-694212
-694036
-693653
-693440
-693172
-693042
-692854
-692661
-692447
-692307
-692165
-692001
-691941
-692017
-691930
-691898
-691940
-691919
-691914
-691969
-692021
-692047
-692128
-692188
-692321
-692367
-692596
-692590
-692713
-692797
-693033
-693246
-693293
-693452
-693544
-693722
-693910
-694083
-694210
-694351
-695098
-694862
-694718
-694807
-694976
-695087
-695287
-695412
-695478
-695582
-695571
-695738
-695831
-695945
-695941
-695968
-696027
-696024
-696077
-696103
-696177
-696318
-696225
-696335
-696435
-696367
-696216
-696199
-696379
-696279
-696193
-696360
-696202
-696342
-696442
-696396
-696351
-696373
-696375
-696449
-696464
-696514
-696618
-696608
-696653
-696778
-696849
-696890
-696918
-696997
-697029
-696946
-697385
-697177
-697184
-697224
-697310
-697399
-697375
-697359
-697406
-697423
-697387
-697399
-697336
-697413
-697430
-697423
-697336
-697374
-697397
-697324
-697393
-697305
-697359
-697248
-697246
-697271
-697256
-697230
-697249
