PPG
-720154
-720151
-720272
-720284
-720281
-720359
-720429
-720437
-720519
-720487
-720566
-720666
-720694
-720755
-720742
-720652
-720771
-720844
-720987
-720739
-720917
-720920
-720967
-720828
-720691
-720728
-720641
-720478
-720354
-720014
-719965
-719832
-719543
-719193
-718799
-718675
-718395
-718049
-717601
-717080
-716843
-716533
-716165
-715657
-715160
-714744
-714506
-714067
-713670
-713201
-712842
-712576
-712181
-711872
-711427
-711288
-710989
-710662
-710373
-710125
-710067
-709812
-709643
-709503
-709263
-709226
-709164
-709193
-709071
-708727
-708941
-708942
-708987
-708973
-708851
-708796
-708890
-709034
-709142
-708871
-709111
-709175
-709331
-710005
-709426
-709536
-709575
-709720
-709675
-709640
-709729
-709887
-709928
-710119
-709944
-710183
-710227
-710212
-710348
-710239
-710366
-710382
-710463
-710426
-710318
-710410
-710448
-710484
-710547
-710355
-710419
-710346
-710473
-710458
-710236
-710235
-710219
-710211
-710236
-710057
-710108
-710130
-710035
-709932
-709811
-709808
-709812
-709729
-709666
-709604
-709492
-709477
-709516
-709395
-709311
-709339
-709399
-709303
-709335
-709257
-709232
-709351
-709439
-709537
-709386
-709530
-709523
-709580
-709704
-709641
-709743
-709890
-709924
-710021
-709927
-710039
-710063
-710233
-710331
-710204
-710297
-710452
-710606
-710589
-710470
-710667
-710675
-710799
-710828
-710633
-710764
-710863
-710922
-710899
-710799
-710801
-710902
-710936
-710931
-710816
-710765
-710801
-710799
-710769
-710695
-710745
-710802
-710759
-710683
-710717
-710636
-710691
-710731
-710711
-710528
-710572
-710699
-710651
-710719
-710495
-710305
-710496
-710591
-710576
-710530
-710499
-710547
-710535
-710596
-710471
-710518
-710664
-710608
-710631
-710609
-710625
-710665
-710636
-710795
-710646
-710741
-710723
-710795
-710936
-710807
-710892
-710733
-710885
-711087
-710980
-711017
-711117
-711126
-711151
-711123
-711221
-711306
-711349
-711359
-711374
-711413
-711549
-711688
-712009
-711702
-711708
-711659
-711767
-711816
-711745
-711857
-711836
-712007
-712105
-711974
-711936
-712077
-712166
-712176
-712097
-712213
-712355
-712366
-712417
-712391
-712454
-712514
-712512
-712574
-712508
-712602
-712702
-712785
-712812
-712732
-712730
-712917
-713001
-713014
-712942
-713086
-713164
-713217
-713282
-713201
-713215
-713387
-713424
-713490
-713368
-713485
-713568
-713660
-713727
-713874
-713743
-713892
-713872
-713905
-713862
-713809
-713936
-714000
-714096
-714089
-714103
-714075
-714187
-714241
-714188
-714311
-714301
-714290
-714237
-714347
-714412
-714501
-714353
-714561
-714387
-714509
-714759
-714782
-714834
-714718
-714726
-714796
-714853
-714952
-714782
-714826
-714978
-715042
-715107
-715047
-715094
-715133
-715012
-715134
-715047
-715069
-715170
-715305
-715338
-715239
-715220
-715402
-715423
-715315
-715382
-715455
-715539
-715437
-715484
-715642
-715731
-715819
-715661
-715681
-715759
-715923
-715928
-715794
-715872
-716000
-715985
-716033
-716227
-716260
-716192
-716133
-716257
-716387
-716249
-716244
-716395
-716518
-716566
-716416
-716394
-716582
-716559
-716497
-716456
-716558
-716723
-716771
-716868
-716815
-716860
-716961
-717020
-717036
-716988
-716983
-717161
-717273
-717382
-717214
-717174
-717434
-717468
-717487
-717385
-717420
-717694
-717788
-717821
-717761
-717766
-717905
-717922
-717993
-717849
-717872
-718145
-717957
-718162
-718186
-718400
-718380
-718442
-718471
-718524
-718625
-718567
-718732
-718673
-718615
-718780
-718889
-718956
-718861
-718943
-718958
-719041
-719078
-719023
-718878
-718969
-718930
-718874
-718553
-718342
-718278
-718120
-717936
-717578
-717268
-717034
-716789
-716462
-715991
-715620
-715402
-715010
-714716
-714194
-713674
-713323
-713039
-712592
-712167
-711717
-711840
-711217
-710725
-710212
-709767
-709510
-709209
-709018
-708588
-708312
-708099
-707885
-707687
-707508
-707232
-707212
-707112
-706963
-706797
-706665
-706743
-706751
-706683
-706525
-706415
-706455
-706496
-706617
-706624
-706602
-706728
-706859
-706793
-706901
-706977
-707066
-707186
-707356
-707496
-707420
-707489
-707599
-708228
-707911
-707678
-707811
-707985
-708034
-707988
-707966
-708162
-708064
-708346
-708333
-708311
-708412
-708408
-708532
-708417
-708438
-708533
-708612
-708555
-708504
-708398
-708534
-708518
-708515
-708375
-708275
-708306
-708400
-708301
-708244
-708038
-708133
-708111
-708117
-707702
-707862
-707920
-707889
-707842
-707812
-707671
-707688
-707626
-707664
-707571
-707446
-707553
-707570
-707716
-707626
-707476
-707609
-707679
-707696
-707665
-707581
-707792
-707771
-707879
-707827
-707842
-708001
-708035
-708681
-708220
-708607
-708541
-708421
-708839
-708609
-708375
-708591
-708584
-708688
-708733
-708630
-708890
-708930
-708901
-708865
-708943
-708999
-709073
-709027
-709040
-708976
-709016
-709166
-709190
-709144
-708901
-709021
-709110
-709071
-709098
-708885
-709023
-709033
-709103
-708897
-708862
-708885
-708978
-708975
-708859
-708750
-708898
-708835
-708908
-708772
-708611
-708673
-708743
-708770
-708747
-708600
-708715
-708842
-708952
-708789
-708608
-708740
-708840
-708791
-708795
-708745
-708837
-708947
-708988
-708965
-708978
-708971
-708993
-709044
-709079
-709027
-709154
-709296
-709359
-709340
-709256
-709353
-709467
-709482
-709495
-709460
-709506
-709580
-709712
-709768
-709684
-709831
-709894
-709927
-709932
-709817
-709979
-710041
-710173
-710094
-710038
-710124
-710226
-710341
-710443
-710284
-710416
-710550
-710655
-710630
-710530
-710603
-710662
-710824
-710878
-710769
-710972
-710895
-711006
-711084
-711079
-711100
-711170
-711240
-711234
-711158
-711322
-711497
-711472
-711515
-711407
-711501
-711635
-711834
-711768
-711629
-711777
-711835
-711944
-711959
-711950
-712049
-712056
-712194
-712073
-712100
-712176
-712224
-712401
-712367
-712316
-712386
-712472
-712547
-712569
-712483
-712611
-712813
-712905
-712931
-712766
-712945
-712913
-713070
-713002
-713013
-713069
-713190
-713234
-713191
-713099
-713164
-713264
-713327
-713415
-713224
-713417
-713485
-713543
-713462
-713423
-713483
-713592
-713653
-713623
-713635
-713711
-713881
-713964
-713873
-713708
-713899
-713986
-714029
-714023
-713923
-714025
-714049
-714206
-714118
-714029
-714173
-714229
-714326
-714329
-714276
-714410
-714402
-714468
-714522
-714443
-714502
-714492
-714618
-714538
-714513
-714645
-714738
-714809
-714823
-714615
-714844
-715221
-715051
-714963
-714887
-714958
-715033
-715178
-715453
-715127
-715263
-715295
-715329
-715270
-715193
-715314
-715374
-715458
-715535
-715494
-715539
-715596
-715670
-715776
-715682
-715790
-715843
-716008
-715928
-715791
-715900
-716048
-716071
-716124
-716041
-716247
-716300
-716345
-716371
-716257
-716377
-716406
-716600
-716580
-716518
-716676
-716772
-716801
-716906
-716757
-716880
-716924
-717052
-717045
-716985
-717161
-717316
-717261
-717291
-717328
-717331
-717440
-717435
-717615
-717563
-717655
-717672
-717821
-717778
-717697
-717902
-717955
-717967
-718024
-717910
-718098
-718045
-718260
-718178
-718069
-718175
-718134
-718104
-718071
-717809
-717724
-717530
-717453
-717293
-716869
-716715
-716387
-716126
-715754
-715428
-715118
-714784
-714399
-714039
-713543
-713234
-712880
-712550
-712154
-711595
-711197
-710853
-710510
-710202
-709685
-709427
-709123
-708783
-708429
-708022
-707926
-707429
-707454
-707196
-706893
-706824
-706621
-706527
-706436
-706261
-706225
-706229
-706127
-706051
-705965
-705946
-705938
-706073
-706133
-706050
-706598
-706381
-706351
-706466
-706411
-706606
-706687
-706754
-706862
-706816
-707018
-707162
-707260
-707351
-707301
-707482
-707654
-707749
-707835
-707838
-708028
-708136
-708204
-708374
-708317
-708391
-708455
-708602
-708632
-708534
-708666
-708680
-708777
-708884
-708730
-708869
-708900
-708838
-708651
-708636
-708835
-708879
-708873
-708838
-708682
-708722
-708730
-708675
-708732
-708636
-708731
-708756
-708674
-708678
-708619
-708547
-708550
-708516
-708613
-708362
-708393
-708500
-708525
-708475
-708395
-708527
-708540
-708557
-708683
-708568
-708695
-708769
-708834
-708895
-708868
-708939
-708949
-709115
-709165
-709141
-709250
-709274
-709368
-709461
-709309
-709541
-709588
-709599
-709609
-709555
-709768
-709745
-709786
-709893
-709736
-709769
-709857
-709917
-709876
-709738
-709915
-709787
-709829
-709909
-709658
-709846
-709897
-709812
-709792
-709533
-709707
-709768
-709681
-709725
-709371
-709598
-709642
-709606
-709514
-709427
-709452
-709475
-709512
-709605
-709401
-709509
-709435
-709472
-709521
-709393
-709606
-709564
-709499
-709596
-709400
-709514
-709593
-709682
-709737
-709618
-709637
-709695
-709711
-709763
-709666
-709889
-709844
-709922
-710004
-709908
-709801
-709984
-710051
-710173
-710087
-710056
-710219
-710385
-710492
-710416
-710562
-710611
-710650
-710579
-710593
-710849
-710883
-710968
-711075
-710912
-711018
-711117
-711216
-711204
-711231
-711326
-711413
-711447
-711546
-711443
-711574
-711578
-711636
-711765
-711751
-711830
-711865
-711849
-711975
-711837
-712096
-712211
-712213
-712259
-712195
-712234
-712248
-712416
-712428
-712394
-712588
-712687
-712734
-712794
-712637
-712795
-712886
-712930
-712803
-712828
-713022
-713152
-713151
-713192
-713171
-713322
-713317
-713287
-713427
-713238
-713440
-713597
-713626
-713718
-713662
-713745
-713717
-713756
-713874
-713759
-713865
-713917
-713999
-713866
-714087
-714198
-714215
-714267
-714161
-714319
-714366
-714429
-714399
-714315
-714478
-714433
-714442
-714521
-714309
-714499
-714512
-714677
-714718
-714648
-714652
-714765
-714681
-714729
-714724
-714851
-714961
-714909
-714972
-714894
-714957
-715028
-715010
-715080
-714938
-715064
-715093
-715214
-715255
-715140
-715219
-715181
-715231
-715323
-715184
-715411
-715422
-715418
-715545
-715428
-715500
-715569
-715615
-715588
-715450
-715655
-715750
-715785
-715850
-715709
-715831
-715854
-715842
-715974
-715919
-716069
-716196
-716247
-716307
-716179
-716092
-716309
-716331
-716355
-716310
-716462
-716496
-716611
-716713
-716523
-716685
-716679
-716816
-716849
-716688
-716980
-717036
-717134
-717100
-716980
-717154
-717284
-717356
-717364
-717285
-717492
-717490
-717438
-717490
-717428
-717514
-717485
-717599
-717540
-717350
-717445
-717326
-717311
-717133
-716780
-716738
-716523
-716313
-716019
-715710
-715588
-715200
-714827
-714515
-714037
-713755
-713391
-712949
-712599
-712172
-711873
-711435
-711037
-710620
-710154
-708457
-708224
-707996
-707692
-707525
-707117
-706938
-706750
-706576
-706375
-706182
-706161
-706171
-705970
-705884
-705705
-705771
-705810
-705769
-705818
-705629
-705743
-705873
-705893
-705922
-705933
-705980
-706206
-706223
-706241
-706210
-706423
-706585
-706698
-706704
-706620
-706793
-706855
-706933
-707045
-706973
-707147
-707312
-707458
-707505
-707450
-707596
-707647
-707686
-707520
-707348
-708087
-707955
-707924
-707962
-707749
-707861
-707851
-707842
-707800
-707694
-707737
-707825
-707864
-707846
-707484
-707689
-708104
-707462
-707535
-707325
-707399
-707441
-707373
-707354
-707083
-707243
-707144
-707127
-706969
-706956
-707079
-707008
-707035
-706884
-706892
-706978
-706800
-706964
-706819
-706979
-707054
-707024
-707206
-706995
-707213
-707179
-707369
-707500
-707382
-707543
-707650
-707704
-707778
-707737
-707890
-707980
-708081
-708155
-708094
-708210
-708312
-708452
-708444
-708338
-708458
-708429
-708486
-708594
-708439
-708634
-708696
-708727
-708745
-708701
-708764
-708759
-708747
-708821
-708663
-708794
-708746
-708770
-708895
-708688
-708754
-708684
-708710
-708558
-708520
-708714
-708674
-708556
-708753
-708586
-708613
-708623
-708662
-708653
-708523
-708595
-708520
-708586
-708641
-708498
-708593
-708544
-708619
-708661
-708563
-708681
-708676
-708778
-708787
-708622
-708818
-708882
-708905
-708906
-708785
-708874
-708886
-709556
-709202
-709005
-709084
-709081
-709208
-709293
-709165
-709260
-709356
-709352
-709461
-709318
-709592
-709528
-709606
-709690
-709551
-709710
-709777
-709808
-709898
-709879
-709912
-710079
-710156
-710165
-710052
-710213
-710289
-710382
-710476
-710336
-710414
-710551
-710589
-710577
-710527
-710634
-710748
-710905
-710861
-710749
-710879
-711021
-711033
-711124
-710970
-711165
-711227
-711275
-711194
-711195
-711410
-711393
-711422
-711421
-711498
-711647
-711640
-711833
-711817
-711647
-711925
-711858
-711855
-711936
-711946
-712098
-712115
-712157
-712295
-712165
-712296
-712316
-712448
-712490
-712323
-712436
-712599
-712642
-712681
-712607
-712731
-712729
-712703
-712893
-712849
-712970
-712930
-713045
-713086
-713035
-713056
-713124
-713158
-713306
-713236
-713301
-713344
-713361
-713426
-713326
-713470
-713435
-713294
-713578
-713456
-713545
-713636
-713677
-713748
-713657
-713779
-713823
-713752
-713781
-713696
-713897
-713867
-713899
-714019
-713904
-713833
-714041
-714119
-714196
-714131
-714145
-714141
-714248
-714143
-714161
-714313
-714300
-714376
-714506
-714328
-714511
-714472
-714577
-714555
-714507
-714608
-714620
-714750
-714780
-714640
-714750
-714817
-714854
-714927
-714893
-714961
-714988
-715023
-715119
-715080
-715163
-715089
-715168
-715186
-715135
-715342
-715387
-715377
-715491
-715454
-715557
-715708
-715662
-715833
-715602
-715752
-715801
-715899
-715991
-715965
-716104
-716076
-716143
-716203
-716091
-716298
-716335
-716408
-716549
-716323
-716515
-716595
-716635
-716506
-716573
-716785
-716882
-716955
-716912
-716915
-716969
-717093
-717086
-717136
-716978
-717148
-717197
-717324
-717233
-717070
-717275
-717268
-717262
-717205
-716882
-716916
-716797
-716681
-716497
-716050
-715946
-715722
-715418
-715179
-715351
-714600
-714062
-713669
-713316
-712785
-712439
-712105
-711740
-711304
-710814
-710424
-710091
-709685
-709358
-708873
-708594
-708302
-707953
-707643
-707166
-707067
-706786
-706494
-706314
-706049
-705984
-705803
-705677
-705621
-705376
-705264
-705247
-705252
-705684
-705354
-705271
-705229
-705224
-705239
-705005
-705259
-705446
-705535
-705571
-705421
-705557
-705647
-705777
-705943
-705812
-705931
-705932
-706251
-706265
-706263
-706451
-706486
-706551
-706616
-706532
-706633
-706692
-706870
-706946
-706714
-706835
-706956
-706990
-706969
-706888
-707016
-707085
-707061
-706879
-706917
-706954
-706940
-706872
-706924
-706580
-706683
-706750
-706675
-706702
-706588
-706604
-706569
-706537
-706493
-706278
-706372
-706260
-706332
-706248
-706137
-706145
-706080
-706119
-706004
-706031
-706071
-705920
-706041
-705905
-705956
-706086
-706063
-706142
-706061
-706269
-706312
-706207
-706368
-706216
-706424
-706422
-706489
-706723
-706624
-706779
-706819
-706889
-707010
-707005
-707191
-707197
-707260
-707320
-707213
-707422
-707456
-707585
-707655
-707554
-707646
-707729
-707707
-707775
-707741
-707758
-707806
-707824
-707912
-707712
-707829
-707788
-707901
-707931
-707880
-707868
-707908
-707787
-707864
-708132
-707959
-707881
-707885
-707810
-707664
-707754
-707766
-707628
-707694
-707620
-707708
-707724
-707774
-707732
-707651
-707780
-707735
-707711
-707769
-707647
-707684
-707820
-707793
-707920
-707803
-707769
-707901
-707919
-707874
-707849
-707875
-708026
-708091
-707967
-708165
-708237
-708308
-708249
-708155
-708415
-708359
-708480
-708442
-708356
-708523
-708625
-708674
-708651
-708521
-708643
-708759
-708936
-708968
-708822
-708988
-709047
-709149
-709356
-709229
-709305
-709384
-709533
-709589
-709495
-709580
-709753
-709778
-709755
-709700
-709782
-709823
-709861
-709955
-709979
-710087
-710125
-710258
-710268
-710142
-710223
-710301
-710352
-710391
-710335
-710475
-710606
-711084
-710865
-710715
-710557
-710735
-710726
-710847
-710889
-710938
-710943
-711004
-711017
-711071
-711084
-711125
-711204
-711347
-711310
-711380
-711422
-711457
-711490
-711475
-711596
-711611
-711664
-711780
-711747
-711794
-711790
-711908
-711903
-711907
-711939
-711886
-712020
-712163
-712118
-712220
-712269
-712425
-712384
-712312
-712374
-712402
-712438
-712537
-712420
-712491
-712595
-712723
-712738
-712658
-712671
-712813
-712828
-712889
-712775
-712826
-712964
-712927
-712924
-712916
-713681
-713266
-713118
-713149
-713141
-713265
-713277
-713291
-713353
-713240
-713223
-713403
-713392
-713461
-713298
-713449
-713532
-713565
-713626
-713530
-713668
-713704
-713752
-713746
-713673
-713770
-713829
-713942
-714072
-713912
-713982
-714101
-714093
-714143
-714112
-714217
-714280
-714268
-714247
-714246
-714373
-714432
-714449
-714502
-714438
-714514
-714547
-714615
-714698
-714501
-714612
-714770
-714814
-714895
-714775
-714774
-715120
-715028
-715136
-714980
-715112
-715208
-715232
-715254
-715141
-715266
-715341
-715479
-715538
-715475
-715580
-715605
-715641
-715797
-715700
-715827
-715933
-715997
-716058
-715902
-715955
-716087
-716216
-716262
-716189
-716264
-716317
-716788
-716665
-716438
-716426
-716539
-716695
-716615
-716585
-716617
-716754
-716878
-717030
-716851
-717241
-717021
-717077
-717174
-717127
-717174
-717190
-717319
-717314
-717211
-717190
-717367
-717299
-717301
-717076
-716996
-717000
-716883
-716728
-716500
-716273
-716083
-715833
-715470
-715102
-714806
-714594
-714179
-713954
-713425
-712973
-712697
-712265
-711866
-711426
-710958
-710709
-710315
-709726
-709255
-708903
-708600
-708386
-708016
-707520
-707204
-707050
-706743
-706460
-706086
-705896
-705753
-705600
-705523
-705297
-705129
-705086
-705093
-705052
-704929
-704859
-704874
-704893
-704871
-704723
-704929
-705008
-705119
-705090
-705119
-705125
-705343
-705368
-705441
-705423
-705466
-705621
-705810
-706046
-705997
-705960
-706128
-706241
-706282
-706303
-706427
-706504
-706572
-706694
-706729
-706658
-706816
-706887
-706970
-706823
-706901
-707036
-707007
-707019
-706927
-706984
-706952
-706987
-707060
-706867
-706787
-706964
-706902
-706903
-706745
-706735
-706705
-706666
-706621
-706402
-706410
-706297
-706332
-706418
-706193
-706152
-706078
-706040
-706047
-705969
-705859
-706018
-705963
-706030
-705866
-705899
-705988
-706059
-706016
-705909
-705917
-706092
-706137
-706223
-706119
-706226
-706327
-706323
-706526
-706392
-706434
-706560
-706725
-706741
-706699
-706835
-706931
-707045
-707167
-707119
-707050
-707284
-707377
-707447
-707308
-707386
-707443
-707559
-707549
-707404
-707467
-707573
-707599
-707559
-707400
-707435
-707484
-707575
-707520
-707402
-707447
-707470
-707468
-707442
-707347
-707352
-707401
-707350
-707388
-707234
-707207
-707184
-707238
-707228
-707143
-707035
-707163
-707122
-707198
-707108
-707050
-707074
-707122
-707140
-707076
-706941
-707112
-707223
-707193
-707162
-707116
-707088
-707168
-707224
-707520
-707339
-707360
-707301
-707304
-707276
-707328
-707519
-707486
-707559
-707525
-707534
-707645
-707609
-707739
-707661
-707631
-707896
-707907
-707916
-707862
-707932
-707966
-708097
-708081
-708056
-708114
-708130
-708322
-708252
-708295
-708305
-708404
-708436
-708479
-708428
-708430
-708702
-708682
-708732
-708661
-708699
-708748
-708918
-709091
-708966
-708971
-709035
-709215
-709296
-709192
-709123
-709226
-709322
-709363
-709238
-709220
-709341
-709444
-710052
-709745
-709517
-709630
-709703
-709807
-709708
-709636
-709824
-709931
-709943
-709920
-709875
-709951
-710005
-710187
-710092
-710090
-710134
-710272
-710294
-710215
-710264
-710387
-710381
-710490
-710463
-710338
-710478
-710584
-710675
-710610
-710548
-710699
-710750
-710807
-710738
-710654
-710804
-710853
-710897
-710811
-710814
-710861
-710965
-710995
-710910
-710989
-711053
-711102
-711142
-711045
-711109
-711087
-711205
-711304
-711288
-711243
-711407
-711348
-711387
-711352
-711343
-711396
-711532
-711518
-711470
-711517
-711568
-711605
-711671
-711640
-711591
-711680
-711706
-711807
-711705
-711665
-711766
-711858
-711900
-712032
-711935
-711893
-711997
-712028
-712131
-712107
-712093
-712114
-712155
-712174
-712212
-712190
-712411
-712400
-712454
-712332
-712235
-712363
-712444
-712615
-712447
-712473
-712568
-712649
-712773
-712692
-712610
-712774
-712856
-712847
-712825
-712791
-712985
-713042
-713206
-713065
-712975
-713164
-713292
-713353
-713261
-713238
-713376
-713497
-713526
-713455
-713486
-713502
-713599
-713641
-713411
-713590
-713759
-713915
-713985
-713897
-713921
-714147
-714072
-714135
-714160
-714113
-714257
-714315
-714398
-714451
-714305
-714481
-714577
-714630
-714608
-714767
-714687
-714834
-714784
-714727
-714927
-714918
-715001
-714980
-714884
-715000
-715062
-715096
-715006
-714855
-714870
-714859
-714760
-714600
-714282
-714142
-713972
-713785
-713425
-713101
-712855
-712592
-712236
-711886
-711361
-711188
-710828
-710448
-709944
-709496
-709122
-708856
-708476
-708015
-707442
-707180
-706939
-706481
-706208
-705705
-705453
-705134
-704952
-704568
-704254
-704113
-703961
-703822
-703493
-703231
-703274
-703216
-703158
-702889
-702732
-702869
-702926
-702912
-702910
-702724
-702850
-702832
-702996
-702941
-702949
-703067
-703131
-703344
-703255
-703230
-703385
-703495
-703601
-703574
-703615
-703824
-703899
-704081
-704026
-703964
-704174
-704313
-704410
-704383
-704756
-704666
-704721
-704666
-704687
-704631
-704821
-704760
-704872
-704825
-704662
-704945
-704824
-704858
-704841
-704614
-704685
-704650
-704655
-704505
-704484
-704598
-704436
-704488
-704396
-704277
-704288
-704258
-704093
-704097
-704060
-704059
-703958
-703904
-703757
-703882
-703915
-703828
-703928
-703849
-703864
-703923
-703958
-703847
-703731
-703919
-704013
-704086
-704068
-704071
-704262
-704267
-704358
-704469
-704353
-704512
-704545
-704668
-704689
-704644
-704760
-704937
-704997
-705000
-704898
-705084
-705119
-705199
-705146
-705159
-705347
-705206
-705329
-705284
-705149
-705300
-705320
-705356
-705224
-705151
-705298
-705250
-705321
-705228
-705164
-705127
-705237
-705097
-705054
-704979
-705035
-705022
-705062
-704967
-704854
-704887
-704821
-704883
-704752
-704688
-704745
-704864
-704910
-704772
-704634
-704708
-704820
-704732
-704632
-704534
-704575
-704666
-704745
-704635
-704645
-704772
-704740
-704825
-704746
-704702
-704745
-704835
-704916
-704938
-704783
-704935
-704966
-705107
-704999
-705034
-705198
-705225
-705340
-705271
-705285
-705341
-705378
-705551
-705540
-705449
-705634
-705733
-705751
-705807
-705622
-705829
-705842
-706020
-705933
-705679
-706040
-706083
-706182
-706206
-706179
-706280
-706324
-706349
-706345
-706360
-706430
-706603
-706615
-706735
-706606
-706638
-706681
-706828
-706836
-706743
-706912
-706908
-706992
-707054
-706961
-707041
-707047
-707115
-707116
-707162
-707298
-707375
-707390
-707345
-707294
-707383
-707513
-707528
-707596
-707464
-707590
-707665
-707750
-707821
-707796
-707810
-707850
-707871
-707913
-707806
-707962
-708031
-708115
-708146
-708084
-708128
-708139
-708181
-708221
-708239
-708383
-708408
-708288
-708386
-708401
-708489
-708538
-708619
-708574
-708437
-708653
-708598
-708720
-708694
-708639
-708810
-708715
-708845
-708846
-708800
-708902
-708975
-709052
-708954
-708859
-709004
-709096
-709153
-709127
-708990
-709197
-709242
-709197
-709209
-709079
-709241
-709265
-709387
-709357
-709365
-709492
-709546
-709720
-709517
-709490
-709551
-709350
-709554
-709654
-709647
-709774
-709705
-709766
-709782
-709702
-709789
-709941
-709923
-709956
-709934
-710046
-710034
-710173
-710165
-710050
-710101
-710257
-710351
-710321
-710194
-710397
-710308
-710429
-710472
-710414
-710533
-710494
-710610
-710593
-710469
-710525
-710626
-710653
-710662
-710690
-710770
-710833
-710929
-710940
-711192
-711076
-711081
-711185
-711083
-711076
-711233
-711218
-711279
-711379
-711238
-711477
-711422
-711595
-711583
-711506
-711599
-711696
-711701
-711736
-711752
-711832
-711905
-712022
-712004
-711934
-712082
-712172
-712188
-712284
-712244
-712411
-712431
-712404
-712436
-712434
-712639
-712594
-712745
-712769
-712735
-712854
-712970
-712998
-713066
-712940
-712962
-713058
-713250
-713254
-713138
-713324
-713332
-713460
-713458
-713283
-713411
-713309
-713317
-713261
-713029
-712869
-712730
-712543
-712161
-712026
-711777
-711372
-711151
-710642
-710382
-710008
-709745
-709277
-708781
-708403
-707943
-707587
-707174
-706686
-706415
-705922
-705583
-705215
-704632
-704276
-703977
-704019
-703097
-702655
-702614
-702330
-702095
-701743
-701446
-701306
-701103
-701064
-700889
-700607
-700635
-700475
-700410
-700136
-700204
-700201
-700281
-700250
-700170
-700235
-700245
-700370
-700390
-700326
-700445
-700536
-700707
-700762
-700760
-700887
-700944
-701087
-701106
-701059
-701261
-701231
-701234
-701409
-701334
-701504
-701508
-701571
-701590
-701518
-701611
-701713
-701671
-701691
-701580
-701648
-701715
-701701
-701729
-701606
-701528
-701552
-701555
-701502
-701316
-701440
-701274
-701204
-701192
-700988
-701026
-700974
-700941
-700817
-700569
-700601
-700748
-700700
-700498
-700360
-700302
-700270
-700232
-700208
-700071
-700139
-700078
-700077
-699960
-699824
-699958
-699934
-700006
-700014
-699898
-700000
-700024
-700116
-700212
-700131
-700180
-700181
-700256
-700373
-700311
-700497
-700518
-700648
-700746
-700726
-700848
-701017
-701075
-701124
-701061
-701264
-701265
-701358
-701359
-701298
-701545
-701465
-701580
-701662
-701597
-701692
-701754
-701773
-701659
-701764
-701794
-701730
-701792
-701657
-701701
-701720
-701769
-701693
-701562
-701661
-701637
-701632
-701565
-701519
-701567
-701515
-701517
-701612
-701367
-701534
-701496
-701466
-701509
-701300
-701281
-701384
-701443
-701413
-701275
-701394
-701471
-701392
-701367
-701236
-701306
-701441
-701525
-701587
-701348
-701442
-701551
-701546
-701623
-701531
-701668
-701607
-701739
-701681
-701607
-701897
-701840
-701997
-701993
-701953
-702113
-702051
-702122
-702271
-702105
-702241
-702271
-702368
-702297
-702278
-702478
-702549
-702516
-702608
-702572
-702662
-702658
-702730
-702806
-702728
-702874
-702941
-703044
-703071
-703052
-703129
-703180
-703292
-703311
-703147
-703376
-703503
-703499
-703548
-703422
-703601
-703550
-703614
-703737
-703702
-703814
-703903
-703931
-703884
-703866
-704002
-703996
-704103
-704153
-704026
-704227
-704242
-704261
-704385
-704318
-704506
-704405
-704422
-704517
-704501
-704656
-704745
-704801
-704810
-704750
-704914
-704944
-704938
-705044
-704908
-705098
-705220
-705219
-705338
-705224
-705271
-705298
-705405
-705479
-705422
-705494
-705619
-705614
-705670
-705608
-705732
-705699
-705689
-705802
-705681
-705917
-705964
-705950
-705958
-705821
-706050
-706019
-706103
-706175
-706029
-706234
-706281
-706327
-706378
-706260
-706243
-706414
-706448
-706493
-706297
-706529
-706468
-706550
-706626
-706438
-706645
-706661
-706669
-706753
-706582
-706754
-706832
-706869
-706893
-706774
-706961
-707048
-707020
-707091
-706990
-707106
-707168
-707150
-707214
-707215
-707330
-707298
-707406
-707407
-707287
-707439
-707599
-707585
-707620
-707498
-707630
-707636
-707690
-707760
-707783
-707807
-707961
-707924
-707970
-707943
-708049
-708151
-708146
-708173
-708140
-708251
-708415
-708372
-708441
-708393
-708439
-708576
-708533
-708569
-708518
-708721
-708761
-708845
-708872
-708799
-708926
-708915
-708941
-708932
-708833
-708974
-709054
-709210
-709161
-709067
-709323
-709302
-709342
-709407
-709295
-709278
-709496
-709550
-709607
-709533
-709711
-709680
-709831
-709818
-709708
-709811
-709964
-709962
-710060
-709980
-710065
-710067
-710152
-710249
-710254
-710359
-710336
-710373
-710456
-710292
-710449
-710540
-710706
-710683
-710609
-710744
-710848
-710865
-710915
-710832
-711014
-711040
-711037
-711023
-710948
-711165
-711091
-711194
-711278
-711057
-711167
-711243
-711204
-711172
-711015
-711142
-711104
-711004
-711008
-710734
-710655
-710368
-710172
-709930
-709597
-709360
-709124
-708767
-708389
-707874
-707537
-707091
-706691
-706313
-705753
-705361
-705005
-704493
-704142
-703536
-703111
-702670
-702163
-701770
-701203
-700947
-700626
-700240
-699947
-699465
-699273
-699081
-698784
-698502
-698138
-698037
-697922
-697753
-697676
-697421
-697399
-697357
-697254
-697235
-697129
-697276
-697313
-697331
-697375
-697317
-697381
-697412
-697580
-697640
-697648
-697742
-697746
-697915
-698115
-697992
-698137
-698271
-698371
-698483
-698347
-698385
-698659
-698825
-698799
-698702
-698956
-699043
-698987
-699155
-699089
-699199
-699228
-699324
-699353
-699204
-699348
-699340
-699366
-699380
-699128
-699236
-699269
-699213
-699181
-698925
-699078
-698994
-698935
-698830
-698627
-698750
-698610
-698551
-698484
-698365
-698328
-698314
-698177
-698158
-697919
-697968
-697882
-697825
-697797
-697629
-697723
-697666
-697692
-697591
-697349
-697540
-697558
-697460
-697525
-697346
-697471
-697512
-697519
-697591
-697612
-697698
-697673
-697723
-697747
-697708
-697803
-697866
-698022
-698010
-697915
-698110
-698156
-698155
-698296
-698092
-698277
-698318
-698397
-698487
-698431
-698506
-698524
-698572
-698549
-698585
-698727
-698599
-698557
-698429
-698594
-698500
-698361
-698395
-698359
-698386
-698427
-698436
-698362
-698330
-698263
-698372
-698273
-698233
-698168
-698275
-698311
-698241
-698211
-698085
-698159
-698092
-698149
-698177
-698124
-698219
-698307
-698240
-698351
-698201
-698339
-698307
-698327
-698318
-698160
-698373
-698485
-698496
-698596
-698293
-698427
-698492
-698647
-698678
-698594
-698746
-698706
-698764
-698926
-698666
-698865
-698897
-698935
-698992
-698919
-699012
-699077
-699040
-699255
-699133
-699323
-699331
-699358
-699438
-699269
-699464
-699520
-699554
-699641
-699408
-699611
-699668
-699765
-699932
-699775
-699941
-699984
-700109
-700126
-700088
-700119
-700214
-700231
-700260
-700121
-700341
-700318
-700357
-700513
-700343
-700457
-700498
-700541
-700561
-700507
-700692
-700652
-700837
-700826
-700741
-700905
-700930
-700985
-701036
-700940
-701054
-701085
-701132
-701189
-701087
-701239
-701282
-701399
-701423
-701382
-701521
-701601
-701590
-701653
-701456
-701707
-701720
-701749
-701783
-701739
-701918
-701890
-702011
-702043
-701900
-702046
-702119
-702134
-702246
-702166
-702315
-702332
-702368
-702470
-702307
-702371
-702454
-702665
-702618
-702515
-702663
-702783
-702739
-702840
-702751
-702906
-702912
-703033
-702873
-702889
-703034
-703111
-703117
-703250
-703107
-703295
-703297
-703341
-703420
-703313
-703397
-703563
-703670
-703634
-703410
-703675
-703782
-703843
-703904
-703757
-703990
-704004
-704005
-704156
-703944
-704105
-704166
-704251
-704313
-704183
-704301
-704394
-704511
-704522
-704440
-704552
-704588
-704632
-704624
-704610
-704767
-704817
-704800
-704938
-704793
-704922
-704980
-705119
-705083
-704946
-705081
-705156
-705193
-705353
-705262
-705454
-705514
-705558
-705661
-705474
-705659
-705699
-705739
-705792
-705729
-705941
-705884
-705955
-705996
-705969
-706162
-706168
-706174
-706364
-706235
-706353
-706450
-706484
-706583
-706513
-706654
-706725
-706786
-706860
-706756
-707033
-706990
-706973
-707158
-706903
-707109
-707294
-707350
-707382
-707241
-707435
-707476
-707565
-707638
-707610
-707686
-707693
-707874
-707985
-707815
-707936
-708014
-708067
-708209
-708139
-708209
-708345
-708455
-708329
-708260
-708477
-708644
-708651
-708663
-708513
-708603
-708686
-708845
-708888
-708702
-708824
-708881
-708772
-708759
-708637
-708648
-708458
-708357
-708191
-707925
-707688
-707346
-707211
-706939
-706751
-706326
-705872
-705537
-705102
-704606
-704328
-703889
-703550
-703146
-702562
-702273
-701798
-701344
-701067
-700416
-700176
-699796
-699327
-699096
-698630
-698489
-698127
-697825
-697639
-697215
-697125
-697038
-696826
-696599
-696391
-696328
-696205
-696313
-696128
-695937
-696067
-696039
-696041
-696050
-695879
-696139
-696110
-696180
-696243
-696195
-696308
-696412
-696469
-696616
-696485
-696641
-696764
-696898
-696894
-696765
-696931
-697077
-697089
-697268
-697203
-697263
-697307
-697405
-697469
-697355
-697500
-697453
-697497
-697456
-697352
-697561
-697517
-697532
-697534
-697340
-697412
-697372
-697393
-697371
-697181
-697250
-697145
-697110
-697092
-696929
-696699
-696835
-696697
-696762
-696539
-696625
-696508
-696396
-696403
-696170
-696173
-696204
-696048
-696065
-695840
-695906
-695958
-695954
-695929
-695728
-695800
-695836
-695811
-695871
-695615
-695718
-695748
-695883
-695900
-695850
-695784
-696393
-696276
-696258
-696013
-696160
-696264
-696368
-696429
-696476
-696502
-696705
-696843
-696829
-696794
-696960
-697132
-697094
-697234
-697119
-697239
-697353
-697380
-697276
-697254
-697436
-697500
-697596
-697672
-697511
-697594
-697525
-697581
-697703
-697631
-697617
-697666
-697723
-697720
-697508
-697639
-697484
-697540
-697446
-697344
-697526
-697528
-697587
-697573
-697406
-697529
-697519
-697490
-697414
-697251
-697385
-697340
-697321
-697436
-697103
-697322
-697392
-697354
-697351
-697247
-697389
-697529
-697511
-697521
-697334
-697564
-697574
-697631
-697753
-697528
-697689
-697793
-697809
-697823
-697771
-697905
-697908
-697980
-698038
-698002
-698130
-698149
-698241
-698301
-698232
-698329
-698372
-698464
-698436
-698318
-698580
-698582
-698586
-698689
-698634
-698676
-698740
-698816
-698891
-698851
-699041
-699057
-699138
-699140
-699112
-699235
-699286
-699317
-699355
-699323
-699460
-699448
-699628
-699678
-699587
-699707
-699754
-699846
-699818
-699678
-699930
-700084
-700048
-700203
-699839
-700036
-700173
-700303
-700334
-700062
-700318
-700471
-700486
-700577
-700456
-700647
-700756
-700773
-700962
-700987
-701121
-701015
-701157
-701255
-701323
-701371
-701296
-701369
-701880
-701678
-701624
-701518
-701666
-701730
-701766
-701878
-701691
-701763
-701904
-701932
-701979
-701845
-702057
-702070
-702108
-702157
-702132
-702260
-702151
-702294
-702439
-702130
-702383
-702447
-702524
-702536
-702509
-702658
-702706
-702755
-702797
-702635
-702716
-702746
-702838
-702926
-702868
-702881
-702741
-703378
-703236
-703062
-703164
-703168
-703069
-703174
-703220
-703286
-703326
-703405
-703557
-703323
-703391
-703506
-703297
-703576
-703581
-703731
-703760
-703753
-703863
-703627
-703740
-703700
-703331
-703821
-703855
-704033
-704171
-704069
-704200
-704216
-704374
-704314
-704381
-704435
-704887
-704701
-704652
-704702
-704756
-704681
-704771
-704831
-704839
-704932
-704801
-704927
-704955
-705044
-705101
-705111
-705186
-705255
-705081
-705293
-705287
-705395
-705423
-705332
-705481
-705473
-705590
-706092
-705886
-705804
-705837
-705871
-705870
-706042
-706103
-705983
-706104
-706205
-706251
-706264
-706012
-706297
-706428
-706573
-706607
-706539
-706682
-706794
-706857
-706832
-706849
-706968
-707126
-707149
-707119
-707031
-707248
-707280
-707340
-707452
-707421
-707484
-707621
-707705
-707809
-707644
-707749
-707849
-708011
-708074
-707807
-708025
-708112
-708159
-708071
-708079
-708377
-708338
-708819
-708591
-708459
-708526
-708593
-708424
-708614
-708255
-708507
-708450
-708577
-708422
-708020
-708057
-707881
-707723
-707487
-707132
-706943
-706712
-706404
-706131
-705315
-705357
-705080
-704618
-704306
-703822
-703492
-703140
-702690
-702276
-701800
-701511
-701159
-700740
-700521
-699941
-699695
-699491
-699195
-698922
-698406
-698265
-698030
-697908
-698137
-697355
-697323
-697252
-697130
-697475
-697016
-696891
-696869
-696823
-696777
-697013
-696679
-696710
-696566
-696738
-696514
-696858
-697051
-697082
-697027
-697111
-697210
-697345
-697436
-697557
-697550
-697635
-697716
-697902
-698078
-697938
-698147
-698239
-698355
-698448
-698289
-698511
-698574
-698581
-698612
-698545
-699191
-698946
-698775
-698760
-698672
-698768
-698874
-698920
-698908
-698650
-698802
-698820
-698796
-698711
-698583
-698684
-698758
-698582
-698569
-698400
-698001
-698311
-698319
-698280
-698176
-698256
-698234
-698211
-698109
-697951
-697988
-697926
-697934
-697982
-697809
-697788
-697819
-697894
-697941
-697937
-697894
-698161
-698005
-698065
-697898
-698070
-698126
-698300
-698391
-698168
-698426
-698432
-698523
-698607
-698563
-698806
-698937
-698983
-699017
-699657
-699257
-699278
-699327
-699452
-699423
-699515
-699590
-699605
-699714
-699682
-699772
-699770
-699831
-699813
-699712
-699886
-699878
-699913
-699878
-699875
-699884
-699983
-699888
-699950
-699877
-699840
-699832
-699918
-699941
-699778
-699809
-699864
-699930
-699865
-699768
-699788
-699855
-699876
-699785
-699748
-699701
-699772
-699865
-699880
-699780
-699781
-699839
-699927
-699967
-699804
-699841
-699906
-699908
-699999
-699977
-700084
-700137
-700168
-700161
-700078
-700187
-700221
-700314
-700450
-700326
-700481
-700502
-700557
-700709
-700538
-700701
-700751
-700820
-700891
-700723
-700954
-700990
-701110
-701094
-701098
-701224
-701242
-701406
-701517
-701328
-701504
-701579
-701603
-701707
-701666
-701749
-701868
-701957
-701958
-701909
-702044
-702084
-702161
-702190
-702135
-702273
-702270
-702406
-702409
-702420
-702470
-702608
-702645
-702706
-702584
-702730
-702864
-702908
-703007
-702873
-702969
-703070
-703182
-703251
-703107
-703188
-703380
-703448
-703435
-703431
-703494
-703626
-703693
-703802
-703702
-703853
-703920
-703958
-704021
-703871
-703994
-704038
-704193
-704076
-704233
-704275
-704405
-704491
-704469
-704497
-704604
-704672
-704763
-704610
-704715
-704904
-704838
-704928
-704843
-704908
-705061
-705036
-705169
-705146
-705215
-705274
-705255
-705389
-705302
-705424
-705408
-705528
-705577
-705440
-705538
-705573
-705627
-705696
-705691
-705818
-705878
-705935
-705978
-705726
-705901
-705909
-705995
-706044
-706022
-706145
-706283
-706328
-706312
-706107
-706297
-706421
-706367
-706428
-706317
-706464
-706647
-706740
-706767
-706621
-706685
-706823
-706936
-706908
-706748
-706903
-707003
-707095
-707119
-707052
-707072
-707242
-707310
-707322
-707297
-707300
-707508
-707509
-707549
-707518
-707522
-707690
-707804
-707779
-707682
-707873
-707848
-707893
-708014
-707851
-708104
-708088
-708170
-708162
-708129
-708267
-708388
-708432
-708499
-708334
-708525
-708593
-708814
-708791
-708900
-708991
-708892
-709012
-709013
-709219
-709182
-709188
-709315
-709269
-709437
-709520
-709541
-709519
-709581
-709689
-709753
-709701
-709818
-709854
-709996
-709975
-709988
-710034
-710115
-710204
-710331
-710275
-710336
-710486
-710574
-710559
-710607
-710575
-710723
-710853
-710826
-710757
-710861
-711049
-711082
-711137
-711103
-711176
-711291
-711345
-711414
-711316
-711509
-711642
-711601
-711677
-711501
-711565
-711642
-711549
-711568
-711422
-711377
-711301
-711216
-710912
-710606
-710499
-710252
-709943
-709741
-709301
-708990
-708744
-708483
-708119
-707605
-707220
-706899
-706621
-706186
-705679
-705298
-705073
-704750
-704299
-703811
-703523
-703201
-702880
-702734
-702237
-702055
-701920
-701628
-701400
-701087
-700902
-700868
-700744
-700724
-700376
-700378
-700290
-700317
-700272
-700144
-700194
-700274
-700296
-700246
-700314
-700388
-700509
-700694
-700781
-700661
-700757
-700846
-700908
-701057
-700968
-701143
-701273
-701418
-701618
-701534
-701749
-701782
-701850
-701937
-701890
-702058
-702216
-702270
-702474
-702360
-702446
-702521
-702642
-702690
-702610
-702724
-702759
-702797
-702780
-702691
-702764
-702793
-702861
-702813
-702682
-702851
-702789
-702814
-702731
-702545
-702537
-702631
-702561
-702585
-702421
-702478
-702458
-702350
-702347
-702252
-702262
-702282
-702221
-702300
-702180
-702148
-702195
-702234
-702321
-702106
-702230
-702194
-702297
-702389
-702247
-702335
-702499
-702577
-702687
-702658
-702680
-702828
-702969
-703026
-703002
-703220
-703209
-703399
-703313
-703335
-703561
-703599
-703722
-703664
-703756
-703828
-703926
-703939
-703920
-703950
-704092
-704070
-704091
-704012
-703983
-704097
-704015
-704102
-703917
-704109
-704094
-704193
-704161
-703968
-704075
-704012
-704101
-704055
-703898
-703927
-703924
-703879
-703900
-703780
-703933
-703928
-703916
-703978
-703804
-703754
-703873
-703857
-703910
-703756
-703747
-703850
-703847
-703905
-703832
-703928
-703995
-704010
-704063
-703868
-704012
-704071
-704160
-704177
-704178
-704228
-704362
-704392
-704366
-704259
-704419
-704578
-704555
-704633
-704579
-704688
-704751
-704834
-704895
-704830
-705001
-705102
-705161
-705267
-705099
-705186
-705368
-705407
-705455
-705372
-705624
-705622
-705670
-705731
-705665
-705734
-705914
-705934
-706076
-705972
-706076
-706090
-706226
-706367
-706237
-706366
-706527
-706567
-706533
-706495
-706593
-706641
-706752
-706876
-706784
-706894
-706962
-706964
-707055
-706967
-707053
-707180
-707221
-707275
-707175
-707177
-707280
-707458
-707450
-707501
-707521
-707697
-707780
-707847
-707657
-707769
-707825
-707970
-707997
-707996
-708012
-708187
-708313
-708375
-708239
-708231
-708363
-708448
-708528
-708462
-708558
-708595
-708627
-708745
-708607
-708732
-708716
-708907
-708985
-708819
-708866
-708985
-709073
-709131
-709100
-709111
-709226
-709306
-709393
-709264
-709302
-709496
-709488
-709517
-709506
-709473
-709651
-709698
-709735
-709606
-709618
-709768
-709866
-709906
-709755
-709841
-709929
-709916
-710035
-709894
-710035
-710088
-710199
-710132
-710171
-710253
-710286
-710278
-710209
-710336
-710349
-710455
-710472
-710404
-710487
-710565
-710573
-710605
-710612
-710634
-710782
-710826
-710758
-710701
-710713
-710800
-710903
-710946
-710941
-711015
-711052
-711059
-711206
-711271
-711240
-711264
-711307
-711371
-711343
-711463
-711574
-711685
-711662
-711603
-711724
-711850
-711800
-711911
-711833
-711999
-712121
-712164
-712183
-712111
-712183
-712388
-712412
-712461
-712476
-712430
-712553
-712686
-712775
-712735
-712710
-712799
-712920
-713041
-712976
-712963
-713054
-713125
-713247
-713215
-713307
-713300
-713422
-713528
-713352
-713520
-713539
-713622
-713601
-713393
-713362
-713366
-713287
-713304
-713025
-712770
-712755
-712690
-712461
-712067
-711799
-711663
-711330
-711166
-710613
-710333
-710170
-709748
-709460
-708939
-708657
-708356
-708086
-707654
-707234
-706945
-706611
-706285
-706074
-705655
-705378
-705176
-704930
-704717
-704366
-704233
-704045
-703848
-703911
-703603
-703428
-703466
-703287
-703355
-703140
-703130
-703070
-703228
-703286
-703087
-703225
-703259
-703292
-703319
-703297
-703357
-703484
-703540
-703658
-703612
-703800
-703846
-703968
-704085
-704077
-704170
-704296
-704476
-704524
-704518
-704525
-704733
-704801
-704818
-704865
-704950
-705142
-705147
-705152
-705155
-705179
-705200
-705321
-705378
-705280
-705343
-705455
-705483
-705498
-705304
-705366
-705418
-705313
-705401
-705207
-705191
-705210
-705231
-705193
-705135
-705007
-705099
-705050
-704972
-704787
-704804
-704803
-704880
-704849
-704654
-704573
-704643
-704677
-704838
-704704
-704686
-704841
-704767
-704793
-704686
-704740
-704908
-704988
-705078
-705086
-705128
-705355
-705322
-705415
-705408
-705389
-705604
-705685
-705863
-705816
-705883
-706048
-706105
-706201
-706189
-706155
-706247
-706419
-706455
-706405
-706327
-706604
-706668
-706714
-706678
-706623
-706558
-706621
-706717
-706681
-706584
-706612
-706617
-706611
-706518
-706510
-706407
-706545
-706510
-706450
-706359
-706333
-706407
-706397
-706313
-706279
-706185
-706260
-706383
-706305
-706178
-706240
-706202
-706300
-706323
-706253
-706231
-706342
-706277
-706366
-706322
-706338
-706374
-706474
-706530
-706394
-706425
-706577
-706575
-706726
-706654
-706621
-706610
-706817
-706894
-706760
-706858
-706945
-707064
-707134
-707129
-707090
-707277
-707270
-707364
-707320
-707439
-707499
-707515
-707648
-707659
-707745
-707773
-707797
-707932
-707951
-707913
-708023
-708060
-708182
-708174
-708183
-708309
-708396
-708462
-708428
-708411
-708473
-708652
-708766
-708740
-708791
-708886
-708825
-708959
-708895
-708848
-709041
-709105
-709135
-709103
-709086
-709292
-709291
-709324
-709279
-709323
-709436
-709557
-709680
-709599
-709567
-709627
-709710
-709873
-709734
-709919
-709927
-709992
-710091
-710010
-710152
-710236
-710218
-710366
-710335
-710268
-710443
-710529
-710604
-710483
-710548
-710636
-710749
-710750
-710744
-710816
-710907
-710961
-711045
-711770
-711268
-711184
-711154
-711195
-711125
-711204
-711364
-711442
-711568
-711375
-711352
-711482
-711559
-711560
-711939
-711765
-711831
-711735
-711730
-711768
-711819
-711872
-711936
-711943
-711869
-711866
-711990
-712103
-712201
-712046
-712071
-712117
-712218
-712114
-712141
-712150
-712364
-712421
-712432
-712364
-712325
-712481
-712487
-712689
-712585
-712626
-712771
-712823
-712732
-712755
-712766
-712879
-712961
-713014
-713011
-712982
-713175
-713180
-713248
-713189
-713220
-713434
-713502
-713531
-713537
-713534
-713698
-713758
-713748
-713680
-713657
-713906
-713977
-714090
-714099
-714104
-714158
-714246
-714279
-714240
-714275
-714355
-714532
-714604
-714550
-714514
-714683
-714716
-714868
-714836
-714799
-714875
-715046
-715036
-715039
-714955
-715108
-715142
-715273
-715254
-715153
-715309
-715898
-715539
-715321
-715273
-715383
-715337
-715311
-715142
-714979
-715014
-714919
-714795
-714413
-714157
-714061
-713809
-713537
-713187
-712739
-712573
-712233
-711887
-711484
-711131
-710758
-710433
-710057
-709632
-709156
-708963
-708635
-708352
-707884
-707488
-707390
-707081
-706896
-706436
-706178
-705636
-705327
-705205
-705002
-705008
-704977
-704798
-704640
-704678
-704638
-704578
-704533
-704541
-704569
-704644
-704669
-704513
-704519
-704706
-704807
-704825
-704871
-704741
-704776
-704978
-705090
-705110
-705173
-705248
-705380
-705444
-705373
-705442
-705613
-705742
-705810
-705805
-705638
-705687
-705767
-705832
-705762
-705675
-705785
-705761
-705860
-705724
-705692
-705664
-705690
-705675
-705592
-705423
-705512
-705433
-705507
-705349
-705200
-705244
-705184
-705188
-704976
-704846
-704844
-704771
-704721
-704576
-704447
-704421
-704340
-704464
-704222
-704136
-704133
-704146
-704097
-703958
-703905
-703933
-703877
-703889
-703820
-703803
-703860
-703885
-703881
-703804
-703736
-703941
-703999
-704116
-704081
-704052
-704160
-704361
-704411
-704469
-704414
-704470
-704728
-704832
-704784
-704798
-704996
-705171
-705305
-705230
-705291
-705434
-705569
-705575
-705561
-705648
-705793
-705965
-705960
-705997
-706004
-706150
-706124
-706154
-706227
-706150
-706273
-706316
-706428
-706313
-706277
-706429
-706462
-706534
-706531
-706525
-706594
-706554
-706660
-706632
-706615
-706623
-706672
-706758
-706430
-706892
-706806
-706788
-706871
-706730
-706663
-706781
-706896
-706921
-706935
-706804
-706929
-707011
-707138
-706967
-706929
-707014
-707110
-707141
-707133
-707077
-707266
-707366
-707303
-707263
-707219
-707255
-707381
-707283
-707412
-707401
-707567
-707668
-707671
-707744
-707617
-707760
-707863
-707910
-707841
-707862
-708038
-708078
-708123
-707915
-708034
-708274
-708302
-708421
-708384
-708402
-708440
-708517
-708646
-708618
-708630
-708778
-708817
-708910
-708899
-708597
-708824
-708950
-709289
-709086
-708903
-709001
-709109
-709296
-709238
-709199
-709364
-709255
-709345
-709346
-709345
-709496
-709574
-709542
-709400
-709571
-709682
-709680
-709705
-709548
-709629
-709706
-709842
-709783
-709759
-709803
-709827
-709919
-709875
-709778
-709889
-709809
-709910
-709879
-709864
-709921
-709976
-710055
-710061
-709976
-710031
-710083
-710092
-710097
-709873
-710079
-710291
-710325
-710250
-710260
-710331
-710405
-710443
-710508
-710388
-710526
-710647
-710692
-710654
-710643
-710726
-710815
-710849
-710903
-710802
-710874
-711002
-711096
-711067
-710955
-711173
-711140
-711178
-711236
-711179
-711281
-711382
-711377
-711353
-711360
-711439
-711433
-711554
-711497
-711491
-711618
-711662
-711707
-711689
-711694
-711821
-711890
-711993
-711841
-711796
-711953
-712010
-712038
-711963
-711987
-712159
-712232
-712261
-712272
-712137
-712267
-712356
-712935
-712637
-712387
-712150
-712483
-712551
-712626
-712507
-712627
-712770
-712877
-712794
-712724
-712884
-712868
-713048
-712994
-712891
-713397
-713312
-713390
-713274
-713190
-713318
-713515
-713536
-713527
-713488
-713585
-713703
-713852
-713772
-713709
-713897
-713918
-714097
-714256
-714387
-714498
-714585
-714660
-714563
-714555
-714723
-714865
-714970
-714928
-715079
-715106
-715151
-715090
-715035
-715158
-715296
-715332
-715215
-715188
-715202
-715191
-715279
-715060
-714955
-714885
-714827
-714604
-714262
-713977
-713777
-713640
-713432
-713009
-712588
-712351
-712021
-711705
-711308
-710764
-710530
-710146
-709856
-709445
-708874
-708686
-708455
-708125
-707665
-707172
-706964
-706781
-706449
-706196
-705848
-705731
-705398
-705338
-705199
-705007
-704999
-704835
-704844
-704707
-704527
-704535
-704531
-704637
-704549
-704442
-704574
-704592
-704689
-704567
-704590
-704720
-704844
-704900
-704920
-704878
-705137
-705222
-705359
-705352
-705342
-705493
-705549
-705670
-705727
-705624
-705716
-705851
-705921
-705890
-705918
-705979
-705996
-706159
-706148
-705983
-706193
-706201
-706261
-706511
-706126
-706193
-706252
-706212
-706185
-705943
-706013
-706085
-706141
-706051
-705895
-705885
-705899
-705809
-705730
-705647
-705622
-705668
-705648
-705504
-705387
-705439
-705390
-705501
-705442
-705195
-705332
-705189
-705339
-705292
-705433
-705334
-705310
-705275
-705274
-705164
-705250
-705278
-705357
-705315
-705378
-705471
-705541
-705666
-705548
-705606
-705727
-705903
-705967
-705923
-706006
-706179
-706302
-706378
-706346
-706341
-706532
-706628
-706783
-706785
-706800
-706917
-706913
-707063
-707044
-706924
-707105
-707101
-707241
-706979
-706992
-707201
-707231
-707229
-707235
-707097
-707173
-707291
-707304
-707328
-707115
-707172
-707243
-707253
-707248
-707026
-707110
-707084
-707225
-707168
-707061
-707082
-707151
-707138
-707199
-706980
-707028
-707121
-707198
-707123
-707018
-707246
-707330
-707304
-707320
-707156
-707259
-707252
-707442
-707351
-707278
-707457
-707515
-707604
-707588
-707552
-707665
-707789
-707815
-707807
-707761
-707892
-707986
-708074
-708091
-707899
-708108
-708284
-708291
-708257
-708245
-708372
-708435
-708560
-708590
-708535
-708704
-708746
-708795
-708784
-709040
-708919
-709004
-709139
-709142
-709073
-709173
-709154
-709299
-709326
-709289
-709385
-709527
-709596
-709643
-709502
-709708
-709670
-709873
-709757
-709650
-709890
-709991
-710040
-710019
-709927
-710043
-710177
-710223
-710155
-710182
-710346
-710439
-710513
-710424
-710418
-710514
-710530
-710602
-710654
-710611
-710658
-710706
-710801
-710713
-710735
-710812
-710855
-710939
-711065
-710921
-711043
-711113
-711230
-711241
-711176
-711229
-711339
-711420
-711492
-711377
-711502
-711599
-711660
-711664
-711478
-711728
-711789
-711798
-711766
-711680
-711781
-711834
-712026
-712018
-711909
-712077
-712090
-712180
-712118
-712012
-712113
-712257
-712309
-712269
-712193
-712390
-712353
-712381
-712472
-712314
-712465
-712450
-712581
-712468
-712394
-712569
-712514
-712577
-712596
-712487
-712561
-712609
-712712
-712708
-712596
-712759
-712800
-712861
-712835
-712751
-712834
-712941
-712952
-712925
-712820
-713055
-713047
-713108
-713097
-713049
-713202
-713190
-713356
-713360
-713258
-713331
-713475
-713533
-713592
-713466
-713698
-713717
-713785
-713735
-713628
-713831
-713965
-713937
-714029
-713885
-714073
-714186
-714257
-714355
-714329
-714483
-714421
-714538
-714527
-714511
-714626
-714715
-714794
-714863
-714824
-714924
-714950
-714821
-715006
-715086
-715251
-715341
-715400
-715423
-715351
-716049
-715749
-715742
-715662
-715643
-715771
-715828
-715968
-715985
-715973
-716074
-716070
-716242
-716109
-716123
-716348
-716457
-716516
-716602
-716478
-716665
-716613
-716752
-716730
-716773
-716902
-716973
-717125
-717145
-717003
-717193
-717308
-717434
-717274
-717437
-717496
-717687
-717576
-717541
-717670
-717718
-717764
-717824
-717846
-717974
-717981
-718103
-718069
-717853
-718034
-718117
-718113
-718103
-717800
-717747
-717822
-717735
-717488
-717263
-717058
-716835
-716627
-716424
-716357
-715842
-715560
-715244
-714826
-714442
-714097
-713710
-713393
-713108
-712555
-712179
-711765
-711445
-711128
-710567
-710284
-709937
-709678
-709359
-709019
-708712
-708956
-708378
-708117
-707767
-707694
-707554
-707456
-707374
-707128
-707134
-707107
-707090
-706986
-706931
-706921
-706978
-707112
-707081
-706979
-707036
-707118
-707242
-707278
-707214
-707448
-707540
-707689
-707745
-707672
-707883
-708025
-708107
-708629
-708272
-708358
-708474
-708533
-708631
-708585
-708772
-708853
-708946
-708901
-708845
-709049
-709069
-709148
-709185
-709078
-709239
-709197
-709244
-709305
-709063
-709131
-709256
-709195
-709209
-709008
-709127
-709069
-709085
-709045
-708929
-709049
-709015
-708908
-708869
-708803
-708764
-708740
-708717
-708697
-708518
-708471
-708559
-708547
-708453
-708282
-708394
-708347
-708437
-708494
-708315
-708424
-708436
-708498
-708597
-708547
-708532
-708602
-708832
-708761
-708735
-708906
-708965
-709040
-709073
-709392
-709572
-709427
-709586
-709728
-709787
-709871
-709961
-710026
-710122
-710159
-710034
-710250
-710346
-710407
-710425
-710365
-710455
-710448
-710580
-710518
-710403
-710609
-710492
-710579
-710584
-710527
-710574
-710606
-710682
-710625
-710410
-710585
-710521
-710588
-710526
-710496
-710448
-710463
-710501
-710433
-710497
-710469
-710449
-710479
-710353
-710480
-710531
-710561
-710590
-710390
-710556
-710591
-710559
-710654
-710541
-710613
-710750
-710586
-710796
-710656
-710629
-710843
-710954
-710863
-710792
-710965
-711005
-711111
-711130
-711070
-711149
-711277
-711298
-711282
-711253
-711369
-711468
-711538
-711584
-711470
-711713
-711716
-711853
-711961
-711836
-711999
-711987
-712006
-712089
-712079
-712189
-712222
-712538
-712389
-712270
-712386
-713009
-712704
-712621
-712449
-712642
-712675
-712820
-712730
-712628
-712911
-713038
-712896
-713072
-712968
-713108
-713128
-713231
-713303
-713174
-713427
-713391
-713580
-713551
-713536
-713664
-713654
-713731
-713773
-713697
-713883
-714654
-714190
-714100
-713955
-714072
-714074
-714092
-714158
-714211
-714307
-714391
-714406
-714402
-714346
-714566
-714636
-714682
-714776
-714655
-714744
-714830
-714916
-714912
-714754
-714916
-715002
-715104
-715143
-714987
-715189
-715124
-715331
-715333
-715043
-715251
-715402
-715423
-715519
-715359
-715524
-715560
-715727
-715758
-715635
-715738
-715768
-715817
-715927
-715813
-715966
-716015
-716076
-716169
-716104
-716119
-716133
-716070
-716388
-716375
-716403
-716289
-716421
-716414
-716550
-716566
-716377
-716964
-716789
-716801
-716791
-716680
-716840
-716947
-716952
-716890
-716993
-717082
-717054
-717137
-717048
-717144
-717714
-717383
-717412
-717220
-717362
-717359
-717550
-717439
-717448
-717614
-717663
-717657
-717739
-717619
-717768
-717824
-717865
-717859
-717779
-717856
-717955
-718014
-718072
-717945
-718014
-718120
-718206
-718310
-718179
-718343
-718337
-718326
-718331
-718327
-718499
-718585
-718640
-718608
-718472
-718576
-718730
-718830
-718826
-718695
-718915
-719014
-718963
-719059
-718994
-718925
-719159
-719213
-719373
-719233
-719398
-719414
-719457
-719484
-719472
-719600
-719740
-719750
-719819
-719777
-719927
-720441
-720181
-720153
-719986
-720158
-720266
-720219
-720327
-720288
-720545
-720516
-720502
-720600
-720481
-720688
-720734
-721388
-721040
-720744
-720831
-720924
-721012
-721096
-720993
-721104
-721107
-721173
-721127
-720942
-721041
-720929
-720850
-720728
-720580
-720467
-720236
-720051
-719869
-719533
-719385
-719031
-718798
-718465
-717945
-717717
-717390
-717104
-716646
-716185
-715914
-715540
-715243
-714854
-714135
-713929
-713653
-713342
-713113
-712578
-712408
-712180
-711841
-711636
-711196
-711047
-710868
-710734
-710520
-710190
-710214
-710068
-710015
-710004
-709879
-709906
-709937
-709820
-709839
-709743
-709840
-709944
-709998
-710070
-710074
-710260
-710349
-710461
-710579
-710471
-710636
-710787
-710888
-711055
-710936
-711189
-711075
-711287
-711429
-711485
-711734
-711810
-711951
-712044
-712036
-712137
-712280
-712389
-712444
-712316
-712522
-712649
-712593
-712688
-712624
-712736
-712752
-712897
-712914
-712803
-712911
-712936
-713028
-712943
-712782
-712974
-712883
-712796
-712753
-712663
-712855
-712705
-712638
-712680
-712620
-712572
-712591
-712633
-712625
-712475
-712588
-712520
-712531
-712544
-712507
-712535
-712507
-712596
-712624
-712514
-712671
-712860
-712868
-712927
-712541
-712949
-713078
-713132
-713257
-713147
-713319
-713448
-713408
-713495
-713403
-713589
-713642
-713663
-713815
-713690
-713837
-713776
-713973
-714031
-713867
-713940
-713993
-714110
-714133
-714023
-714118
-714015
-714006
-714001
-713924
-713955
-713986
-714002
-713973
-713831
-713998
-713980
-714437
-714120
-713769
-713841
-713813
-713726
-713735
-713639
-713725
-713679
-713780
-713873
-713715
-713673
-713662
-713759
-713729
-713613
-713737
-713782
-713783
-713854
-713718
-713800
-713916
-713885
-713882
-713819
-713965
-713938
-713952
-714109
-713986
-714119
-714161
-714307
-714204
-714154
-714293
-714431
-714475
-714477
-714450
-714522
-714598
-714599
-714688
-714642
-714778
-714840
-714998
-715001
-714856
-715036
-715072
-715244
-715281
-715216
-715350
-715405
-715456
-715326
-715421
-715553
-715695
-715733
-715791
-715690
-715854
-715903
-715995
-715942
-715978
-716230
-716200
-716227
-716223
-716213
-716387
-716454
-716502
-716478
-716454
-716528
-716684
-716688
-716766
-716679
-716825
-716877
-716921
-717082
-716944
-717094
-717155
-717183
-717240
-717080
-717295
-717367
-717433
-717437
-717329
-717530
-718049
-717803
-717772
-718078
-717842
-717785
-717918
-717945
-717812
-717955
-718078
-718072
-718183
-718039
-718249
-718216
-718342
-718397
-718256
-718436
-718462
-718423
-718611
-718554
-718616
-718684
-718685
-718793
-718680
-718878
-718866
-718923
-718916
-718794
-719024
-719075
-719122
-718909
-718885
-719154
-719197
-719143
-719257
-719191
-719733
-719498
-719372
-719489
-719307
-719483
-719494
-719508
-719503
-719441
-719619
-719679
-719749
-719703
-719598
-719693
-719786
-719935
-719959
-719772
-720367
-720025
-720009
-720128
-720065
-720110
-720111
-720198
-720288
-720114
-720300
-720324
-720300
-720393
-720285
-720516
-720465
-720517
-720646
-720431
-720669
-720658
-720641
-720817
-720672
-720791
-720780
-720871
-720910
-720845
-721038
-721066
-721079
-721183
-721027
-721239
-721022
-721268
-721276
-721016
-721332
-721485
-721250
-721357
-721479
-721635
-721671
-721706
-721868
-721664
-721805
-721895
-722026
-722041
-721841
-722089
-721927
-722125
-722213
-722219
-722318
-722371
-722466
-722516
-722470
-722600
-722526
-722659
-722812
-722685
-722854
-722910
-722938
-723066
-722964
-723151
-723235
-723162
-723277
-723204
-723326
-723418
-723333
-723304
-723361
-723576
-723625
-723697
-723686
-723526
-723707
-723715
-723681
-723701
-723565
-723459
-723378
-723301
-723068
-722797
-722644
-722385
-722147
-721881
-721439
-721288
-721013
-720631
-720236
-719806
-719539
-719220
-718758
-718425
-717894
-717522
-717138
-716731
-716319
-715954
-715711
-715323
-714959
-714681
-714159
-714038
-713826
-713557
-713402
-712985
-712877
-712757
-712622
-712446
-712230
-712237
-712114
-712113
-712022
-711875
-712018
-711986
-712047
-712088
-712001
-711957
-712093
-712149
-712308
-712275
-712399
-712532
-712508
-712634
-712368
-712742
-712864
-712964
-713187
-713178
-713338
-713310
-713513
-713636
-713500
-713709
-713833
-713925
-714002
-713884
-714006
-714145
-714148
-714266
-714247
-714310
-714288
-714347
-714441
-714348
-714358
-714452
-714505
-714493
-714264
-714227
-714185
-714285
-714280
-714147
-714266
-714207
-714176
-714094
-713983
-714037
-713917
-713925
-713849
-713798
-713582
-713734
-713715
-713726
-713554
-713650
-713715
-713565
-713590
-713474
-713528
-713604
-713653
-713626
-713521
-713680
-713733
-713770
-714049
-713973
-714055
-713997
-714134
-714222
-714389
-714478
-714137
-714515
-714683
-714758
-714837
-714745
-714938
-715033
-715036
-715184
-715061
-715322
-715295
-715431
-715427
-715244
-715472
-715464
-715443
-715557
-715432
-715545
-715538
-715527
-715603
-715467
-715559
-715615
-715543
-715611
-715428
-715500
-715487
-715501
-715647
-715405
-715519
-715450
-715474
-715554
-715349
-715478
-715471
-715439
-715528
-715390
-715470
-715339
-715490
-715488
-715357
-715468
-715550
-715560
-715613
-715441
-715616
-715518
-715738
-715806
-715675
-715827
-715855
-715889
-715910
-715844
-715993
-715965
-716052
-716134
-715982
-716162
-716301
-716311
-716373
-716447
-716435
-716500
-716483
-716539
-716711
-716773
-716869
-716910
-716868
-717026
-717005
-717115
-717264
-717078
-717291
-717345
-717333
-717426
-717318
-717397
-717525
-717628
-717551
-717452
-717665
-717871
-717919
-717930
-717781
-718011
-718055
-718053
-718180
-718045
-718224
-718294
-718394
-718427
-718298
-718541
-718591
-718608
-718732
-718566
-718781
-718810
-718873
-718894
-718868
-719034
-719005
-719042
-719025
-719013
-719156
-719340
-719303
-719312
-719293
-719438
-719479
-719519
-719565
-719556
-719668
-719689
-719853
-719888
-719812
-719960
-720088
-720056
-720127
-719980
-720196
-720280
-720244
-720296
-720304
-720418
-720457
-720520
-720545
-720423
-720651
-720692
-720688
-720786
-720629
-720765
-720813
-720880
-720973
-720826
-721061
-721166
-721158
-721215
-721161
-721224
-721223
-721248
-721442
-721221
-721369
-721393
-721471
-721580
-721461
-721505
-721568
-721614
-721653
-721472
-721712
-721804
-721840
-721806
-721641
-721882
-721889
-721936
-721979
-721820
-721994
-722064
-722001
-722145
-722051
-722206
-722179
-722187
-722287
-722131
-722287
-722427
-722453
-722449
-722361
-722465
-722565
-722628
-722605
-722507
-722727
-722678
-722779
-722848
-722741
-722792
-722904
-722931
-723099
-722904
-723030
-723122
-723123
-723178
-723112
-723317
-723361
-723373
-723425
-723408
-723522
-723635
-723777
-723783
-723720
-723820
-723887
-723936
-723997
-723912
-724098
-724151
-724130
-724266
-724248
-724316
-724351
-724374
-724501
-724400
-724543
-724434
-724579
-724787
-724627
-724907
-724896
-724913
-725093
-724910
-725092
-725102
-725218
-725352
-725245
-725306
-725386
-725413
-725412
-725387
-725476
-725474
-725526
-725509
-725327
-725323
-725180
-725013
-724870
-724548
-724522
-724167
-724003
-723700
-723300
-723143
-722785
-722550
-722247
-721669
-722040
-721298
-720776
-720363
-719828
-719590
-719272
-718780
-718395
-717892
-717619
-717318
-716937
-716638
-716247
-715988
-715785
-715513
-715249
-714957
-714799
-714700
-714536
-714409
-714136
-714106
-713988
-713931
-713898
-713839
-713944
-713990
-713950
-713993
-713835
-714005
-714043
-714153
-714297
-714204
-714334
-714389
-714501
-714574
-714601
-714827
-714837
-715025
-715128
-715317
-715389
-715551
-715625
-715577
-715726
-715884
-715965
-715988
-715977
-716191
-716291
-716279
-716322
-716232
-716358
-716473
-716626
-716549
-716415
-716500
-716539
-716585
-716559
-716545
-716608
-716318
-716510
-716628
-716322
-716422
-716346
-716344
-716448
-716177
-716246
-716207
-716149
-716236
-716013
-716091
-716027
-715929
-715979
-715777
-715930
-715866
-715900
-715940
-715697
-715843
-715867
-715878
-715901
-715724
-715858
-715939
-715972
-716131
-715951
-716177
-716199
-716334
-716424
-716218
-716502
-717002
-716801
-716757
-716681
-716891
-717012
-717082
-717105
-716973
-717158
-717228
-717260
-717248
-717130
-717369
-717470
-717462
-717501
-717317
-717502
-716984
-717404
-717531
-717495
-717577
-717618
-717546
-717592
-717414
-717520
-717540
-717480
-717549
-717393
-717490
-717440
-717437
-717509
-717273
-717429
-717407
-717379
-717148
-717193
-717302
-717267
-717077
-717201
-717186
-717269
-717083
-717202
-717237
-717110
-717324
-717326
-717363
-717365
-717302
-717370
-717356
-717370
-717522
-717346
-717466
-717354
-717536
-717702
-717458
-717687
-717691
-717712
-717787
-717794
-717889
-717910
-718003
-718085
-718001
-718136
-718146
-718177
-718353
-718281
-718405
-718443
-718474
-718599
-718419
-718555
-718610
-718655
-718720
-718711
-718882
-718858
-718861
-719038
-718991
-719083
-719120
-719176
-719330
-719206
-719248
-719320
-719281
-719501
-719369
-719481
-719561
-719614
-719647
-719548
-719748
-719790
-719756
-719795
-719817
-719916
-719948
-719983
-720114
-719957
-720129
-720170
-720238
-720129
-720187
-720354
-720419
-720408
-720412
-720407
-720509
-720649
-720702
-720806
-720662
-720772
-720881
-720877
-720954
-720844
-721071
-721034
-720922
-721188
-721033
-721195
-721301
-721368
-721225
-721364
-721361
-721441
-721560
-721502
-721605
-721580
-721617
-721639
-721527
-721754
-721744
-721733
-721818
-721744
-721863
-722009
-721978
-722037
-721919
-722099
-722053
-722100
-722200
-722129
-722160
-722211
-722290
-722257
-722129
-722238
-722067
-722344
-722120
-722167
-722346
-722494
-722377
-722489
-722373
-722673
-722633
-722657
-722667
-722541
-722573
-722636
-722791
-722862
-722683
-722825
-722879
-722928
-722926
-722808
-723031
-722989
-722947
-723130
-722948
-723105
-723208
-723212
-723246
-723098
-723262
-723298
-723430
-723474
-723343
-723451
-723576
-723706
-723645
-723510
-723740
-723719
-723806
-723903
-723749
-723947
-724014
-724113
-724129
-724001
-724111
-724184
-724241
-724271
-724259
-724327
-724470
-724521
-724549
-724469
-724519
-724619
-724700
-724696
-724699
-724874
-724825
-724912
-725057
-724849
-724971
-725059
-724993
-725000
-724894
-724998
-724941
-724841
-724764
-724452
-724274
-724251
-724120
-724038
-723674
-723436
-723192
-722911
-722680
-722255
-721932
-721482
-721175
-720973
-720318
-720066
-719717
-719315
-719016
-718437
-718229
-717949
-717565
-717267
-716652
-716361
-716120
-715849
-715579
-715129
-715121
-714877
-714682
-714461
-714088
-714138
-714000
-713903
-713815
-713487
-713572
-713504
-713479
-713470
-713356
-713499
-713485
-713491
-713613
-713549
-713636
-713670
-713737
-713818
-714035
-714893
-714927
-714799
-714944
-715092
-715213
-715217
-715089
-715280
-715321
-715384
-715408
-715184
-715261
-715247
-715272
-715365
-715208
-715235
-715248
-715250
-715220
-715115
-715069
-715081
-715025
-715058
-714925
-714969
-714896
-714835
-714791
-714591
-714675
-714601
-714553
-714614
-714453
-714503
-714466
-714443
-714426
-714261
-714290
-714364
-714383
-714381
-714326
-714404
-714451
-714480
-714524
-714414
-714560
-714555
-714685
-714748
-714733
-714912
-715011
-715062
-715109
-715038
-715248
-715312
-715333
-715357
-715290
-715507
-715624
-715661
-715682
-715558
-715712
-715735
-715754
-715871
-715783
-715895
-715985
-715881
-716042
-715772
-715938
-715923
-715899
-715960
-715815
-715960
-715894
-715952
-715866
-715691
-715746
-715794
-715785
-715810
-715611
-715673
-715650
-715735
-715710
-715512
-715556
-715554
-715498
-715592
-715458
-715613
-715610
-715605
-715560
-715355
-715519
-715486
-715545
-715544
-715419
-715517
-715575
-715631
-715630
-715509
-715606
-715664
-715735
-715820
-715661
-715865
-715912
-715949
-715925
-715846
-715956
-715996
-716047
-716173
-716042
-716189
-716227
-716552
-716427
-716582
-716685
-716782
-716673
-716670
-716689
-716895
-716966
-717051
-716933
-717010
-717075
-717125
-717232
-717214
-717267
-717251
-717317
-717362
-717275
-717463
-717489
-717439
-717658
-717453
-717565
-717723
-717780
-717823
-717724
-717770
-717950
-717968
-718029
-717856
-717934
-718026
-718088
-718196
-718010
-718223
-718293
-718287
-718423
-718309
-718357
-718376
-718518
-718600
-718367
-718549
-718686
-718783
-718564
-718513
-718727
-718809
-718943
-718983
-718886
-719040
-719020
-718911
-719096
-719074
-719136
-719280
-719269
-719360
-719281
-719481
-719398
-719364
-719555
-719363
-719458
-719521
-719605
-719696
-719531
-719767
-719774
-719765
-719922
-719722
-719821
-719841
-719923
-720017
-719811
-719930
-720076
-720510
-720149
-720020
-720101
-719993
-720113
-720135
-719929
-720073
-720169
-720249
-720192
-720580
-720372
-720335
-720336
-720337
-720289
-720366
-720373
-720440
-720476
-720347
-720420
-720441
-720562
-720553
-720448
-720324
-720587
-720613
-720788
-720431
-720618
-720703
-720834
-720880
-720825
-720954
-720956
-720994
-721007
-720911
-721012
-721027
-721089
-721212
-721220
-721320
-721327
-721356
-721433
-721200
-721508
-721511
-721536
-721531
-721438
-721695
-721678
-721822
-721897
-721748
-721851
-721859
-722076
-722094
-722052
-722104
-722139
-722285
-722309
-722189
-722341
-722324
-722421
-722523
-722454
-722575
-722610
-722635
-722596
-722375
-722455
-722435
-722414
-722310
-722141
-722029
-721910
-721508
-721400
-721064
-721001
-720765
-720250
-720003
-719664
-719510
-719190
-718840
-718543
-718035
-717636
-717329
-716941
-716560
-716058
-715723
-715442
-715014
-714710
-714179
-713941
-713616
-713381
-713052
-712711
-712520
-712271
-712058
-711947
-711670
-711618
-711382
-711221
-711084
-710884
-710969
-710831
-710779
-710807
-710579
-710670
-710620
-710603
-710671
-710633
-710779
-710886
-710901
-710967
-710874
-710918
-711035
-711180
-711298
-711147
-711219
-711433
-711490
-711455
-711409
-711596
-711594
-711562
-711724
-711603
-711686
-711830
-711887
-711835
-711663
-711732
-711745
-711809
-711882
-711720
-711817
-711760
-711801
-711718
-711591
-711666
-711659
-711728
-711534
-711310
-711414
-711375
-711416
-711284
-711222
-711152
-711057
-711053
-710968
-710825
-710889
-710836
-710845
-710747
-710530
-710553
-710534
-710569
-710510
-710291
-710341
-710385
-710557
-710496
-710299
-710398
-710415
-710491
-710512
-710500
-710599
-710644
-710695
-710749
-710689
-710867
-710899
-711041
-711047
-710981
-711172
-711308
-711430
-711432
-711372
-711492
-711598
-711608
-711730
-711598
-711672
-711815
-711892
-711909
-711785
-711934
-711951
-712018
-711997
-711839
-711961
-712037
-711890
-711951
-711885
-711973
-712035
-711925
-712086
-711891
-711888
-711944
-711717
-711725
-711583
-711660
-711664
-711708
-711618
-711475
-711586
-711566
-711563
-711566
-711409
-711458
-711460
-711499
-711553
-711797
-711557
-711640
-711639
-711582
-711469
-711547
-711623
-711626
-711789
-711629
-711639
-711814
-711889
-711904
-711742
-711816
-711973
-712046
-712095
-712038
-712054
-712195
-712226
-712239
-712191
-712330
-712441
-712456
-712575
-712228
-712400
-712458
-712622
-712634
-712661
-712685
-712791
-712794
-712832
-712696
-712867
-712888
-712976
-712891
-712831
-713003
-713144
-713102
-713156
-712983
-713090
-713182
-713123
-713239
-713097
-713243
-713268
-713363
-713480
-713366
-713432
-713481
-713472
-713528
-713447
-713643
-713713
-713755
-713805
-713623
-713770
-713737
-713855
-713951
-713764
-713959
-714018
-713990
-714210
-714021
-714129
-714229
-714162
-714291
-714262
-714290
-714365
-714458
-714528
-714426
-714487
-714612
-714654
-714735
-714588
-714729
-714738
-714828
-714829
-714721
-714756
-714921
-714977
-714880
-715013
-715035
-715057
-715080
-715019
-715121
-715060
-715072
-715136
-715115
-715149
-715109
-715231
-715091
-715220
-715342
-715228
-715342
-715309
-715326
-715323
-715400
-715467
-715277
-715319
-715394
-715382
-715519
-715407
-715469
-715573
-715622
-715690
-715437
-715510
-715614
-715767
-715732
-715581
-715779
-715777
-715309
-715746
-715774
-715859
-715896
-716013
-716057
-716037
-716008
-716088
-716226
-716330
-716154
-716337
-716321
-716362
-716397
-716409
-716507
-716603
-716630
-716751
-716546
-716668
-716717
-716719
-716831
-716699
-716775
-716962
-716698
-717017
-717002
-717020
-717087
-717121
-717138
-717080
-717198
-717167
-717231
-717000
-717064
-716955
-716966
-716915
-716522
-716502
-716373
-716168
-716027
-715607
-715390
-715089
-714870
-714484
-714061
-713877
-713519
-713176
-712799
-712399
-712028
-711697
-711335
-711031
-710534
-710282
-709903
-709554
-709243
-708855
-708617
-708357
-708057
-707916
-707440
-707282
-707172
-706948
-706866
-706498
-706503
-706341
-706233
-706160
-705978
-706039
-705911
-705986
-705960
-705770
-705833
-705883
-705881
-705952
-705801
-705866
-706027
-706010
-706074
-705907
-706027
-706148
-706194
-706276
-706201
-706274
-706259
-706392
-706479
-706320
-706414
-706469
-706519
-706492
-706462
-706563
-706597
-706637
-706555
-706371
-706414
-706412
-706460
-706464
-706333
-706372
-706423
-706343
-706336
-706163
-706073
-706084
-706013
-705766
-706258
-705926
-705846
-705822
-706238
-705740
-705691
-705634
-705508
-705451
-705280
-705237
-705281
-705193
-705151
-705066
-705007
-705112
-704971
-705039
-704911
-704952
-705075
-705082
-705179
-704886
-704897
-705031
-705109
-705142
-705091
-705197
-705360
-705437
-705452
-705400
-705564
-705591
-705663
-705780
-705775
-705869
-706036
-706067
-706100
-706055
-706137
-706755
-706503
-706294
-706582
-706476
-706451
-706550
-706584
-706413
-706456
-706525
-706586
-706632
-706433
-706483
-706533
-706627
-706650
-706492
-706419
-706466
-706479
-706448
-706336
-706262
-706280
-706292
-706392
-706178
-706136
-706532
-706244
-706159
-706049
-706055
-706149
-706105
-706206
-706055
-706009
-706052
-706053
-705995
-705902
-706030
-706061
-706189
-706152
-705940
-705999
-706104
-706110
-706155
-706084
-706174
-706207
-706176
-706314
-706182
-706235
-706307
-706331
-706372
-706296
-706325
-706520
-706602
-706664
-706559
-706588
-706602
-706675
-706699
-706631
-706698
-706732
-706935
-707049
-707037
-706944
-707001
-707023
-707112
-706935
-707183
-707263
-707377
-707406
-707247
-707298
-707314
-707381
-707475
-707491
-707536
-707612
-707605
-707658
-707619
-707544
-707707
-707736
-707690
-707662
-707781
-707906
-707796
-708055
-708014
-708019
-707995
-708130
-708127
-708088
-708137
-708244
-708771
-708494
-708355
-708366
-708443
-708426
-708497
-708528
-708475
-708520
-708618
-708656
-708556
-708651
-708769
-708732
-708863
-708776
-708851
-708926
-708988
-709110
-708915
-708975
-709140
-709212
-709209
-709083
-709148
-709299
-709273
-709276
-709220
-709199
-709378
-709432
-709482
-709385
-709470
-709509
-709534
-709643
-709574
-709558
-709588
-709703
-709705
-709590
-709576
-709763
-709834
-709909
-709740
-709709
-709873
-709974
-710021
-709843
-709898
-709933
-710084
-710183
-710007
-710004
-710172
-710097
-710254
-710109
-710228
-710314
-710414
-710380
-710368
-710412
-710542
-710510
-710592
-710541
-710438
-710695
-710665
-710723
-710658
-710729
-710849
-710678
-710978
-710740
-710849
-711031
-711080
-711067
-711035
-711004
-711165
-711148
-711238
-711151
-711170
-711304
-711324
-711332
-711322
-711271
-711387
-711349
-711450
-711310
-711264
-711225
-711167
-711141
-710964
-710770
-710723
-710622
-710422
-710094
-709870
-709672
-709504
-709199
-708766
-708425
-708136
-707906
-707636
-707166
-706760
-706424
-706146
-705773
-705397
-704992
-704678
-704305
-703994
-703684
-703277
-703126
-702921
-702680
-702297
-702014
-701862
-701715
-701522
-701240
-701123
-701067
-700986
-700957
-700839
-700654
-700668
-700594
-700607
-700526
-700490
-700631
-700657
-700680
-700541
-700553
-700597
-700679
-700724
-700684
-700682
-700834
-700848
-700942
-700937
-700855
-700971
-701014
-701092
-701151
-701043
-700953
-701101
-701128
-701142
-701096
-701120
-701136
-701094
-700917
-700767
-700890
-700946
-700890
-700776
-700572
-700671
-700628
-700607
-700355
-700333
-700322
-700846
-700352
-700210
-700101
-700079
-700044
-700082
-699908
-699794
-699863
-699881
-699840
-699705
-699651
-699689
-699672
-699724
-699565
-699607
-699688
-699641
-699769
-699719
-699549
-699810
-699876
-699924
-699863
-699881
-700148
-700221
-700337
-700288
-700348
-700478
-700535
-700630
-700626
-700685
-700802
-700971
-701119
-701027
-701039
-701242
-701357
-701413
-701305
-701289
-701433
-701494
-701544
-701479
-701393
-701517
-701581
-701699
-701554
-701463
-701467
-701459
-701528
-701476
-701443
-701487
-701545
-701461
-701308
-701257
-701252
-701201
-701321
-701213
-701155
-701255
-701296
-701188
-701092
-701020
-701076
-701083
-701195
-701034
-700940
-701038
-701158
-701132
-701040
-701078
-701154
-701144
-701178
-701126
-700950
-701234
-701245
-701312
-701263
-701240
-701349
-701406
-701498
-701430
-701290
-701463
-701492
-701544
-701529
-701544
-701516
-701632
-701868
-701709
-702426
-702036
-702010
-702051
-701875
-701911
-702030
-702145
-702704
-702322
-702149
-702265
-702346
-702417
-702331
-702239
-702392
-702422
-702540
-702567
-702474
-702687
-702697
-702813
-702655
-702764
-702831
-702961
-702932
-702829
-703003
-703021
-703155
-703140
-703199
-703222
-703341
-703252
-703221
-703426
-703582
-703457
-703527
-703516
-703695
-703740
-703760
-703763
-703676
-703931
-704369
-704276
-704079
-703940
-704166
-704172
-704297
-704251
-704223
-704403
-704396
-704462
-704433
-704406
-704653
-704688
-704755
-704771
-704730
-704734
-704774
-704880
-704851
-704785
-704930
-705015
-705114
-705035
-705069
-705195
-705202
-705261
-705242
-705266
-705630
-705392
-705354
-705417
-705365
-705447
-705440
-705490
-705559
-705483
-705498
-705599
-705600
-705684
-705540
-705785
-705761
-705900
-705860
-705765
-705895
-706005
-706057
-705953
-705904
-706030
-706043
-706143
-706075
-706058
-706194
-706137
-706283
-706173
-706166
-706262
-706422
-706500
-706839
-706504
-706502
-706551
-706561
-706533
-706554
-706547
-706658
-706809
-706844
-706648
-706709
-706747
-706836
-706885
-706886
-707027
-707059
-707129
-707096
-707039
-707199
-707209
-707267
-707186
-707271
-707422
-707553
-707541
-707550
-707457
-707589
-707707
-707671
-707714
-707701
-707863
-707970
-708219
-708250
-708215
-708362
-708475
-708494
-708567
-708442
-708614
-708583
-708718
-708713
-708702
-708815
-708837
-708946
-708890
-708938
-709019
-709067
-709158
-709142
-709029
-709148
-709402
-709454
-709388
-709364
-709404
-709467
-709555
-709546
-709404
-709546
-709632
-709636
-709483
-709319
-709327
-709283
-709162
-708932
-708652
-708658
-708419
-708145
-707859
-707314
-707196
-706994
-706758
-706312
-705825
-705613
-705167
-704806
-704412
-703915
-703610
-703252
-702896
-702498
-701972
-701800
-701379
-701095
-700814
-700279
-700003
-699809
-699625
-699284
-698805
-698807
-698773
-698517
-698359
-698069
-698066
-697997
-697927
-697885
-697744
-697831
-697810
-697871
-698462
-697890
-697835
-697822
-697932
-697963
-697842
-697943
-698088
-698114
-698148
-698143
-698265
-698231
-698421
-698438
-698396
-698544
-698593
-698704
-698774
-698697
-698826
-698740
-698842
-698925
-698898
-698951
-698926
-699018
-698946
-698787
-698941
-698899
-698851
-698842
-698800
-698836
-698808
-698780
-698665
-698549
-698555
-698543
-698468
-698421
-698214
-698260
-698300
-698246
-698183
-697918
-698046
-697977
-698006
-697930
-697745
-697891
-697743
-697839
-697740
-697628
-697659
-697732
-697796
-697691
-697675
-697833
-697871
-697812
-697882
-697773
-697924
-697965
-698044
-698108
-698106
-698283
-698361
-698417
-698548
-698440
-698453
-698615
-698709
-698821
-698794
-698997
-699106
-699047
-699154
-699034
-699185
-699196
-699235
-699323
-699179
-699265
-699323
-699289
-699235
-699173
-699258
-699252
-699280
-699260
-699109
-699146
-699181
-699112
-699189
-698996
-699042
-698989
-698958
-698978
-698860
-698914
-698958
-699006
-698922
-698720
-698772
-698749
-698772
-698753
-698667
-698816
-698743
-698909
-698764
-698735
-698709
-698809
-698857
-698758
-698746
-698764
-698814
-698940
-698950
-699006
-698897
-699145
-699150
-699176
-699058
-699247
-699353
-699359
-699327
-699338
-699466
-699501
-699509
-699622
-699489
-699622
-699640
-699848
-699862
-699704
-699895
-700017
-700130
-700061
-699945
-700180
-700163
-700199
-700235
-700176
-700341
-700318
-700550
-700481
-700441
-700502
-700617
-700622
-700707
-700657
-700750
-700916
-700655
-700974
-700815
-700954
-701077
-701155
-701121
-701013
-701256
-701295
-701297
-701365
-701220
-701343
-701366
-701405
-701605
-701469
-701614
-701658
-701700
-701730
-701616
-701767
-701867
-701840
-701885
-701991
-702026
-702141
-702152
-702227
-702173
-702262
-702128
-702283
-702408
-702515
-702470
-702281
-702440
-702458
-702639
-702616
-702606
-702716
-702783
-702800
-702930
-702756
-702948
-702976
-702898
-703033
-703112
-703068
-703106
-702996
-703137
-703209
-703249
-703255
-703181
-703288
-703331
-703370
-703423
-703256
-703443
-703532
-703788
-703696
-703649
-703680
-703959
-703955
-703865
-703862
-703934
-704235
-704167
-704116
-704146
-704136
-703977
-704181
-704214
-704215
-704273
-704209
-704340
-704320
-704184
-704355
-704347
-704487
-704582
-704616
-704678
-704558
-704716
-704787
-704824
-704864
-704706
-704956
-704903
-705079
-705100
-704989
-705146
-705176
-705212
-705351
-705228
-705408
-705466
-705545
-705644
-705552
-705728
-705719
-705785
-705852
-705746
-705930
-705964
-706145
-706186
-706048
-706214
-706209
-706337
-706361
-706226
-706395
-706448
-706514
-706560
-706462
-706502
-706573
-706563
-706665
-706427
-706514
-706455
-706442
-706107
-705997
-705913
-705820
-705622
-705165
-704993
-704763
-704506
-704252
-703653
-703499
-703108
-702778
-702417
-701951
-701644
-701276
-700826
-700556
-700035
-699717
-699301
-698921
-698599
-698191
-697887
-697677
-697307
-697086
-696594
-696416
-696266
-696136
-695906
-695607
-695498
-695301
-695258
-695188
-694946
-694893
-694864
-694779
-694792
-694718
-694777
-694765
-694741
-694713
-694637
-694817
-694815
-694901
-694986
-694778
-694970
-694928
-694992
-695069
-694977
-695110
-695206
-695293
-695332
-695126
-695348
-695292
-695375
-695226
-695267
-695391
-695418
-695477
-695473
-695219
-695382
-695340
-695350
-695409
-695190
-695216
-695189
-695206
-695094
-694850
-694492
-694866
-694955
-694866
-694623
-694618
-694569
-694452
-694454
-694295
-694202
-694177
-694150
-694182
-693902
-693962
-693901
-693852
-693810
-693643
-693631
-693590
-693546
-693630
-693404
-693500
-693548
-693513
-693553
-693402
-693566
-693681
-693686
-693697
-693622
-693703
-693731
-693864
-693960
-693836
-694036
-694056
-694193
-694329
-694304
-694527
-694555
-694677
-694720
-694676
-694895
-694992
-695084
-695212
-695117
-695276
-695336
-695290
-695428
-695385
-695584
-695527
-695481
-695607
-695485
-695586
-695587
-695613
-695702
-695510
-695682
-695609
-695540
-695556
-695444
-695549
-695477
-695394
-695384
-695257
-695360
-695341
-695380
-695305
-695249
-695221
-695264
-695197
-695311
-695152
-695229
-695257
-695275
-695303
-695128
-695217
-695289
-695490
-695289
-695399
-695393
-695475
-695482
-695427
-695595
-695761
-695668
-695832
-695725
-695745
-695849
-695819
-695992
-695791
-696016
-696069
-696152
-696098
-696043
-696156
-696198
-696280
-696413
-696367
-696433
-696599
-696591
-696614
-696563
-696675
-696757
-696840
-696838
-696851
-696969
-696922
-697025
-697143
-696991
-697196
-697195
-697245
-697199
-697226
-697370
-697375
-697396
-697568
-697480
-697629
-697680
-697785
-697775
-697643
-697694
-697842
-697960
-697956
-697948
-697995
-698051
-698099
-698221
-698062
-698209
-698360
-698295
-698490
-698345
-698453
-698474
-698579
-698711
-698658
-698852
-698885
-698958
-698997
-698864
-699043
-699113
-699168
-699211
-699185
-699392
-699363
-699504
-699456
-699384
-699551
-699653
-699628
-699717
-699641
-699853
-699891
-699942
-699969
-699830
-700009
-699966
-700102
-700105
-699937
-700201
-700246
-700227
-700345
-700138
-700330
-700362
-700411
-700379
-700341
-700501
-700531
-700642
-700710
-700528
-700743
-700702
-700741
-700805
-700731
-700877
-700889
-700999
-701087
-700978
-700965
-701141
-701168
-701181
-701054
-701244
-701239
-701383
-701372
-701329
-701363
-701507
-701483
-701573
-701483
-701621
-701752
-701787
-701789
-701670
-701886
-701888
-702044
-702062
-702345
-702144
-702118
-702220
-702171
-702175
-702261
-702436
-702448
-702329
-702503
-702539
-702699
-702677
-702674
-702737
-702707
-702847
-702897
-702827
-703009
-703112
-703113
-703163
-703006
-703166
-703221
-703225
-703367
-703218
-703467
-703512
-703504
-703671
-703482
-703705
-703738
-703755
-703881
-703821
-703899
-703890
-703996
-704147
-704111
-704263
-704305
-704288
-704327
-704297
-704535
-704504
-704606
-704707
-704565
-704766
-704843
-704927
-704958
-705432
-705271
-705332
-705346
-705235
-705364
-705394
-705518
-705530
-705485
-705613
-705656
-705671
-705858
-705810
-705836
-706001
-706026
-706069
-705947
-706067
-706272
-706255
-706392
-706433
-706251
-706373
-706376
-706307
-706309
-706032
-705970
-705886
-705732
-705557
-705257
-704962
-704845
-704578
-704301
-703876
-703550
-703224
-702816
-702472
-701927
-701687
-701346
-701022
-700610
-699942
-699635
-699198
-698843
-698569
-698022
-697748
-697416
-697114
-696819
-696310
-696124
-695863
-695628
-694104
-694110
-694214
-694333
-694331
-694258
-694392
-694499
-694624
-694688
-694692
-694827
-694857
-694908
-694982
-694995
-695157
-695174
-695194
-695352
-695236
-695367
-695343
-695367
-695509
-695368
-695470
-695477
-695491
-695446
-695394
-695502
-695440
-695444
-695393
-695224
-695250
-695259
-695162
-695203
-694976
-694902
-694935
-694891
-694796
-694606
-694591
-694526
-694453
-694404
-694207
-694355
-694301
-694281
-694176
-693960
-694069
-693912
-693925
-693894
-693747
-693827
-693826
-693854
-693850
-693715
-693857
-693834
-693915
-693897
-693821
-694044
-694068
-694133
-694228
-694172
-694280
-694348
-694379
-694557
-695029
-695206
-695346
-695645
-695391
-695405
-695474
-695393
-695614
-695572
-695695
-695853
-695848
-695985
-695870
-695919
-695991
-696048
-696008
-695846
-695901
-695970
-695991
-695965
-695880
-695860
-695888
-695936
-695984
-695774
-695855
-695804
-695856
-695912
-695727
-695828
-695786
-695822
-695693
-695622
-695721
-695813
-695796
-695744
-695576
-695624
-695806
-695803
-695782
-695628
-695769
-695743
-695737
-695816
-695783
-695915
-695914
-695883
-696018
-695987
-696197
-696299
-696333
-696273
-696327
-696424
-696463
-696514
-696513
-696758
-696641
-696685
-696775
-696703
-696966
-696953
-696884
-697064
-697071
-697133
-697168
-697220
-697351
-697246
-697366
-697372
-697511
-697591
-697383
-697602
-697649
-697785
-697797
-697702
-697850
-697960
-698017
-698126
-697917
-698054
-698105
-698013
-698172
-698219
-698390
-698459
-698470
-698630
-698567
-698572
-698667
-698772
-698787
-698796
-698864
-698992
-699095
-699001
-699092
-699207
-699317
-699366
-699572
-699553
-699477
-699607
-699678
-699776
-699725
-699647
-699786
-699975
-699983
-699892
-699963
-700047
-700094
-700181
-700285
-700180
-700587
-700646
-700620
-700797
-700771
-700804
-700851
-700808
-700827
-700882
-700920
-700984
-700947
-700980
-701126
-701111
-701189
-701111
-701119
-701265
-701343
-701407
-701300
-701418
-701534
-701531
-701565
-701537
-701654
-701661
-701757
-701792
-701642
-701814
-701840
-701985
-702063
-701937
-701945
-702023
-702116
-702127
-702108
-702219
-702241
-702266
-702387
-702305
-702259
-702450
-702622
-702668
-702523
-702587
-702781
-702831
-702825
-702800
-702867
-702902
-702826
-703028
-703062
-703034
-703133
-703189
-703267
-703159
-703333
-703406
-703473
-703569
-703482
-703538
-703746
-703738
-703802
-703815
-703807
-703972
-703964
-704094
-703984
-704071
-704161
-704313
-704310
-704206
-704307
-704426
-704480
-704626
-704605
-704581
-704741
-704844
-704989
-704869
-704870
-704986
-705114
-705199
-704944
-705113
-705316
-705368
-705466
-705450
-705489
-705691
-705683
-705718
-705714
-705765
-705960
-706007
-706118
-706009
-706020
-706508
-706326
-706287
-706234
-706376
-706430
-706472
-706543
-706396
-706289
-706377
-706308
-706299
-706189
-706008
-705980
-705828
-705650
-705353
-705127
-704948
-704703
-704453
-704044
-703634
-703286
-703123
-702836
-702385
-701913
-701570
-701225
-700673
-700297
-699974
-699692
-699388
-699048
-698592
-698260
-698028
-697626
-697423
-697001
-696661
-696555
-696398
-696220
-695935
-695766
-695635
-695642
-695526
-695313
-695151
-695286
-695185
-695220
-695170
-695051
-695175
-695234
-695270
-695204
-695256
-695338
-695508
-695649
-695525
-695545
-695695
-695805
-695905
-695929
-695998
-696179
-696361
-696357
-696352
-696494
-696675
-696710
-696678
-696697
-696773
-697011
-697048
-697118
-697038
-697021
-697095
-697212
-697191
-697214
-697168
-697247
-697317
-697286
-697170
-697106
-697109
-697199
-697279
-697068
-697056
-697080
-697069
-697099
-696954
-696790
-696869
-696837
-696809
-696636
-696478
-696569
-696559
-696533
-696394
-696357
-696392
-696383
-696352
-696314
-696284
-696361
-696357
-696464
-696331
-696333
-696425
-696443
-696536
-696467
-696540
-696668
-696743
-696900
-696860
-696879
-697066
-697096
-697314
-697234
-697279
-697422
-697592
-697669
-697700
-697759
-697890
-698047
-698180
-698089
-698099
-698222
-698309
-698355
-698328
-698308
-698433
-698439
-698589
-698471
-698614
-698693
-698699
-698540
-698546
-698562
-698700
-698710
-698618
-698610
-698586
-699246
-698812
-698568
-698362
-698549
-698557
-698636
-698474
-698355
-698472
-698490
-698436
-698320
-698242
-698372
-698442
-698538
-698373
-698303
-698421
-698506
-698514
-698472
-698396
-698584
-698641
-698579
-698511
-698498
-698634
-698710
-698751
-698557
-698587
-698726
-699191
-699071
-699035
-698917
-699165
-699253
-699245
-699323
-699244
-699318
-699489
-699608
-699596
-699545
-699677
-699780
-699933
-699967
-700108
-700187
-700094
-700251
-700344
-700477
-700402
-700657
-700718
-700726
-700831
-700927
-701018
-701017
-700976
-701145
-701313
-701376
-701363
-701515
-702100
-701816
-701720
-701662
-701753
-701800
-701966
-701958
-701908
-702167
-702219
-702351
-702339
-702245
-702374
-702470
-702490
-702526
-702432
-702650
-702781
-702799
-702849
-702771
-702953
-702990
-703120
-703082
-702984
-703182
-703308
-703309
-703305
-703275
-703430
-703457
-703601
-703582
-703579
-703709
-703767
-703869
-703851
-703745
-703991
-704086
-704230
-704648
-704256
-704300
-704393
-704449
-704476
-704393
-704524
-704610
-704790
-704598
-704673
-704878
-704946
-705037
-705013
-705036
-705145
-705234
-705360
-705172
-705186
-705334
-705435
-705471
-705521
-705467
-705557
-705670
-705737
-705651
-705667
-705767
-705905
-705873
-705917
-705849
-705851
-705951
-706131
-706038
-706087
-706176
-706265
-706328
-706263
-706155
-706325
-706300
-706366
-706351
-706334
-706493
-706514
-706510
-706467
-706411
-706545
-706534
-706605
-706640
-706287
-706614
-706689
-706851
-706861
-706731
-706874
-706978
-707041
-707010
-706963
-707048
-707199
-707330
-707355
-707161
-707327
-707380
-707429
-707514
-707504
-707639
-707715
-707728
-707804
-707807
-707999
-708106
-708193
-708270
-708208
-708339
-708464
-708552
-708622
-708579
-708759
-708791
-708889
-708946
-708865
-709085
-709176
-709318
-709260
-709194
-709342
-709350
-709499
-709608
-709556
-709599
-709673
-709776
-709788
-709666
-709807
-709709
-709755
-709589
-709315
-709401
-709276
-709056
-708783
-708501
-708287
-707959
-707773
-707389
-706903
-706733
-706331
-705966
-705574
-705154
-704843
-704472
-704070
-703638
-703140
-702869
-702475
-702149
-701733
-701298
-700978
-700766
-700489
-700211
-699740
-699580
-699471
-699253
-699039
-698747
-698723
-698601
-698591
-698481
-698222
-698291
-698324
-698255
-698326
-698117
-698219
-698325
-698299
-698305
-698261
-698365
-698565
-698591
-698662
-699042
-698828
-698806
-698962
-699132
-698972
-699181
-699329
-699518
-699613
-699536
-699597
-699705
-699855
-699910
-699831
-699923
-700066
-700164
-700225
-700127
-700210
-700277
-700214
-700352
-700233
-700316
-700241
-700299
-700119
-700242
-700248
-700168
-700187
-699993
-700118
-700080
-700072
-699998
-699750
-699793
-699705
-699689
-699625
-699411
-699482
-699519
-699505
-699263
-699285
-699323
-699290
-699323
-699296
-699124
-699226
-699178
-699257
-699160
-699073
-699232
-699264
-699285
-699306
-699298
-699360
-699463
-699531
-699594
-699589
-699737
-699727
-699910
-699929
-699976
-700219
-700273
-700460
-700507
-700357
-700590
-700739
-700793
-700971
-700913
-701033
-701111
-701139
-701303
-701129
-701429
-701466
-701406
-701535
-701411
-701555
-701588
-701720
-701727
-701732
-701823
-701725
-701748
-701890
-701764
-701861
-701867
-701948
-701988
-701760
-701893
-701860
-701799
-701944
-701794
-701886
-701855
-702528
-702126
-701840
-701868
-701883
-702003
-701987
-701904
-701939
-702013
-702005
-701978
-701951
-702074
-702023
-702127
-702147
-701983
-702097
-702234
-702357
-702406
-702263
-702406
-702494
-702548
-702588
-702477
-702634
-702734
-702828
-702834
-702720
-702936
-703037
-703018
-703071
-702955
-703113
-703180
-703287
-703410
-703336
-703450
-703504
-703551
-703549
-703574
-703755
-703806
-703898
-703879
-703809
-704057
-704104
-704140
-704097
-704309
-704327
-704483
-704642
-704410
-704592
-704530
-704670
-704800
-704633
-704828
-705214
-705016
-705109
-705024
-705129
-705184
-705196
-705295
-705234
-705357
-705489
-705606
-705586
-705433
-705773
-705782
-705889
-706031
-705888
-706066
-706102
-706199
-706326
-706217
-706345
-706397
-706473
-706541
-706483
-706546
-706698
-706850
-706905
-706752
-706903
-707060
-707167
-707143
-707130
-707292
-707312
-707317
-707482
-707378
-707535
-707558
-707678
-707693
-707645
-707833
-707866
-708012
-707958
-707899
-708033
-708065
-708154
-708276
-708183
-708300
-708419
-708420
-708495
-708296
-708442
-708630
-708723
-708746
-708549
-708687
-708816
-708922
-709013
-708890
-709045
-709123
-709114
-709249
-709186
-709293
-709279
-709327
-709461
-709418
-709426
-709506
-709410
-709505
-709539
-709660
-709769
-709815
-709851
-709776
-709991
-710030
-709829
-710101
-710107
-710236
-710240
-710265
-710438
-710256
-710478
-710530
-710506
-710571
-710569
-710726
-710834
-710922
-710915
-710846
-711006
-711004
-711154
-711149
-711145
-711257
-711261
-711341
-711364
-711348
-711715
-711862
-711872
-712021
-711882
-711995
-712091
-712148
-712146
-712093
-712322
-712313
-712517
-712345
-712508
-712720
-712644
-712869
-712902
-713005
-713134
-712998
-713079
-713193
-713355
-713407
-713304
-713465
-713528
-713716
-713729
-713666
-713802
-713828
-713964
-714024
-713904
-714104
-714215
-714325
-714342
-714292
-714467
-714502
-714587
-714543
-714556
-714693
-714735
-714901
-714884
-714791
-714869
-714973
-715032
-714979
-714939
-714909
-714843
-714692
-714645
-714394
-714229
-714099
-713892
-713499
-713120
-712947
-712709
-712311
-712032
-711467
-711174
-711019
-710522
-710084
-709488
-709143
-708865
-708412
-708067
-707490
-707226
-706908
-706569
-706075
-705756
-705477
-705290
-704952
-704677
-704369
-704141
-704011
-703794
-703668
-703466
-703334
-703304
-703213
-703115
-703045
-703126
-703080
-703104
-703066
-703018
-703136
-703010
-703097
-703237
-703171
-703409
-703544
-703515
-703595
-703550
-703756
-703829
-704009
-704170
-704109
-704222
-704297
-704494
-704624
-704557
-704678
-704809
-704933
-704969
-704940
-705093
-705115
-705174
-705263
-705126
-705327
-705310
-705375
-705361
-705273
-705453
-705382
-705412
-705467
-705293
-705352
-705280
-705295
-705250
-705052
-705125
-705151
-705092
-705010
-704758
-704786
-704835
-704842
-704793
-704568
-704642
-704568
-704550
-704533
-704342
-704431
-704349
-704283
-704300
-704204
-704323
-704205
-704294
-704352
-704193
-704261
-704336
-704365
-704444
-704428
-704476
-704550
-704674
-704673
-704658
-704781
-704857
-705069
-705125
-705045
-705299
-705378
-705467
-705559
-705538
-705731
-705794
-705930
-706055
-706286
-706219
-706527
-706371
-706478
-706534
-706468
-706649
-706648
-706701
-706741
-706671
-706482
-706732
-706756
-706766
-706708
-706670
-706824
-706713
-706695
-706647
-706802
-706815
-706804
-706857
-706691
-706656
-706794
-706708
-706691
-706595
-706756
-706810
-706775
-706722
-706611
-706755
-706733
-706846
-706865
-706708
-706804
-706935
-707334
-707134
-706954
-707026
-706945
-707063
-707167
-706938
-707074
-707173
-707135
-707234
-707177
-707261
-707318
-707375
-707404
-707429
-707568
-707679
-707670
-707691
-707653
-707851
-707844
-707903
-708010
-707946
-708055
-708131
-708203
-708243
-708211
-708222
-708343
-708840
-708605
-708443
-708529
-708740
-708799
-708947
-708736
-708864
-708903
-709073
-709152
-709088
-709155
-709261
-709303
-709387
-709237
-709342
-709475
-709646
-709701
-709556
-709752
-709822
-709845
-709911
-709859
-709909
-709987
-710056
-710173
-710164
-710288
-710328
-710402
-710466
-710439
-710493
-710619
-710621
-710709
-710680
-710876
-710884
-711038
-710963
-710874
-711017
-711053
-711145
-711156
-711119
-711296
-711327
-711470
-711620
-711482
-711588
-711584
-711708
-711777
-711644
-711768
-711851
-711956
-711953
-711888
-712003
-712050
-712133
-712249
-712100
-712184
-712258
-712326
-712351
-712393
-712441
-712512
-712591
-712675
-712587
-712609
-712763
-712813
-712740
-712813
-712917
-713014
-713034
-712878
-713024
-713066
-713153
-713234
-713119
-713209
-713363
-713476
-713403
-713420
-713521
-713591
-713641
-713747
-713610
-713682
-713686
-713781
-713845
-713696
-713771
-713984
-714006
-714099
-714015
-714042
-714176
-714275
-714248
-714117
-714227
-714406
-714470
-714462
-714357
-714424
-714536
-714591
-714663
-714564
-714715
-714763
-714728
-714835
-714830
-714817
-715059
-715068
-715178
-715009
-715131
-715140
-715202
-715421
-715274
-715414
-715477
-715547
-715652
-715574
-715619
-715758
-715825
-715717
-715762
-715862
-715937
-716053
-716107
-716082
-716134
-716325
-716307
-716431
-716417
-716469
-716568
-716611
-716703
-716661
-716733
-716898
-717013
-717001
-716995
-717007
-717068
-717112
-717337
-717167
-717209
-717429
-717552
-717650
-717584
-717589
-717668
-717738
-717736
-717817
-717960
-718011
-718034
-718122
-718027
-718141
-718161
-718295
-718331
-718121
-718111
-718205
-718195
-718147
-717941
-717745
-717550
-717501
-717177
-716909
-716600
-716410
-716169
-715769
-715303
-714918
-714620
-714343
-714018
-712012
-711500
-711028
-710710
-710393
-710019
-709681
-709193
-708929
-708624
-708394
-708044
-707786
-707530
-707284
-707084
-706776
-706638
-706667
-706529
-706401
-706216
-706050
-706204
-706234
-706156
-706081
-706004
-706068
-706537
-706387
-706306
-706201
-706323
-706392
-706530
-706544
-706568
-706805
-706856
-706905
-706934
-706970
-707164
-707276
-707293
-707363
-707368
-707596
-707777
-707881
-707850
-707825
-707979
-708009
-708105
-708062
-708016
-708247
-708293
-708354
-708257
-708244
-708387
-708335
-708483
-708329
-708220
-708375
-708355
-708406
-708313
-708224
-708271
-708286
-708158
-708059
-707971
-708025
-708047
-707929
-707869
-707712
-707803
-707764
-707796
-707643
-707482
-707594
-707607
-707628
-707437
-707306
-707347
-707462
-707213
-707503
-707535
-707571
-707707
-707670
-707729
-707851
-707944
-708089
-708061
-708097
-708208
-708279
-708487
-708459
-708460
-708666
-708697
-708834
-708830
-708854
-709079
-709111
-709141
-709199
-709130
-709307
-709454
-709414
-709247
-709261
-709401
-709520
-709678
-709552
-709424
-709496
-709618
-709740
-709684
-709642
-709671
-709758
-709716
-709562
-709659
-709685
-709802
-709728
-709586
-709722
-709702
-709642
-709612
-709538
-709597
-709703
-709708
-709593
-709546
-709623
-709630
-709735
-709725
-709583
-709665
-709778
-709863
-709748
-709698
-709684
-709744
-709973
-709836
-709846
-709911
-709939
-710120
-709972
-709866
-710130
-710077
-710241
-710180
-710179
-710352
-710401
-710511
-710435
-710341
-710577
-710631
-710762
-711240
-710816
-710901
-710872
-710901
-710973
-710894
-711022
-711100
-711202
-711296
-711170
-711394
-711438
-711575
-711625
-711726
-711738
-711755
-711845
-711956
-711777
-711884
-711942
-712069
-712108
-712122
-712212
-712277
-712286
-712408
-712222
-712461
-712540
-712744
-712771
-712691
-712788
-712781
-712906
-712949
-712971
-712987
-713179
-713193
-713259
-713157
-713309
-713331
-713532
-713465
-713407
-713499
-713664
-713752
-713693
-713597
-713775
-713800
-713864
-714022
-713851
-713981
-714169
-714200
-714210
-714126
-714295
-714300
-714338
-714416
-714326
-714476
-714659
-714721
-714707
-714552
-714683
-714615
-714825
-714901
-714892
-715041
-715032
-715150
-715176
-715038
-715153
-715298
-715415
-715347
-715283
-715465
-715521
-715604
-715589
-715499
-715729
-715758
-715819
-715872
-715748
-715931
-716057
-716003
-716065
-716071
-716118
-716207
-716223
-716226
-716285
-716354
-716415
-716407
-716399
-716323
-716579
-716613
-716578
-716680
-716530
-716798
-716878
-716925
-716885
-716864
-716919
-717001
-717078
-717100
-717002
-717189
-717293
-717361
-717335
-717296
-717435
-717478
-717512
-717539
-717548
-717589
-717721
-717751
-717872
-717769
-717890
-717975
-718136
-718696
-718201
-718239
-718312
-718361
-718344
-718248
-718405
-718400
-718502
-718532
-718444
-718692
-718712
-718865
-718925
-718770
-718819
-718992
-719002
-719018
-719005
-719270
-719333
-719426
-719309
-719431
-719442
-719493
-719613
-719595
-719689
-719791
-719907
-719885
-719786
-719953
-720066
-720040
-720106
-720071
-720350
-720368
-720355
-720491
-720246
-720392
-720549
-720456
-720623
-720464
-720743
-720775
-720860
-720870
-720825
-721028
-720993
-721130
-721182
-721165
-721197
-721169
-721329
-721423
-721349
-721450
-721480
-721600
-721678
-721516
-721712
-721858
-721902
-721990
-721863
-722034
-722013
-722107
-722230
-722194
-722301
-722478
-722429
-722514
-722574
-722609
-722776
-722840
-722665
-722943
-723035
-723098
-723104
-723049
-723094
-723156
-723228
-723306
-723237
-723307
-723469
-723478
-723560
-723410
-723605
-723544
-723485
-723490
-723271
-723313
-723247
-723013
-722865
-722512
-722397
-722120
-721858
-721482
-720990
-720788
-720413
-720076
-719606
-719113
-718822
-718360
-717982
-717544
-717098
-716687
-716261
-715797
-715461
-714899
-714513
-714158
-713694
-713423
-712873
-712722
-712372
-712147
-711864
-711282
-711285
-711148
-710918
-710812
-710524
-710519
-710503
-710376
-710347
-710289
-710391
-710309
-710288
-710306
-710204
-710404
-710456
-710462
-710477
-710326
-710632
-710775
-710924
-711050
-711056
-711212
-711325
-711424
-711409
-711551
-712218
-712030
-711950
-712162
-712103
-712257
-712391
-712526
-712578
-712540
-712652
-712704
-712735
-712881
-712815
-712878
-712975
-713014
-713083
-712917
-712994
-713058
-713084
-713028
-713034
-713050
-713128
-713087
-713005
-712867
-712873
-712919
-712788
-712637
-712607
-712707
-712727
-712652
-712617
-712340
-712441
-712418
-712451
-712379
-712169
-712293
-712231
-712303
-712104
-712090
-712018
-712070
-712181
-712094
-712243
-712190
-712277
-712328
-712236
-712301
-712366
-712373
-712478
-712449
-712692
-712793
-712844
-712881
-712861
-713096
-713219
-713178
-713250
-713267
-713460
-713422
-713512
-713668
-713500
-713624
-713743
-713768
-713939
-713879
-713989
-714063
-714001
-714113
-713889
-713977
-714068
-714039
-714137
-713936
-714164
-714175
-714180
-714255
-714122
-714171
-714189
-714257
-714271
-714032
-714203
-714129
-714165
-714159
-713948
-714074
-714067
-714072
-714197
-713946
-714062
-714174
-714123
-714158
-713922
-714061
-714122
-714173
-714210
-714107
-714243
-714347
-714356
-714417
-714271
-714339
-714329
-714433
-714446
-714294
-714483
-714548
-714671
-714692
-714505
-714673
-714735
-714692
-714842
-714802
-714894
-715024
-715001
-715060
-715001
-715107
-715183
-715267
-715397
-715335
-715652
-715495
-715650
-715675
-715826
-715869
-716004
-716013
-716152
-716155
-716185
-716187
-716295
-716291
-716380
-716309
-716471
-716542
-716565
-716739
-716587
-716830
-716919
-716944
-716885
-716810
-716984
-717120
-717159
-717320
-717040
-717309
-717731
-717678
-717617
-717731
-717870
-717984
-718053
-717848
-717983
-718080
-718178
-718382
-718180
-718337
-718403
-718458
-718557
-718388
-718513
-718656
-718690
-718833
-718747
-718920
-718926
-718954
-719026
-718896
-719028
-719190
-719216
-719333
-719177
-719254
-719851
-719916
-719685
-719392
-719602
-719679
-719735
-719774
-719704
-719850
-719827
-719858
-719932
-719873
-719952
-719966
-720079
-720144
-720012
-720119
-720162
-720209
-720372
-720310
-720456
-720439
-720443
-720588
-720979
-720710
-720476
-720631
-720768
-720603
-720825
-720929
-720850
-720903
-720737
-720830
-720990
-721109
-721078
-721059
-721158
-721220
-721249
-721269
-721300
-721447
-721483
-721584
-721571
-721380
-721527
-721642
-721667
-721823
-721673
-721885
-721903
-721897
-721983
-721851
-721962
-722164
-722172
-722134
-722253
-722179
-722443
-722546
-722458
-722562
-722620
-722680
-722799
-722770
-722869
-722924
-723041
-722970
-723089
-723202
-723225
-723349
-723179
-723368
-723392
-723464
-723446
-723390
-723577
-723691
-723696
-723757
-723701
-723819
-723948
-724014
-724058
-723891
-724041
-724094
-724101
-724204
-724200
-724072
-724240
-724382
-724407
-724343
-724561
-724672
-724689
-724792
-724653
-724754
-724883
-724925
-725057
-724990
-725126
-725147
-725273
-725378
-725181
-725292
-725363
-725457
-725506
-725366
-725504
-725614
-725755
-725800
-725688
-725876
-725843
-725996
-725981
-725878
-726114
-726101
-726188
-726368
-726688
-726449
-726464
-726586
-726564
-726432
-726634
-726730
-726805
-726802
-726667
-726905
-726917
-726933
-727092
-727076
-727149
-727922
-727500
-727447
-727272
-727462
-727481
-727519
-727642
-727556
-727761
-727844
-727814
-727923
-727889
-727974
-728057
-728041
-728142
-728083
-727934
-728110
-728053
-728069
-727864
-727813
-727777
-727684
-727525
-727149
-726915
-726708
-726445
-726122
-725629
-725424
-725067
-724678
-724325
-724269
-723575
-723110
-722759
-722290
-720115
-719672
-719298
-718934
-718625
-718274
-717748
-717448
-717099
-716858
-716647
-716185
-716019
-715865
-715745
-715596
-715221
-715170
-715080
-714992
-714881
-714690
-714734
-714780
-714702
-714725
-714690
-714739
-714784
-714874
-715010
-714892
-714946
-715085
-715120
-715342
-715284
-715470
-715619
-715662
-716568
-716714
-716900
-716932
-716939
-717149
-717285
-717366
-717449
-717363
-717438
-717599
-717668
-717829
-717703
-717820
-717815
-717944
-717974
-717904
-717914
-717918
-717885
-717827
-717889
-717919
-717864
-717676
-717672
-717747
-717726
-717740
-717510
-717540
-717595
-717624
-717525
-717327
-717412
-717424
-717508
-717470
-717241
-717428
-717465
-717515
-717492
-717366
-717506
-717610
-717677
-717848
-717645
-717539
-717778
-717935
-718004
-717907
-718078
-718157
-718267
-718405
-718255
-718337
-718434
-718494
-718647
-718521
-718562
-718733
-718794
-718905
-718845
-718873
-718857
-718986
-719037
-718895
-718889
-718968
-718993
-719053
-718870
-719002
-718993
-719069
-718929
-719362
-719082
-719094
-719000
-719049
-718889
-718833
-718900
-718846
-718779
-718678
-718745
-718833
-718784
-718858
-718741
-718706
-718815
-718770
-718793
-718747
-718714
-718833
-718851
-718916
-718749
-718748
-718674
-718765
-718839
-718768
-718727
-718897
-719010
-719099
-718996
-718947
-719086
-719123
-719095
-719111
-719083
-719240
-719349
-719366
-719348
-719721
-719513
-719653
-719697
-719642
-719691
-719758
-719832
-719925
-719832
-719595
-719909
-720011
-720150
-720089
-720015
-720257
-720337
-720424
-720460
-720345
-720550
-720574
-720637
-720671
-720680
-720867
-720907
-720969
-720895
-720935
-720965
-721124
-721078
-721067
-721154
-721389
-721432
-721421
-721394
-721371
-721485
-721688
-721735
-721586
-721697
-721761
-721847
-721922
-721870
-721927
-722052
-722167
-722207
-722202
-722192
-722315
-722352
-722505
-722465
-722376
-722569
-722599
-722694
-722662
-722688
-722781
-722845
-722979
-723408
-722983
-723084
-723153
-723152
-723079
-723186
-723201
-723299
-723439
-723357
-723241
-723463
-723482
-723557
-723536
-723516
-723667
-723924
-723970
-723989
-724149
-724185
-724282
-724400
-724408
-724279
-724367
-724407
-724548
-724447
-724392
-724552
-724710
-724714
-724687
-724556
-724733
-724843
-724837
-724747
-724802
-724880
-725008
-725077
-724972
-724992
-725151
-725225
-725280
-725152
-725092
-725188
-725391
-725434
-725407
-725329
-725476
-725500
-725567
-725558
-725466
-725595
-725697
-725839
-725641
-725503
-725727
-725878
-725928
-725919
-725818
-725869
-726047
-726156
-726126
-726036
-726261
-726317
-726225
-726330
-726343
-726497
-726510
-726578
-726566
-726493
-726578
-726744
-726843
-726744
-726754
-726837
-726896
-727035
-727014
-726922
-727064
-727164
-727244
-727194
-727075
-727252
-727309
-727477
-727496
-727306
-727494
-727664
-727691
-727636
-727583
-727783
-727880
-727938
-727877
-727871
-727962
-727991
-728164
-728150
-728095
-728152
-728351
-728452
-728335
-728261
-728466
-728476
-728593
