PPG
-786138
-786197
-786329
-786353
-786151
-786286
-786394
-786454
-786584
-786350
-786379
-786525
-786517
-786628
-786463
-786530
-786687
-786735
-786739
-786663
-786714
-786868
-787486
-787114
-786911
-786838
-786995
-787168
-786876
-787008
-787132
-787236
-787257
-787042
-787093
-787290
-787426
-787507
-787218
-787392
-787488
-787466
-787558
-787376
-787387
-787652
-787658
-787694
-787574
-787670
-787753
-787797
-787913
-787692
-787748
-787888
-788003
-788112
-787933
-787989
-788487
-788199
-788253
-788012
-787982
-788206
-788331
-788429
-788155
-788171
-788281
-788333
-788512
-788298
-788397
-789250
-788919
-788741
-788404
-788415
-788654
-788807
-788862
-788632
-788660
-788794
-788869
-788994
-788777
-788677
-788985
-788999
-789149
-788964
-788966
-789033
-789148
-789192
-789079
-789010
-789326
-789349
-789379
-789171
-789114
-789406
-789363
-789528
-789329
-789317
-789537
-789633
-789629
-789517
-789526
-789622
-789815
-789846
-789676
-789615
-789745
-789898
-789953
-789782
-789655
-789919
-789888
-789988
-789744
-789849
-790013
-790131
-790157
-790025
-790037
-790179
-789937
-790132
-790040
-790046
-790290
-790328
-790353
-790200
-790132
-790393
-790409
-790547
-790405
-790362
-790524
-790650
-790609
-790525
-790496
-790686
-790772
-790791
-790647
-790653
-790893
-790952
-791073
-790813
-790821
-791043
-791108
-791232
-790916
-790922
-791157
-791229
-791275
-791116
-790891
-791321
-791483
-791538
-791316
-791335
-791583
-791679
-791741
-791529
-791527
-791740
-791783
-791854
-791687
-791646
-791944
-792041
-792181
-792018
-791900
-792164
-792051
-792253
-792117
-792090
-792226
-792349
-792516
-792312
-792164
-792323
-792437
-792362
-792208
-792060
-792134
-791967
-792016
-791521
-791257
-791304
-791163
-790797
-790424
-790000
-789929
-789774
-790089
-789171
-788772
-788568
-788401
-788191
-787778
-787311
-787196
-786998
-786777
-786483
-786092
-786159
-785960
-785867
-785631
-785389
-785358
-785257
-785207
-784966
-784643
-784897
-785048
-785151
-784837
-784665
-784884
-785720
-785353
-785040
-784884
-785072
-785230
-785293
-785115
-785070
-785208
-785357
-785567
-785430
-785326
-785407
-785582
-785657
-785448
-785360
-785688
-785660
-785894
-785775
-785637
-785871
-785964
-785953
-785881
-785774
-785947
-786061
-786123
-785839
-785732
-785970
-786016
-786116
-786029
-785828
-786055
-786091
-786078
-785995
-785739
-785997
-786047
-786103
-785988
-785804
-785932
-786053
-786155
-786073
-785895
-786099
-786223
-786294
-786116
-785938
-786178
-786199
-786439
-786376
-786206
-786431
-786510
-786736
-786623
-786621
-786789
-786912
-787152
-787030
-786881
-787131
-787340
-787549
-787521
-787408
-787714
-787822
-787907
-787888
-787860
-788038
-788187
-788345
-788407
-788304
-788500
-788530
-788715
-788619
-788478
-788768
-788873
-789025
-788909
-788715
-788961
-788984
-789174
-789011
-788855
-789077
-789123
-789198
-789167
-788893
-789098
-788989
-789120
-789206
-788939
-789108
-789158
-789354
-789256
-789062
-789180
-789191
-789362
-789182
-788774
-789068
-789202
-789244
-789198
-789047
-789191
-789214
-789254
-789273
-789108
-789345
-789360
-789484
-789407
-789167
-789329
-789320
-789466
-789304
-789137
-789296
-789430
-789605
-789501
-789320
-789396
-789482
-789677
-789397
-789423
-789642
-789806
-789922
-789862
-789694
-789901
-789898
-789990
-790058
-789868
-790120
-790122
-790237
-790136
-789996
-790219
-790264
-790437
-790289
-790162
-790461
-790581
-790659
-790670
-790465
-790655
-790665
-790770
-790775
-790608
-790840
-791025
-791104
-791041
-790951
-791213
-791276
-791291
-791351
-791129
-791317
-791434
-791520
-791470
-791336
-791617
-791591
-791706
-791668
-791449
-791582
-791769
-791875
-791877
-791617
-791808
-791908
-792032
-791996
-791764
-792044
-792085
-792143
-792064
-791882
-792120
-792171
-792275
-792318
-792047
-792283
-792333
-792461
-792185
-792461
-792410
-792475
-792570
-792325
-792574
-792447
-792662
-792760
-792487
-792646
-792672
-792771
-792880
-792712
-792793
-792895
-792965
-793019
-792818
-792981
-793072
-793267
-793173
-792877
-793165
-793206
-793400
-793178
-793120
-793389
-793485
-793511
-793551
-793341
-793530
-793683
-793770
-793711
-793381
-793690
-793817
-793905
-793940
-793589
-793878
-793974
-793988
-794041
-793828
-794017
-793991
-794101
-794228
-794030
-794109
-794265
-794255
-794254
-794033
-794199
-794362
-794321
-794494
-794232
-794445
-794527
-794604
-794606
-794228
-794507
-794646
-794716
-794881
-794687
-794789
-794778
-794842
-795218
-794846
-795008
-795104
-795063
-795104
-794846
-795007
-795065
-795174
-795143
-794982
-795168
-795269
-795371
-795364
-795013
-795398
-795476
-795468
-795537
-795327
-795535
-795514
-795543
-795635
-795409
-795615
-795737
-795792
-795770
-795569
-795784
-795827
-795894
-796014
-795853
-796043
-796153
-796165
-796183
-796020
-796289
-796222
-796207
-796307
-796196
-796460
-796432
-796443
-796508
-796256
-796460
-796537
-797120
-796826
-796455
-796720
-796762
-796713
-796870
-796491
-797502
-797015
-796896
-796706
-796704
-796757
-796635
-796472
-796420
-796035
-796052
-795919
-795579
-795466
-794739
-794808
-794525
-794304
-793919
-793569
-793463
-793167
-792930
-792573
-791926
-791900
-791729
-791394
-791180
-790646
-790588
-790407
-790187
-789999
-789530
-789655
-789404
-789381
-789170
-788915
-789014
-788904
-788773
-788844
-788519
-788603
-788737
-788657
-788758
-788476
-788562
-788635
-788715
-788705
-788558
-788699
-788842
-788944
-788742
-789060
-789159
-789113
-789261
-788977
-789236
-789206
-789330
-789315
-789201
-789246
-789406
-789507
-789589
-789364
-789554
-789681
-789576
-789696
-789448
-789654
-789706
-789556
-789603
-789343
-789567
-789564
-789493
-789695
-789404
-789638
-789602
-789576
-789693
-789406
-789610
-789591
-789597
-789599
-789352
-789587
-789577
-789511
-789646
-789318
-789594
-789703
-789724
-789795
-789607
-789747
-789893
-789882
-790037
-789771
-789991
-790182
-790285
-790451
-790101
-790321
-790474
-790507
-790631
-790475
-790822
-790840
-790852
-790946
-790773
-790986
-791052
-791156
-791098
-791038
-791298
-791315
-791465
-791542
-791282
-791513
-791641
-791554
-791517
-791273
-791459
-791527
-791603
-791604
-791353
-791508
-791505
-791475
-791582
-791316
-791470
-791504
-791462
-791620
-791273
-791421
-791419
-791501
-791452
-791246
-791376
-791332
-791347
-791299
-791093
-791260
-791292
-791266
-791432
-791102
-791299
-791266
-791254
-791383
-790985
-791280
-791314
-791239
-791381
-791025
-791304
-791375
-791406
-791342
-791105
-791441
-791480
-791370
-791569
-791166
-791475
-791548
-791554
-791627
-791375
-791637
-791659
-791691
-791899
-791531
-791819
-791837
-791975
-792042
-791727
-792016
-792047
-792085
-792133
-791874
-792208
-792234
-792196
-792336
-792123
-792322
-792327
-792387
-792469
-792249
-792472
-792547
-792583
-792642
-792403
-792551
-792558
-792636
-792731
-792300
-792721
-792707
-792804
-792714
-792612
-792777
-792899
-792897
-792962
-792750
-792955
-792966
-792805
-792965
-792746
-792982
-793019
-793172
-793020
-792972
-793056
-793235
-793230
-793298
-793103
-793299
-793381
-793437
-793564
-793210
-793491
-793523
-793582
-793527
-793168
-793220
-793499
-793320
-793511
-793208
-793605
-793664
-793724
-793843
-793582
-793787
-793859
-793798
-793939
-793668
-793912
-794014
-793995
-794112
-793854
-793920
-794024
-794077
-794260
-793945
-794199
-794240
-794229
-794214
-794058
-794217
-794274
-794345
-794494
-794188
-794433
-794381
-794511
-794432
-794158
-795339
-794744
-794610
-794724
-794502
-794710
-794690
-794730
-794841
-794501
-794631
-794765
-794854
-794891
-794626
-794864
-794883
-794897
-794939
-794591
-794848
-794859
-794900
-794925
-794739
-794965
-795078
-795090
-795121
-794893
-795064
-795209
-795182
-795244
-795088
-795338
-796026
-795563
-795540
-795291
-795351
-795493
-795516
-795649
-795345
-795530
-795526
-795629
-795685
-795467
-795719
-795774
-795753
-795762
-795528
-795829
-796184
-796006
-795999
-795791
-795971
-796057
-796134
-796018
-795914
-796017
-796170
-796234
-796252
-796013
-796153
-796291
-796344
-796334
-796081
-796380
-796419
-796451
-796574
-796314
-796491
-796567
-796624
-796584
-796431
-796548
-796663
-796623
-796622
-796379
-796566
-796563
-796546
-796491
-796039
-796178
-796065
-795822
-795663
-795242
-795197
-795017
-794740
-794498
-793912
-793877
-793569
-793193
-792928
-792406
-792253
-791912
-791638
-791419
-790884
-790815
-790549
-790288
-790058
-789656
-789477
-789284
-789104
-789030
-788618
-788670
-788597
-788446
-788300
-788063
-788079
-788088
-788122
-788028
-787811
-788048
-787964
-788039
-788130
-787788
-788033
-788041
-788168
-788203
-787987
-788129
-788176
-788327
-788378
-788169
-788378
-788372
-788382
-788412
-788280
-788413
-788519
-788549
-788566
-788270
-788395
-788589
-788546
-788636
-788439
-788454
-788562
-788594
-788537
-788299
-788459
-788451
-788454
-788540
-788210
-788349
-788394
-788397
-788424
-788014
-788138
-788234
-788217
-788239
-788042
-788145
-788190
-788232
-788288
-787943
-788072
-788141
-788157
-788156
-787924
-788763
-788376
-788261
-788277
-788057
-788175
-788348
-788349
-788447
-788329
-788479
-788605
-788700
-788651
-788616
-788834
-788874
-789019
-789140
-788862
-789225
-789402
-789367
-789475
-789171
-789399
-789633
-789680
-789755
-789545
-789772
-789757
-789862
-789916
-789744
-789985
-790085
-790138
-790135
-789900
-790037
-790069
-790159
-790188
-789921
-790039
-790080
-790171
-790189
-789866
-790003
-790021
-790102
-790162
-789953
-790102
-789988
-789997
-789998
-789766
-789842
-789984
-790008
-789954
-789721
-789757
-789812
-789934
-789945
-789750
-789803
-789855
-789898
-789737
-789693
-789826
-789852
-789995
-790001
-789794
-789882
-789871
-789931
-789972
-789714
-789878
-789952
-789950
-790065
-789834
-790030
-790076
-790150
-790232
-790013
-790167
-790233
-790354
-790440
-790144
-790246
-790391
-790437
-790492
-790336
-790501
-790557
-790705
-790765
-790517
-790614
-790805
-790866
-790939
-790784
-790907
-791007
-791083
-791065
-790918
-790956
-790866
-791227
-791298
-791061
-791158
-791251
-791414
-791354
-791185
-791293
-791166
-791428
-791525
-791263
-791085
-791465
-791515
-791594
-791436
-791529
-791618
-791704
-791758
-791483
-791668
-791862
-791821
-791964
-791522
-791749
-791896
-791987
-792137
-791797
-791947
-792138
-792098
-792237
-791994
-792070
-792151
-792236
-792372
-792141
-792208
-792402
-792395
-792389
-792267
-792277
-792459
-792543
-792533
-792339
-792360
-792585
-792662
-792800
-792522
-792644
-792813
-793147
-793053
-792770
-792673
-792860
-792980
-793074
-792874
-792926
-793022
-793028
-793049
-792806
-792932
-793102
-793155
-793198
-793043
-793054
-793170
-793096
-793828
-793261
-793167
-793307
-793369
-793527
-793310
-793299
-793393
-793457
-793394
-793383
-793479
-793638
-793690
-793799
-793630
-793535
-793698
-793725
-793813
-793565
-793635
-793825
-793978
-794097
-793903
-793757
-793974
-794010
-794057
-793840
-793884
-794078
-794163
-794218
-794055
-794080
-794267
-794284
-794423
-794141
-794119
-794375
-794466
-794467
-794375
-794221
-794583
-794596
-794710
-794540
-794447
-794707
-794742
-794750
-794581
-794643
-794795
-794801
-794926
-794707
-794672
-794987
-795025
-795041
-794944
-794836
-795157
-795097
-795115
-795018
-795036
-795222
-795338
-795362
-795131
-795065
-795363
-795461
-795434
-795239
-795233
-795526
-795551
-795601
-795429
-795406
-795636
-795660
-795781
-795579
-795522
-795802
-795762
-795905
-795702
-795683
-795825
-796048
-796146
-795992
-795866
-796079
-796188
-796195
-795744
-795881
-796037
-796120
-796046
-795844
-795625
-795683
-795647
-795502
-795089
-794678
-794693
-794513
-794348
-793891
-793435
-793375
-793134
-792896
-792318
-792522
-791941
-791557
-791325
-791044
-790435
-790247
-789981
-789776
-789360
-788838
-788802
-788653
-788533
-788130
-787737
-787892
-787652
-787714
-787445
-787162
-787318
-787239
-787367
-787131
-786949
-787076
-787018
-787173
-786917
-786758
-786970
-787003
-787047
-786984
-786792
-787005
-787104
-787157
-787079
-786913
-787072
-787239
-787323
-787089
-787060
-787151
-787350
-787466
-787231
-787018
-787351
-787332
-787494
-787278
-787065
-787327
-787352
-787386
-787265
-787004
-787166
-787283
-787322
-787060
-786826
-787037
-787155
-787051
-786999
-786794
-786999
-786912
-787003
-786793
-786571
-786687
-786786
-786837
-786677
-786579
-787161
-786894
-786814
-786688
-786521
-786639
-786713
-786841
-786773
-786607
-786801
-786850
-786983
-786975
-786715
-786962
-786998
-787192
-787106
-786865
-787215
-787318
-787453
-787364
-787290
-787588
-787392
-787653
-787772
-787526
-787874
-787973
-788061
-788015
-787843
-788172
-788178
-788449
-788394
-788126
-788276
-788507
-788520
-788552
-788332
-788545
-788684
-788700
-788684
-788472
-788820
-788842
-788865
-788645
-788522
-788691
-788711
-788805
-788715
-788487
-788737
-788772
-788812
-788739
-788497
-788623
-788669
-788812
-788684
-788456
-788516
-788507
-788605
-788447
-788270
-788402
-788392
-788555
-788509
-788231
-788414
-788433
-788537
-788479
-788187
-788467
-788439
-788494
-788506
-788180
-788460
-788579
-788591
-788548
-788384
-788577
-788584
-788734
-788687
-788410
-788655
-788766
-788770
-788829
-788548
-788799
-788824
-788997
-788936
-788699
-788922
-788976
-789086
-789120
-788921
-789116
-789235
-789303
-789182
-788974
-789246
-789332
-789436
-789347
-789133
-789419
-789580
-789665
-789612
-789303
-789424
-789673
-789806
-789689
-789479
-789715
-789783
-789820
-789878
-789666
-789817
-789935
-789976
-790053
-789814
-789929
-789999
-790151
-790118
-789871
-790116
-790174
-790217
-790196
-790116
-790252
-790337
-790373
-790382
-790119
-790451
-790489
-790571
-790610
-790326
-790597
-790550
-790669
-790678
-790550
-790629
-790728
-790801
-790736
-790594
-790805
-790894
-790957
-790910
-790756
-790993
-791077
-791056
-791120
-790907
-791126
-791225
-791186
-791201
-790927
-791189
-791246
-791415
-791356
-791106
-791355
-791424
-791529
-791489
-791201
-791291
-791480
-791523
-791467
-791242
-791473
-791706
-791743
-791439
-791694
-791777
-791787
-791880
-791636
-791926
-791821
-791957
-791975
-791660
-791895
-792673
-792249
-792131
-791683
-791826
-792029
-792174
-792171
-792051
-792248
-792441
-792287
-792333
-792028
-792329
-792413
-792475
-792377
-792214
-792477
-792542
-792528
-792543
-792263
-792473
-792585
-792590
-792675
-792414
-792625
-792678
-792740
-792810
-792485
-792784
-792850
-793489
-793142
-792758
-792887
-793470
-793181
-793086
-792780
-792904
-792968
-793134
-793155
-793037
-793168
-793148
-793246
-793307
-793040
-793260
-793335
-793334
-793429
-793194
-793457
-793514
-793532
-793565
-793310
-793551
-793522
-793608
-793684
-793406
-793757
-794097
-793928
-793838
-793663
-793866
-793977
-794066
-794048
-793753
-794023
-794065
-794137
-794132
-793851
-794136
-794210
-794252
-794229
-793958
-794158
-794297
-794374
-794375
-794109
-794436
-794456
-794536
-794620
-794350
-794505
-794491
-794651
-794642
-794452
-794621
-794653
-794733
-794812
-794571
-794710
-794782
-794746
-794741
-794444
-794681
-794484
-794398
-794312
-793855
-793834
-793707
-793564
-793323
-792726
-792704
-792487
-792094
-791834
-791178
-791130
-790775
-790492
-790164
-789567
-789594
-789272
-788937
-788726
-788790
-788299
-788027
-787683
-787347
-786907
-786911
-786766
-786633
-786608
-786236
-786205
-786066
-786063
-785922
-785633
-785811
-785762
-785848
-785783
-785515
-785728
-785725
-785689
-785757
-785508
-785729
-785691
-785799
-785802
-785543
-785823
-785869
-785908
-785835
-785508
-785910
-785838
-785852
-785828
-785413
-785777
-785913
-785882
-785998
-785760
-785941
-786042
-786078
-786129
-785766
-785918
-785993
-785875
-785942
-785587
-785801
-785875
-785752
-785766
-785535
-785644
-785591
-785521
-785537
-785247
-785469
-785156
-785467
-785640
-785246
-785369
-785423
-785401
-785492
-785207
-785379
-785325
-785363
-785289
-785082
-785262
-785448
-785447
-785422
-785144
-785434
-785508
-785307
-785490
-785308
-785586
-785635
-785796
-785856
-785738
-785977
-786029
-786124
-786280
-785977
-786265
-786196
-786335
-786213
-786016
-786338
-786424
-786555
-786741
-786365
-786803
-786898
-787100
-787187
-786907
-787032
-787081
-787170
-787277
-786971
-787088
-787119
-787097
-787147
-786884
-787016
-787107
-787139
-787052
-786815
-786902
-786999
-786961
-786920
-786726
-786831
-786798
-786881
-786809
-786525
-786709
-786812
-786798
-786777
-786507
-786623
-786626
-786691
-786601
-786202
-786514
-786604
-786600
-786588
-786379
-786547
-786643
-786575
-786687
-786432
-786589
-786605
-786720
-786696
-786452
-786642
-786813
-786899
-786888
-786724
-786960
-786967
-787032
-787000
-786806
-787015
-787048
-787081
-787150
-786933
-787219
-787252
-787276
-787402
-787253
-787390
-787498
-787445
-787550
-787323
-787589
-787671
-787724
-787737
-787549
-787775
-787864
-787782
-787930
-787750
-787813
-787998
-788062
-788128
-787895
-788018
-787907
-788067
-788258
-788087
-788256
-788307
-788331
-788412
-788183
-788439
-788524
-788421
-788539
-788284
-788585
-788567
-788626
-788685
-788093
-788502
-788632
-788773
-788792
-788546
-788822
-788842
-788850
-788940
-788677
-788837
-788886
-789029
-789050
-788803
-789005
-789107
-789128
-789228
-788997
-789287
-789225
-789331
-789365
-789074
-789373
-789416
-789307
-789403
-789236
-789519
-789623
-789637
-789677
-789527
-789725
-789771
-789857
-789885
-789691
-789876
-789942
-789982
-790157
-789825
-789998
-790141
-790194
-790308
-790016
-790224
-790271
-790327
-790451
-790131
-790346
-790392
-790573
-790559
-790275
-790459
-790570
-790687
-790818
-790537
-790670
-790711
-790742
-790888
-790693
-790969
-791058
-791097
-791176
-790921
-791140
-791195
-791159
-791287
-791082
-791260
-791427
-791492
-791434
-791274
-791270
-791445
-791588
-791674
-791558
-791746
-791726
-791819
-791908
-791678
-791958
-791963
-792115
-792167
-791934
-792061
-792162
-792240
-792021
-792343
-792413
-792420
-792426
-792271
-792493
-792561
-792527
-792690
-792457
-792592
-792694
-792713
-792835
-792616
-792720
-792917
-792892
-793131
-792802
-792971
-793109
-793122
-793208
-793111
-793341
-793406
-793374
-793169
-793203
-793366
-793570
-793579
-793587
-793425
-793669
-793715
-793673
-793761
-793585
-794321
-793991
-793859
-793874
-793645
-793842
-793852
-793840
-793846
-793519
-793537
-793555
-793373
-793280
-792895
-792866
-792762
-792614
-792318
-791834
-791707
-791527
-791201
-790953
-790401
-790317
-790093
-789748
-789425
-788868
-788712
-788540
-788206
-788071
-787579
-787452
-787327
-787170
-786947
-786581
-786533
-786391
-786336
-786692
-785971
-785888
-785781
-785755
-785711
-785483
-785564
-785614
-785625
-785664
-785427
-785507
-785561
-785688
-785642
-785423
-785550
-785732
-785731
-785683
-785581
-785666
-785822
-785762
-785910
-785625
-785793
-785819
-785978
-786079
-785898
-785893
-786043
-785888
-786025
-785805
-785870
-786063
-786047
-786062
-785842
-785945
-786045
-786026
-786053
-785819
-785852
-785943
-786011
-786013
-785773
-785873
-785909
-785904
-785956
-785717
-785787
-785913
-785830
-785640
-785553
-785620
-785864
-785894
-786055
-785782
-785831
-785995
-786131
-786127
-785901
-786015
-786159
-786287
-786374
-786188
-786206
-786420
-786482
-786656
-786602
-786708
-786829
-786965
-787044
-787531
-787239
-787215
-787389
-787359
-787265
-787442
-787581
-787715
-787871
-787652
-787670
-787885
-787988
-788108
-787964
-787963
-788134
-788144
-788147
-787919
-788080
-788244
-788015
-788205
-788029
-788079
-788236
-788367
-788104
-788089
-788373
-788301
-788635
-788177
-788131
-788156
-788267
-788249
-788045
-788070
-788243
-788251
-788367
-788089
-787983
-788063
-788178
-788304
-788138
-788041
-788116
-788246
-788623
-788147
-788004
-788169
-788314
-788321
-788193
-788234
-788212
-788408
-788460
-788214
-788357
-788397
-788748
-788738
-788549
-788438
-788681
-788861
-788893
-788648
-788613
-788869
-789012
-789053
-788837
-788899
-789103
-789195
-789297
-789114
-788953
-789836
-789573
-789373
-789269
-789897
-789689
-789690
-789738
-789622
-789449
-789790
-789935
-790027
-789741
-789688
-789902
-789986
-790262
-789946
-789943
-790160
-790203
-790435
-790196
-790190
-790408
-790310
-790503
-790396
-790309
-790469
-790685
-790746
-790540
-790493
-790568
-790764
-790908
-790762
-790751
-790910
-791036
-791063
-791022
-790928
-791063
-791225
-791265
-791129
-791019
-791224
-791352
-791451
-791403
-791232
-791500
-791563
-791661
-791482
-791398
-792066
-791864
-792427
-791985
-791766
-791969
-791984
-792104
-791961
-791826
-792128
-792229
-792253
-792200
-792048
-792320
-792399
-792435
-792215
-792273
-792416
-792574
-792600
-792481
-792454
-792684
-792754
-792815
-792640
-792542
-792826
-792911
-793054
-792844
-792723
-793021
-793187
-793227
-793139
-793005
-793211
-793356
-793328
-793207
-793190
-793313
-793437
-793545
-793341
-793276
-793576
-793589
-793690
-793572
-793484
-793679
-793730
-793939
-793690
-793591
-793854
-793920
-794059
-793998
-793855
-794098
-794216
-794260
-794107
-793896
-794260
-794313
-794378
-794260
-794134
-794408
-794454
-794557
-794526
-794443
-794612
-794676
-794864
-794714
-794539
-794810
-794886
-795165
-794905
-794682
-794909
-795166
-795349
-795228
-795015
-795319
-795293
-795346
-795371
-795253
-795369
-795366
-795599
-795630
-795414
-795585
-795661
-795848
-795763
-795605
-795885
-795960
-796154
-796021
-795903
-796112
-796231
-796360
-796273
-796046
-796347
-796513
-796661
-796586
-796370
-796661
-796763
-796799
-796699
-796500
-796764
-796786
-797002
-796935
-796640
-796856
-796798
-796841
-796702
-796477
-796507
-796537
-796365
-796070
-795837
-795705
-795467
-795325
-794943
-794511
-794440
-794123
-793903
-793488
-793001
-792943
-792642
-792436
-792060
-791375
-791253
-790963
-790927
-790530
-790050
-790077
-789937
-789689
-789435
-788966
-788990
-788927
-788850
-788590
-788241
-788439
-788468
-788494
-788298
-788059
-788131
-788127
-788139
-788152
-787955
-788087
-788108
-788281
-788134
-787883
-788107
-788212
-788254
-788056
-787918
-788108
-788224
-788335
-788228
-788058
-788271
-788309
-788418
-788268
-788102
-788318
-788424
-788447
-788429
-788146
-788321
-788315
-788319
-788288
-787995
-788255
-788109
-788211
-788171
-787968
-788121
-788094
-788140
-788151
-787766
-787792
-787885
-787994
-787950
-788188
-787968
-787886
-787852
-787652
-787497
-787715
-787752
-787844
-787749
-787494
-787619
-787623
-787811
-787829
-787619
-787882
-787831
-787925
-787917
-787654
-787900
-787960
-788016
-788145
-787903
-788234
-788387
-788390
-788478
-788297
-788528
-788632
-788796
-788958
-788800
-788966
-789093
-789354
-789274
-789192
-789381
-789488
-789652
-789722
-789585
-789751
-789862
-789946
-790080
-789841
-790153
-790178
-790249
-790327
-790051
-790349
-790374
-790421
-790439
-790244
-790392
-790522
-790608
-790667
-790427
-790585
-790617
-790699
-790638
-790274
-790477
-790619
-790523
-790571
-790296
-790437
-790469
-790520
-790531
-790196
-790376
-790420
-790494
-790441
-790154
-790417
-790365
-790353
-790454
-790223
-790458
-790478
-790388
-790466
-790166
-790471
-790594
-790601
-790630
-790348
-790564
-790524
-790545
-790614
-790468
-790629
-790717
-790702
-790803
-790601
-790778
-790816
-790908
-791025
-790832
-791009
-791051
-791130
-791253
-790977
-791268
-791366
-791337
-791496
-791239
-791406
-791466
-791612
-791633
-791432
-791736
-791836
-791792
-791836
-791602
-791936
-791930
-792044
-792081
-791800
-792105
-792089
-792813
-792444
-792062
-792332
-792417
-792362
-792458
-792190
-792534
-792607
-792721
-792779
-792486
-792710
-792750
-792908
-792972
-792650
-792823
-793097
-793047
-793180
-792884
-793138
-793261
-793353
-793390
-793096
-793413
-793424
-793470
-793535
-793309
-793530
-793718
-793657
-793775
-793504
-793774
-793784
-793817
-794048
-793794
-793920
-794077
-793994
-794118
-793943
-794140
-794237
-794276
-794291
-794038
-794327
-794381
-794483
-794487
-794346
-794528
-794500
-794715
-794766
-794560
-794807
-794809
-794894
-794912
-794708
-795012
-794958
-795080
-795070
-794781
-795073
-795083
-795172
-795204
-795047
-795246
-795221
-795377
-795317
-795151
-795511
-795552
-795530
-795669
-795375
-795630
-795631
-795664
-795789
-795632
-795856
-795975
-795917
-795898
-795651
-795925
-796093
-796089
-796180
-796073
-796208
-796170
-796272
-796397
-796133
-796393
-796488
-796467
-796505
-796259
-796627
-796623
-796676
-796807
-796500
-796736
-796850
-796845
-796989
-796772
-796908
-796926
-796975
-797046
-796767
-797087
-797148
-797173
-797335
-797036
-797368
-797335
-797323
-797465
-797301
-797583
-797597
-797624
-797690
-797436
-797536
-797579
-797792
-797890
-797555
-797850
-797975
-798007
-798119
-797799
-797980
-798150
-798240
-798137
-798035
-798234
-798313
-798479
-798614
-798299
-798503
-798561
-798403
-798620
-798408
-798713
-798756
-798791
-799006
-798603
-798816
-798925
-798923
-798995
-798752
-798768
-798879
-798953
-798932
-798679
-798696
-798630
-798564
-798367
-797924
-797793
-797692
-797523
-797299
-796729
-796585
-796367
-796629
-795872
-795228
-795083
-794871
-794509
-794098
-793590
-793462
-793253
-792979
-792723
-792106
-792047
-791923
-791682
-791441
-790983
-790972
-790826
-790774
-790710
-790205
-790407
-790335
-790237
-790320
-789934
-789983
-789945
-790017
-790081
-789749
-790014
-789940
-789993
-790143
-789803
-790044
-790173
-790302
-789990
-790201
-790352
-790449
-790488
-790224
-790467
-790374
-790389
-790415
-790287
-790465
-790450
-790503
-790573
-790253
-790411
-790556
-790534
-790464
-790208
-790396
-790520
-790556
-790507
-790162
-790327
-790329
-790345
-790408
-790016
-790222
-790285
-790264
-790430
-789976
-790184
-790261
-790159
-790015
-789870
-790014
-790202
-790161
-790293
-789950
-790157
-790217
-790317
-790365
-790046
-790202
-790225
-790373
-790491
-790247
-790570
-790632
-790571
-790691
-790592
-790756
-790951
-791056
-791103
-790851
-791095
-791329
-791429
-791417
-791304
-791549
-791682
-791839
-791915
-791735
-791981
-792129
-792101
-792081
-791924
-792178
-792460
-792434
-792478
-792180
-792469
-792510
-792546
-792593
-792418
-792560
-792617
-792621
-792765
-792527
-792598
-792607
-792638
-792672
-792372
-792510
-792594
-792632
-792691
-792324
-792507
-792594
-792624
-792632
-792401
-792576
-792553
-792534
-792530
-792232
-792468
-792464
-792427
-792480
-792187
-792440
-792439
-792441
-792509
-792280
-792363
-792367
-792507
-792544
-792294
-792441
-792436
-792508
-792560
-792321
-792439
-792533
-792704
-792635
-792494
-792578
-792769
-792870
-792855
-792682
-792746
-792884
-792926
-793136
-792896
-792963
-793033
-793141
-793239
-792959
-793140
-793262
-793389
-793438
-793144
-793409
-793469
-793488
-793618
-793432
-793511
-793652
-793663
-793803
-793557
-793738
-793580
-793792
-793861
-793684
-793885
-793963
-794026
-794029
-793901
-794016
-794131
-794152
-794113
-793894
-794048
-794147
-794271
-794345
-794097
-794216
-794245
-794289
-794419
-794273
-794385
-794472
-794551
-794933
-794510
-794499
-794590
-794583
-795356
-794655
-794714
-794794
-794864
-794993
-794652
-794777
-794902
-795001
-795025
-794709
-794934
-795076
-795771
-795368
-794988
-795054
-795202
-795223
-795327
-795010
-795072
-795296
-795317
-795377
-795070
-795240
-795378
-795386
-795545
-795351
-795483
-795445
-795582
-795627
-795326
-795466
-795632
-795631
-795714
-795433
-795529
-795746
-795820
-795922
-795597
-795728
-795854
-795980
-796052
-795767
-795949
-796078
-796013
-795984
-795859
-795950
-796029
-796103
-796150
-795894
-796156
-796292
-796223
-796299
-796013
-796180
-796302
-796354
-796455
-796219
-796344
-796406
-796509
-796593
-796338
-796460
-796622
-796654
-796660
-796404
-796634
-796754
-797367
-796974
-796744
-796805
-796940
-796967
-797080
-796901
-796968
-797144
-797042
-797249
-797015
-797069
-797157
-797320
-797345
-797179
-797200
-797393
-797597
-797548
-797311
-797357
-797526
-797383
-797610
-797505
-797520
-797631
-797823
-797817
-797647
-797732
-797819
-797940
-798091
-797857
-798090
-798150
-798259
-798026
-798093
-798129
-798228
-798348
-798096
-798176
-798331
-798391
-798405
-798183
-798072
-798226
-798186
-798248
-797996
-797806
-797845
-797810
-797702
-797268
-797059
-797007
-796743
-796621
-796149
-795747
-795495
-795429
-795108
-794529
-794145
-794062
-793890
-793530
-792946
-792653
-792619
-792413
-792121
-792051
-791597
-791406
-791242
-791157
-790703
-790366
-790374
-790318
-790259
-789950
-789829
-789945
-789917
-789844
-789654
-789507
-789679
-789724
-789481
-789466
-789632
-789761
-789758
-789459
-789417
-789649
-789745
-789852
-789716
-789627
-789854
-790035
-790057
-789818
-789643
-789976
-790111
-790150
-789848
-789791
-789945
-789996
-790184
-790010
-789848
-790097
-790079
-790121
-790001
-790389
-790250
-790132
-790184
-790028
-789688
-789909
-790038
-790028
-789778
-789690
-789809
-789938
-789887
-789799
-789683
-789859
-789730
-789801
-789661
-789628
-789738
-789904
-789987
-789795
-789587
-789817
-789899
-790054
-789832
-789765
-790086
-790182
-790256
-790149
-790106
-790292
-790362
-790534
-790398
-790292
-790643
-790770
-790925
-790768
-790718
-791036
-791073
-791219
-791161
-791039
-791288
-791375
-791556
-791498
-791388
-791586
-791643
-791766
-791687
-791521
-791737
-791938
-792106
-791977
-791731
-791913
-792001
-792059
-792002
-791799
-792043
-792119
-792206
-792092
-791957
-791970
-792082
-792083
-792012
-791876
-792033
-792036
-792010
-791944
-791661
-791927
-791915
-792026
-791939
-791811
-791856
-791942
-791949
-791950
-791774
-791927
-791908
-791957
-791874
-791648
-791916
-791949
-792021
-791909
-791667
-791913
-791896
-792042
-791965
-791752
-792002
-792049
-792129
-792055
-791974
-792161
-792340
-792407
-792293
-792020
-792278
-792422
-792624
-792439
-792349
-792624
-792684
-792845
-792726
-792545
-792775
-792783
-793006
-792939
-792710
-792870
-792982
-793101
-793096
-792993
-793165
-793258
-793311
-793213
-793018
-793287
-793425
-793561
-793229
-793527
-793595
-793787
-793707
-793504
-793733
-793904
-793966
-793800
-793663
-793851
-793998
-794109
-793986
-793851
-794035
-794069
-794157
-794229
-793940
-794214
-794225
-794422
-794342
-794182
-794396
-794462
-794555
-794512
-794304
-794513
-794498
-794691
-794758
-794423
-794705
-794689
-794899
-794822
-794623
-794879
-794978
-795053
-794963
-794776
-794939
-795025
-795223
-795106
-794901
-795221
-795275
-795437
-795308
-795090
-795297
-795314
-795547
-795517
-795301
-795451
-795535
-795739
-795746
-795438
-795643
-795650
-795756
-795808
-795681
-795833
-795912
-796023
-796045
-795805
-795973
-796064
-796214
-796209
-795985
-796223
-796171
-796310
-796308
-796108
-796329
-796378
-796361
-796403
-796164
-796406
-796550
-796626
-796628
-796457
-796540
-796656
-796797
-796744
-796434
-796752
-796768
-796928
-796887
-796663
-796911
-796948
-796992
-797052
-796854
-797044
-797041
-797053
-797151
-796938
-797257
-797308
-797207
-797359
-797104
-797399
-797498
-797460
-797561
-797279
-797548
-797654
-797682
-797761
-797476
-797715
-797738
-797829
-797838
-797623
-797804
-797974
-797953
-798037
-797838
-798056
-798055
-798180
-798217
-797950
-798246
-798307
-798232
-798317
-797933
-798335
-798462
-798511
-798496
-798365
-798542
-798612
-798577
-798710
-798498
-798731
-798691
-798829
-798861
-798636
-798866
-799025
-799075
-799415
-798901
-799191
-799117
-799221
-799230
-798960
-799119
-799105
-799045
-799038
-798712
-798901
-798724
-798608
-798416
-797899
-797948
-797754
-797505
-797180
-796594
-796646
-796284
-796044
-795681
-795053
-795074
-794729
-794414
-794112
-793549
-793489
-792986
-792777
-792585
-792109
-792039
-791721
-791576
-791330
-790863
-790987
-790704
-790604
-790529
-790177
-790220
-790174
-790022
-790041
-789722
-789836
-789821
-789710
-789744
-789580
-789820
-789751
-789775
-789830
-789581
-789794
-789795
-789837
-789785
-789593
-789799
-789952
-789954
-790005
-789759
-790032
-790114
-790122
-790195
-789862
-790171
-790130
-790131
-790121
-789870
-790057
-790013
-790142
-790018
-789828
-790013
-790011
-789923
-789944
-789756
-789867
-789819
-789876
-789892
-789602
-789819
-789784
-789699
-789610
-789423
-789674
-789676
-789661
-789700
-789311
-789511
-789504
-789523
-789596
-789338
-789465
-789508
-789629
-789625
-789218
-789574
-789648
-789721
-789800
-789595
-789667
-789786
-789810
-789952
-789779
-789972
-790074
-790093
-790251
-790013
-790401
-790498
-790516
-790665
-790477
-790736
-790769
-790889
-791014
-790816
-791107
-791166
-791178
-791294
-791128
-791354
-791417
-791547
-791641
-791339
-791620
-791607
-791640
-791765
-791599
-791762
-791893
-791953
-791712
-791913
-792005
-791950
-792043
-791677
-792131
-791952
-791999
-791990
-791697
-791825
-791800
-791881
-791947
-791669
-791791
-791800
-791853
-791899
-791552
-791727
-791792
-791769
-791889
-791554
-791683
-791770
-791802
-791760
-791563
-791700
-791731
-791828
-791853
-791567
-791704
-791741
-791892
-791947
-791666
-791952
-791995
-791938
-792070
-791763
-792004
-792099
-792090
-792130
-791841
-792163
-792248
-792291
-792362
-792078
-792332
-792354
-792427
-792617
-792293
-792584
-792337
-792570
-792667
-792390
-792762
-792804
-792800
-792898
-792663
-792866
-792974
-793026
-793053
-792904
-793089
-793228
-793190
-793230
-793102
-793357
-793414
-793434
-793526
-793250
-793553
-793534
-793590
-793659
-793228
-793633
-793841
-793860
-794022
-793738
-793918
-794000
-793973
-794031
-793741
-794066
-794244
-794149
-794194
-793935
-794246
-794335
-794331
-794315
-794064
-794332
-794398
-794534
-794575
-794244
-794450
-794645
-794647
-794717
-794518
-794662
-794721
-794768
-794950
-794751
-794964
-794950
-794977
-795057
-794818
-795125
-795200
-795253
-795353
-795022
-795283
-795276
-795415
-795502
-795206
-795449
-795433
-795544
-795666
-795417
-795611
-795575
-795719
-795760
-795497
-795756
-795816
-795906
-795898
-795654
-795842
-795974
-796097
-796094
-795872
-796030
-796150
-796079
-796250
-796104
-796315
-796416
-796426
-796505
-796174
-796372
-796550
-796553
-796573
-796284
-796583
-796734
-796724
-796831
-796589
-796778
-796951
-796987
-796978
-796692
-796934
-797035
-797067
-797100
-797009
-797128
-797205
-797258
-797411
-797032
-797252
-797311
-797302
-797344
-797148
-797409
-797443
-797598
-797625
-797415
-797575
-797593
-797618
-797732
-797496
-797647
-797741
-797806
-797976
-797747
-797874
-798045
-798040
-798117
-797929
-798008
-798058
-798173
-798303
-798051
-798193
-798300
-798335
-798339
-798123
-798272
-798451
-798435
-798573
-798381
-798535
-798565
-798689
-798773
-798450
-798650
-798808
-798827
-798970
-798683
-798888
-798976
-799048
-799174
-798870
-799073
-799153
-799199
-799262
-798979
-799187
-799359
-799333
-799423
-799755
-799526
-799535
-799629
-799512
-799398
-799440
-799523
-799515
-799491
-799195
-799277
-799297
-799160
-799056
-798579
-798498
-798389
-798171
-798013
-797411
-797334
-797144
-796753
-796536
-795924
-795769
-795473
-795152
-794777
-794273
-794110
-793859
-793573
-793202
-792728
-792601
-792416
-792317
-792115
-791621
-791441
-791377
-791203
-791056
-790716
-790771
-790789
-790588
-790541
-790724
-790335
-790406
-790354
-790459
-790165
-790275
-790339
-790392
-790435
-790188
-790264
-790430
-790533
-790444
-790256
-790326
-790535
-790536
-790614
-790389
-790445
-790615
-790727
-790850
-790560
-790718
-790757
-790787
-790829
-790613
-790573
-790851
-790970
-790942
-790748
-790787
-790950
-791000
-790996
-790827
-790752
-790849
-790844
-790819
-790566
-790642
-790792
-790818
-790723
-790804
-790525
-790625
-790588
-790759
-791206
-790613
-790625
-790626
-790623
-790449
-790502
-790611
-790734
-791260
-790705
-790540
-790724
-790700
-790903
-790655
-790751
-790899
-791046
-791143
-790998
-791009
-791161
-791256
-791386
-791296
-791373
-791619
-791695
-791922
-791728
-791651
-791917
-791998
-792175
-791978
-791993
-792163
-792377
-792437
-792312
-792354
-792467
-792462
-792745
-792521
-792953
-792879
-792693
-792735
-792562
-792511
-792655
-792697
-792901
-792614
-792641
-792830
-792833
-792795
-792560
-792487
-792711
-792695
-792728
-792579
-792494
-792701
-792817
-792851
-792460
-792419
-792594
-792647
-792645
-792520
-792373
-792631
-792648
-792615
-792419
-792242
-792460
-792597
-792746
-792494
-792336
-792576
-792574
-792607
-792555
-792416
-792609
-792672
-792785
-792684
-792529
-792719
-792830
-792878
-792607
-792574
-792786
-792874
-792979
-792837
-792683
-792884
-792797
-793128
-792948
-792857
-793142
-792693
-793219
-793177
-793119
-793414
-793446
-793519
-793387
-793277
-793989
-793748
-793693
-793525
-793502
-793736
-793778
-793890
-793786
-793435
-793855
-793974
-794009
-793947
-793776
-794086
-794072
-794179
-794154
-793957
-794199
-794312
-794404
-794290
-794091
-794302
-794490
-794670
-794527
-794308
-794600
-794626
-794763
-794635
-794457
-794659
-794860
-794925
-794827
-794621
-794830
-794942
-795039
-795029
-794828
-794964
-795120
-795379
-795131
-794934
-795156
-795210
-795441
-795307
-795097
-795387
-795376
-795476
-795371
-795207
-795405
-795498
-795602
-795601
-795402
-795697
-795740
-795854
-795653
-795528
-795710
-795890
-796036
-795884
-795609
-795915
-795934
-796078
-796042
-795875
-796072
-796155
-796218
-796047
-795931
-796099
-796240
-796267
-796659
-796674
-796545
-796378
-796576
-796397
-796314
-796401
-796477
-796573
-796502
-796367
-796503
-796529
-796677
-796535
-796511
-796682
-796703
-796859
-796795
-796606
-796835
-796831
-796970
-796853
-796609
-796854
-796862
-796999
-797002
-796905
-797042
-797153
-797204
-797146
-797004
-797194
-797335
-797454
-797058
-797007
-797183
-797342
-797373
-797417
-797195
-797318
-797400
-797424
-797492
-797328
-797590
-797683
-797669
-797571
-797375
-797710
-797795
-797817
-797814
-797454
-797730
-797881
-797973
-797855
-797736
-797887
-798508
-798312
-798115
-797899
-798140
-798203
-798239
-798070
-798363
-798291
-798346
-798418
-798232
-798464
-798486
-798599
-798600
-798395
-798478
-798642
-798672
-798756
-798576
-798741
-798749
-798914
-798863
-798555
-798818
-798824
-798954
-798890
-798657
-798681
-798689
-798754
-798681
-798231
-798237
-798053
-798049
-797759
-797236
-797303
-797075
-797093
-796583
-795962
-795922
-795552
-795268
-794916
-794405
-794213
-793908
-793735
-793409
-792878
-792663
-792390
-792290
-792056
-791483
-791410
-791213
-791037
-790895
-790369
-790523
-790463
-790335
-790287
-789879
-789952
-789909
-789916
-789923
-789689
-789795
-789827
-789806
-789903
-789602
-789792
-789748
-789828
-789860
-789664
-789936
-789840
-790027
-789983
-789863
-790049
-790217
-790295
-790370
-790016
-790321
-790374
-790389
-790388
-790226
-790448
-790424
-790593
-790519
-790232
-790503
-790459
-790556
-790522
-790276
-790615
-790550
-790582
-790544
-790251
-790417
-790479
-790431
-790479
-790289
-790432
-790352
-790431
-790507
-790206
-790403
-790425
-790364
-790482
-790155
-790370
-790401
-790381
-790450
-790157
-790417
-790561
-790601
-790656
-790373
-790674
-790665
-790721
-790894
-790625
-790829
-790913
-791059
-791058
-790888
-791233
-791276
-791399
-791400
-791237
-791533
-791571
-791676
-791700
-791576
-791791
-791905
-791911
-792050
-791832
-791965
-792061
-792114
-792168
-791968
-792184
-792211
-792132
-792764
-792148
-792203
-792172
-792171
-792251
-791911
-792104
-792112
-792145
-792728
-792106
-792185
-792075
-792104
-792070
-791846
-791978
-792072
-791995
-792093
-791822
-792041
-792033
-791998
-792010
-791757
-792005
-791986
-792110
-791680
-791868
-791947
-791887
-792020
-791628
-791822
-791887
-791916
-791913
-791655
-791860
-791962
-791940
-792105
-791797
-792072
-792168
-792233
-792218
-791947
-792184
-792255
-792251
-792304
-791986
-792308
-792481
-792406
-792480
-792351
-792495
-792558
-792505
-792674
-792452
-792691
-792724
-792807
-792916
-792710
-792992
-793009
-793020
-793161
-792630
-792972
-793133
-793159
-793324
-793095
-793253
-793304
-793413
-793491
-793262
-793435
-793509
-793555
-793547
-793281
-793588
-793578
-793617
-793676
-793555
-793725
-793733
-793747
-793944
-793701
-793866
-793864
-794034
-794060
-793789
-794042
-794012
-794076
-794000
-793837
-793998
-794176
-794213
-794321
-794178
-794254
-794374
-794167
-794502
-794249
-794453
-794511
-794573
-794613
-794424
-794540
-794669
-794715
-794776
-794501
-794729
-794834
-794902
-794893
-794649
-794888
-795537
-795110
-795161
-794867
-795017
-795181
-795124
-795225
-794986
-795209
-795238
-795279
-795345
-795105
-795245
-795412
-795500
-795223
-795468
-795539
-795616
-795495
-795382
-795621
-795766
-795764
-795774
-795543
-795808
-795895
-796013
-795942
-795740
-796001
-796006
-796086
-796112
-795931
-796116
-796190
-796287
-796273
-795975
-796229
-796257
-796386
-796380
-796097
-796309
-796386
-796491
-796485
-796353
-796494
-796576
-796594
-796723
-796381
-796662
-796697
-796724
-796743
-796564
-796695
-796959
-796965
-796962
-796693
-796946
-796999
-797028
-797181
-796943
-797015
-797060
-797273
-797322
-797150
-797284
-797324
-797434
-797452
-797291
-797757
-797634
-797614
-797536
-797314
-797488
-797530
-797692
-797744
-797592
-797657
-797854
-797896
-797966
-797751
-797761
-798016
-797966
-798090
-797784
-798003
-798040
-798043
-798205
-798005
-798244
-798256
-798351
-798413
-798198
-798351
-798433
-798510
-798475
-798310
-798460
-798478
-798534
-798627
-798945
-798788
-798755
-798837
-798851
-798619
-798786
-798939
-799008
-798969
-798744
-798823
-798903
-798958
-798945
-798676
-798692
-798668
-798466
-798364
-798003
-797922
-797735
-797460
-797259
-796777
-796586
-796257
-795822
-795574
-795185
-794986
-794655
-794335
-793955
-793461
-793008
-792987
-792686
-792368
-791836
-791680
-791484
-791220
-791065
-790581
-790483
-790345
-790215
-790106
-790224
-789844
-789476
-789880
-789943
-789279
-789196
-789294
-789041
-789148
-788965
-789078
-789060
-789084
-789174
-788941
-788915
-789128
-789198
-789232
-789040
-789104
-789290
-789400
-789482
-789244
-789355
-789441
-789531
-789616
-789425
-789411
-789922
-789642
-789656
-789328
-789449
-789543
-789620
-789730
-789405
-789512
-789657
-789667
-789613
-789351
-789384
-789493
-789489
-789524
-789322
-789246
-789304
-789384
-789450
-789197
-789179
-789317
-789392
-789420
-789082
-789133
-789847
-789454
-789331
-788982
-788981
-789230
-789249
-789316
-789125
-789047
-789216
-789332
-789425
-789077
-789304
-789452
-789587
-789432
-789329
-789601
-789790
-789722
-789597
-789729
-789982
-790047
-790132
-790048
-790003
-790175
-790332
-790505
-790349
-790256
-790465
-790602
-790689
-790463
-790635
-790769
-790869
-790924
-790748
-790711
-790881
-791022
-791213
-790927
-790875
-791025
-791157
-791181
-790922
-790963
-791131
-791132
-791285
-791096
-790986
-791847
-791321
-791295
-790979
-790819
-791036
-791172
-791273
-791044
-790870
-791109
-791154
-791214
-790945
-790830
-791010
-791176
-791123
-790825
-790747
-790920
-790985
-791168
-790851
-791501
-791183
-791005
-791071
-790980
-790898
-791089
-791121
-790909
-790817
-790774
-790997
-791161
-791223
-791048
-790900
-791125
-791268
-791380
-791260
-791126
-791441
-791507
-791602
-791480
-791281
-791509
-791656
-791757
-791592
-791593
-791777
-791913
-791946
-791830
-791724
-791844
-791977
-792212
-791980
-791868
-792076
-792231
-792359
-792180
-791861
-792163
-792333
-792507
-792346
-792215
-792395
-792567
-792634
-792509
-792450
-792582
-792678
-792807
-792752
-792443
-792810
-792949
-793016
-792949
-792884
-793112
-793099
-793223
-793205
-792989
-793250
-793379
-793428
-793356
-793261
-793391
-793510
-793396
-793418
-793290
-793540
-793588
-793696
-793500
-793325
-793543
-793721
-793858
-793735
-793488
-793704
-793903
-793929
-793834
-793703
-793923
-793997
-793991
-794449
-793961
-794021
-794116
-794055
-794350
-794244
-794249
-794338
-794265
-794050
-794305
-794391
-794505
-794345
-794209
-794458
-794435
-794564
-794563
-794368
-794643
-794717
-794708
-794662
-794518
-794628
-794700
-794769
-794791
-794596
-794743
-794868
-795031
-794998
-794710
-794963
-794995
-795089
-795139
-794877
-795134
-795214
-795296
-795096
-795308
-795288
-795262
-795360
-795286
-795063
-795309
-795369
-795364
-795398
-795140
-795461
-795428
-795586
-795607
-795323
-795554
-795579
-795798
-795772
-795472
-795707
-795610
-795850
-795784
-795661
-795935
-795735
-795963
-795999
-795832
-796047
-796046
-796176
-795911
-795959
-796246
-796210
-796402
-796356
-796075
-796043
-796275
-796497
-796200
-796094
-796407
-796560
-796515
-796565
-796358
-796548
-796672
-796756
-796809
-796545
-796532
-796668
-796854
-796921
-796611
-796764
-796880
-796964
-796955
-796770
-796912
-797044
-797172
-797071
-797370
-797330
-797304
-797230
-797177
-797006
-797242
-797398
-797379
-797300
-796896
-797389
-797493
-797579
-797587
-797322
-797634
-797617
-797706
-797740
-797560
-797826
-797852
-797869
-797871
-797599
-797885
-797939
-797881
-797970
-797727
-797796
-797737
-797745
-797605
-797239
-797357
-797199
-796936
-796752
-796252
-796166
-795976
-795621
-795357
-794772
-794717
-794409
-794042
-793778
-793245
-793179
-792725
-792456
-792163
-791609
-791444
-791294
-791054
-790764
-790366
-790373
-790171
-789945
-789751
-789302
-789484
-789392
-789237
-789018
-788714
-788898
-788905
-788845
-788890
-788549
-788657
-788705
-788740
-788879
-788648
-788867
-788890
-788875
-789055
-788812
-789065
-789074
-789127
-788899
-789245
-789347
-789400
-789432
-789131
-789388
-789420
-789587
-789535
-789365
-789635
-789705
-789794
-789852
-789624
-789726
-789827
-789757
-789923
-789454
-789693
-789852
-789928
-789921
-789688
-789857
-789772
-789798
-790349
-789636
-789813
-789793
-789757
-789726
-789565
-790191
-789870
-789737
-789715
-789508
-789696
-789687
-789599
-789725
-789362
-789602
-789666
-789748
-789749
-789576
-789812
-789929
-789931
-789896
-789677
-789968
-790087
-790039
-790010
-789859
-790144
-790355
-790319
-790465
-790330
-790456
-790531
-790608
-790748
-790479
-790696
-790763
-790769
-790902
-790610
-790932
-790969
-791005
-791157
-790806
-791029
-791062
-791038
-791136
-790896
-791073
-791098
-791058
-791182
-790805
-791073
-790829
-791085
-791112
-790859
-791086
-791394
-791168
-791192
-790868
-790966
-790933
-790921
-790932
-790684
-790867
-790871
-790807
-790929
-790707
-790912
-790759
-790810
-790873
-790599
-790784
-790757
-790729
-790723
-790404
-790682
-790672
-790428
-790711
-790786
-790651
-790773
-790615
-790704
-790830
-790816
-790966
-790618
-790822
-790943
-790941
-791095
-790767
-791071
-791148
-791206
-791159
-790876
-791053
-791243
-791218
-791235
-791134
-791344
-791376
-791398
-791442
-791175
-791461
-791438
-791464
-791559
-791245
-791515
-791667
-791741
-791693
-791424
-791704
-791636
-791837
-791873
-791560
-791795
-791851
-791953
-792070
-791730
-791962
-792018
-792155
-791798
-791947
-792088
-792200
-792136
-792016
-792182
-792271
-792267
-792317
-792033
-792341
-792405
-792440
-792419
-792212
-792391
-792402
-792526
-792580
-792270
-792547
-792514
-792598
-792673
-792428
-792625
-792733
-792776
-792886
-792609
-792875
-792987
-792898
-792940
-792780
-792991
-793118
-793097
-793196
-792940
-793094
-793228
-793179
-793340
-793049
-793308
-793312
-793381
-793393
-793235
-793443
-793459
-793543
-793600
-793418
-793583
-793606
-793752
-793774
-793534
-793769
-793871
-793870
-793955
-793662
-793918
-794066
-794171
-794158
-793963
-794085
-794231
-794182
-794341
-794141
-794281
-794405
-794349
-794483
-794214
-794412
-794509
-794677
-794605
-794391
-794574
-794697
-794744
-794854
-794622
-794741
-794847
-794825
-794928
-794714
-794839
-794951
-795052
-795080
-794871
-795003
-795104
-795170
-795218
-794967
-795104
-795134
-795245
-795352
-795051
-795171
-795183
-795389
-795116
-795050
-795294
-795428
-795577
-795319
-795432
-795510
-795535
-795595
-795388
-795550
-795645
-795711
-795379
-795528
-795628
-795695
-795771
-795604
-795689
-795830
-795931
-795993
-795658
-795866
-795931
-796029
-796031
-795784
-796021
-796171
-796178
-796125
-795997
-796098
-796196
-796313
-796403
-796190
-796194
-796313
-796369
-796446
-796244
-796394
-796454
-796523
-796600
-796404
-796333
-796397
-796381
-796390
-795968
-795768
-795900
-795822
-795620
-795075
-794985
-794794
-794537
-794176
-793686
-793449
-793362
-792939
-792706
-792152
-791755
-791674
-791311
-790928
-790481
-790055
-789914
-789692
-789290
-788787
-788562
-788343
-788101
-787985
-787510
-787358
-787333
-787212
-787097
-786661
-786577
-786627
-786593
-786590
-786194
-786087
-786253
-786220
-786254
-785847
-785870
-786113
-786178
-786225
-786006
-786039
-786212
-786211
-786286
-786019
-786133
-786412
-786422
-786586
-786325
-786394
-786513
-786528
-786610
-786532
-786461
-786701
-786757
-786875
-786639
-786559
-786715
-786762
-786918
-786637
-786723
-786794
-786798
-786952
-786693
-786515
-786763
-786835
-786900
-786673
-786536
-786730
-786756
-786842
-786478
-786456
-786639
-786654
-786655
-786463
-786492
-786598
-786601
-786598
-786480
-786452
-786613
-786763
-786762
-786625
-786440
-786628
-786797
-786933
-786610
-786593
-786852
-786959
-786979
-786787
-786715
-787022
-787151
-787200
-787076
-786944
-787287
-787351
-787406
-787283
-787208
-787392
-787395
-787540
-787408
-787280
-787379
-787464
-787562
-787352
-787156
-787437
-787453
-787588
-787409
-787192
-787381
-787522
-787509
-787306
-787117
-787268
-787360
-787409
-787169
-787070
-787232
-787254
-787236
-787200
-786857
-787054
-787145
-787164
-787008
-786729
-786879
-786978
-786944
-786892
-786684
-786829
-786838
-786952
-786805
-786609
-786850
-786813
-786954
-786848
-786751
-786906
-786928
-786874
-786826
-786636
-786840
-786987
-787067
-786846
-786685
-786872
-787070
-787181
-786971
-786729
-787024
-787176
-787183
-787103
-786838
-787047
-787145
-787323
-787255
-787062
-787277
-787327
-787466
-787345
-787093
-787293
-787354
-787489
-787457
-787232
-787490
-787516
-787734
-787575
-787356
-787590
-787743
-787833
-787873
-787667
-787818
-787981
-788017
-787891
-787794
-787910
-788032
-788189
-788078
-787760
-788091
-788084
-788145
-788233
-787850
-788089
-788100
-788288
-788305
-788077
-788268
-788265
-788413
-788277
-788105
-788313
-788298
-788410
-788362
-788170
-788498
-788455
-788529
-788498
-788232
-788455
-788502
-788652
-788749
-788392
-788654
-788597
-788721
-788688
-788549
-788776
-788743
-788889
-788790
-788534
-788677
-788689
-788896
-788901
-788671
-788884
-788993
-789046
-789005
-788711
-788878
-788982
-788990
-788991
-788816
-788941
-789026
-789082
-789098
-788857
-789176
-789152
-789246
-789197
-788795
-789125
-789120
-789188
-789227
-789026
-789282
-789263
-789238
-789360
-789140
-789370
-789403
-789417
-789464
-789192
-789388
-789465
-789504
-789420
-789180
-789362
-789522
-789473
-789567
-789406
-789568
-789516
-789596
-789609
-789380
-789653
-789663
-789653
-789813
-789522
-789815
-789813
-789801
-789830
-789620
-789883
-789864
-789935
-789840
-789467
-789966
-789968
-790075
-790013
-789768
-789994
-790022
-790035
-790066
-789798
-790145
-790130
-790160
-790250
-789866
-790151
-789888
-790084
-790327
-790089
-790259
-790236
-790273
-790303
-790063
-790416
-790387
-790364
-790468
-790290
-790401
-790497
-790495
-790595
-790319
-790625
-790682
-790792
-790793
-790465
-790764
-790696
-790787
-790926
-790634
-790822
-790823
-790884
-790945
-790769
-791030
-791019
-791052
-791167
-790868
-791143
-791209
-791260
-791307
-791045
-791355
-791366
-791437
-791534
-791286
-791463
-791491
-791507
-791649
-791354
-791396
-791379
-791446
-791503
-791220
-791328
-791299
-791143
-791151
-790609
-790640
-790414
-790271
-790086
-789489
-789418
-789195
-788813
-788557
-787982
-787858
-787537
-787222
-786782
-786158
-786060
-785660
-785366
-785145
-784456
-784326
-784121
-783905
-783599
-783115
-783078
-782748
-782600
-782512
-781942
-782074
-781938
-781736
-781664
-781306
-781425
-781309
-781206
-781268
-780907
-781025
-780972
-780976
-781060
-780865
-780959
-781076
-781099
-781081
-780930
-781019
-781048
-781042
-781148
-780933
-781164
-781203
-781258
-781267
-781149
-781340
-781389
-781343
-781396
-781143
-781434
-781439
-781559
-781603
-781353
-781414
-781544
-781569
-781481
-781288
-781465
-781541
-781521
-781505
-781250
-781369
-781396
-781320
-781367
-781096
-781269
-781286
-781227
-781219
-780907
-781191
-781099
-781169
-781173
-780870
-781039
-780985
-781039
-781056
-780765
-780919
-781078
-781139
-781168
-780957
-781203
-781207
-781099
-781200
-781025
-781178
-781247
-781388
-781467
-781146
-781323
-781514
-781582
-781681
-781386
-781630
-781729
-781761
-781813
-781614
-781887
-781930
-782000
-782071
-781827
-782018
-782107
-782039
-782196
-781916
-782097
-782133
-782112
-782228
-781975
-782086
-782152
-782207
-782163
-781929
-782033
-782038
-782036
-782116
-781832
-781995
-782026
-782018
-782068
-781761
-781811
-781891
-781948
-782011
-781738
-781788
-781829
-781831
-781626
-781801
-781882
-781855
-781859
-781612
-781692
-781731
-781754
-781732
-781509
-781562
-781650
-781657
-781778
-781454
-781692
-781698
-781705
-781756
-781514
-781755
-781812
-781856
-781812
-781661
-781775
-781776
-781731
-781795
-781575
-781723
-781812
-781860
-781995
-781787
-781987
-782011
-782078
-782213
-781910
-782110
-782078
-782086
-782220
-781976
-782082
-782182
-782216
-782352
-782174
-782237
-782405
-782363
-782406
-782171
-782309
-782173
-782439
-782548
-782412
-782479
-782558
-782642
-782625
-782428
-782716
-782844
-782845
-782813
-782623
-782810
-782864
-782698
-782818
-782634
-782822
-782986
-782993
-783101
-782914
-782990
-783013
-783068
-783177
-782955
-783102
-783123
-783327
-783347
-782989
-783164
-783335
-783480
-783527
-783293
-783368
-783494
-783596
-783501
-783305
-783416
-783502
-783512
-783514
-783513
-783617
-783718
-783719
-783823
-783650
-783697
-783778
-783835
-783936
-783686
-783669
-783873
-783882
-783906
-783721
-783844
-783947
-784040
-784090
-783909
-784000
-784044
-784104
-784175
-783947
-784008
-784100
-784156
-784344
-784065
-784139
-784206
-784394
-784450
-784243
-784228
-784420
-784459
-784568
-784315
-784336
-784501
-784520
-784561
-784462
-784512
-784597
-784654
-784726
-784573
-784670
-784762
-784877
-784975
-784716
-784738
-784823
-784899
-784883
-784663
-784673
-785511
-785188
-785177
-785003
-784945
-784977
-785068
-785241
-785086
-784964
-785108
-785292
-785100
-784962
-785126
-785358
-785330
-785448
-785206
-785190
-785346
-785578
-785653
-785442
-785408
-785604
-785577
-785679
-785512
-785451
-785627
-785695
-785773
-785596
-785600
-785740
-785868
-785849
-785674
-785718
-785905
-785974
-785959
-785745
-785755
-785937
-786089
-786213
-785991
-785987
-786260
-786201
-786386
-786185
-786169
-786274
-786309
-786499
-786292
-786227
-786376
-786456
-786542
-786309
-786329
-786562
-786621
-786667
-786227
-786286
-786618
-786671
-786849
-786735
-786577
-786746
-786949
-787054
-786834
-786688
-786993
-787056
-787214
-786958
-786768
-786958
-787098
-787210
-787018
-786950
-787089
-787067
-787176
-786945
-786600
-786707
-786657
-786626
-786166
-785844
-785770
-785648
-785509
-784998
-784597
-784529
-784122
-783933
-783402
-782938
-782805
-782501
-782265
-781702
-781196
-781046
-780852
-780641
-780126
-779654
-779675
-779483
-779225
-778828
-778381
-778447
-778243
-778197
-777824
-777542
-777459
-777359
-777345
-777173
-776970
-777060
-776983
-777084
-776827
-776532
-776789
-776651
-776866
-776645
-776458
-776721
-776726
-776765
-776802
-776623
-776844
-776847
-777021
-776959
-776729
-776984
-777062
-777189
-777203
-777033
-777261
-777365
-777489
-777452
-777138
-777496
-777427
-777599
-777593
-777301
-777530
-777585
-777662
-777576
-777361
-777579
-777653
-777651
-777652
-777329
-777512
-777646
-777667
-777606
-777357
-777585
-777596
-777612
-777482
-777170
-777465
-777495
-777490
-777510
-777251
-777494
-777674
-777675
-777672
-777395
-777641
-777711
-777759
-777771
-777623
-777889
-777944
-778045
-777763
-777972
-778070
-778238
-778221
-777944
-778183
-778268
-778290
-778354
-778076
-778301
-778445
-778464
-778497
-778132
-778347
-778418
-778506
-778558
-778296
-778358
-778415
-778455
-778443
-778190
-778330
-778394
-778340
-778272
-778095
-778299
-778306
-778340
-778231
-777959
-778164
-778194
-778227
-778146
-777901
-777928
-778065
-778075
-778053
-777760
-777918
-777934
-777877
-777874
-777607
-777753
-777740
-777785
-777833
-777560
-777760
-777755
-777734
-777679
-777404
-777607
-777624
-777621
-777708
-777351
-777641
-777560
-777602
-777627
-777371
-777631
-777641
-777716
-777682
-777500
-777686
-777662
-777754
-777857
-777654
-777794
-777791
-777868
-777901
-777708
-778006
-777910
-777945
-778017
-777798
-778116
-778056
-778055
-778132
-777893
-778133
-778209
-778177
-778228
-778026
-778240
-778334
-778336
-778245
-778201
-778341
-778326
-778417
-778520
-778216
-778473
-778513
-778508
-778639
-778353
-778566
-778617
-779225
-778856
-778482
-778688
-778754
-778787
-778694
-778637
-778943
-778927
-778818
-778906
-778679
-778921
-779085
-778996
-779018
-778910
-779146
-779113
-779178
-779262
-778889
-779193
-779251
-779199
-779295
-779018
-779282
-779250
-779320
-779335
-779017
-779290
-779333
-779322
-779374
-779178
-779348
-779433
-779487
-779523
-779297
-780112
-779595
-779647
-779532
-779377
-779501
-779625
-779640
-779602
-779469
-779638
-779610
-779788
-779830
-779541
-779659
-779751
-779746
-779844
-779557
-779782
-779862
-779838
-779935
-779754
-779866
-779961
-779916
-780069
-779775
-779953
-780040
-780013
-780106
-779907
-780129
-780081
-780214
-780263
-780100
-780220
-780082
-780189
-780175
-780114
-780176
-780383
-780275
-780457
-780148
-780337
-780391
-780486
-780594
-780206
-780367
-780533
-780496
-780575
-780292
-780461
-780578
-780590
-780602
-780385
-780568
-780641
-780634
-780756
-780483
-780628
-780731
-780745
-780767
-780502
-780580
-780671
-780611
-780735
-780605
-780690
-780755
-780908
-780968
-780637
-780807
-780859
-780989
-780987
-780752
-781014
-781110
-781044
-781207
-780882
-781081
-781212
-781277
-781244
-780905
-781106
-781113
-781111
-781078
-780844
-780950
-780835
-780749
-780533
-780103
-780101
-779848
-779639
-779547
-778866
-778879
-778540
-778205
-777991
-777441
-777243
-776941
-776617
-776222
-775684
-775549
-775241
-775010
-774627
-774160
-773981
-773626
-773491
-773255
-772839
-772609
-772547
-772295
-772207
-771681
-771687
-771647
-771613
-771469
-771089
-771164
-771071
-771085
-771090
-770778
-770868
-770857
-770847
-770868
-770533
-770767
-770726
-770731
-770832
-770581
-770747
-770659
-770693
-770704
-770513
-770670
-770684
-770743
-770690
-770487
-770684
-770766
-770755
-770811
-770498
-770764
-770732
-770703
-770773
-770615
-770793
-770791
-770722
-770808
-770574
-770751
-770753
-770707
-770624
-770463
-770511
-770635
-770617
-770734
-770303
-770452
-770498
-770477
-770444
-770204
-770397
-770385
-770426
-771111
-770283
-770287
-770356
-770378
-770401
-770193
-770334
-770351
-770327
-770398
-770236
-770252
-770380
-770476
-770517
-770306
-770496
-770594
-770737
-770700
-770459
-770703
-770847
-770966
-770932
-770676
-770842
-771013
-771061
-771113
-770921
-771054
-770981
-771030
-771133
-770945
-771014
-771094
-771100
-771150
-770841
-770914
-771116
-771077
-771083
-770826
-770858
-770932
-770971
-770989
-770650
-770710
-770772
-770639
-770649
-770437
-770586
-770633
-770668
-770587
-770311
-770355
-770495
-770616
-770466
-770185
-770323
-770263
-770225
-770395
-770121
-770194
-770329
-770348
-770324
-770040
-770106
-770246
-770212
-770287
-770058
-770093
-770253
-770153
-770215
-770074
-770162
-770219
-770286
-770269
-770092
-770116
-770318
-770396
-770471
-770186
-770304
-770366
-770504
-770653
-770362
-770367
-770438
-770556
-770570
-770398
-770463
-770676
-770683
-770758
-770572
-770599
-770745
-770812
-770737
-770571
-770721
-770854
-770945
-770981
-770784
-770940
-771055
-771207
-771233
-771119
-771038
-771154
-771234
-771321
-771131
-771042
-771017
-771239
-771433
-771128
-771213
-771429
-771415
-771342
-771310
-771340
-771559
-771490
-771558
-771328
-771362
-771564
-771631
-771711
-771478
-771452
-771623
-771602
-771868
-771609
-771524
-771714
-771834
-771891
-771820
-771675
-771901
-771939
-771971
-771767
-771724
-771918
-772070
-772201
-771905
-771814
-772027
-772107
-772256
-772115
-772061
-772178
-772242
-772304
-772237
-772078
-772257
-772241
-772450
-772301
-772190
-772377
-772417
-772587
-772319
-772294
-772478
-772614
-772673
-772437
-772402
-772600
-772723
-772826
-772557
-772495
-772673
-772663
-772749
-772437
-772429
-772668
-772782
-772882
-772784
-772684
-772869
-773034
-773107
-772889
-773112
-773056
-773027
-773102
-773051
-772889
-773098
-773679
-773397
-773162
-772921
-773197
-773299
-773276
-773233
-772988
-773233
-773460
-773514
-773429
-773286
-773350
-773559
-773542
-773522
-773311
-773588
-773733
-773683
-773927
-773509
-773743
-773717
-773855
-773703
-773573
-773764
-773934
-774034
-773957
-773782
-773980
-774081
-774130
-773997
-773818
-774016
-774198
-774336
-774208
-774071
-774263
-774308
-774452
-774345
-774136
-774404
-774527
-774554
-774425
-774067
-774403
-774540
-774708
-774754
-774562
-775562
-774923
-774879
-774750
-774610
-774786
-774871
-774988
-774840
-774624
-774749
-774825
-774852
-774614
-774191
-774235
-774128
-773802
-773704
-773235
-773344
-773041
-772814
-772424
-771836
-771757
-771430
-771277
-770803
-770235
-770051
-769725
-769431
-769077
-768448
-768402
-768042
-767761
-767421
-766847
-767533
-766661
-766539
-766741
-765698
-765629
-765377
-765367
-765158
-764779
-764904
-764693
-764594
-764850
-764237
-764249
-764181
-764208
-764107
-763857
-764165
-763967
-763927
-763983
-763613
-763815
-763816
-763968
-763874
-763578
-763847
-763826
-763849
-763847
-763575
-763695
-763758
-763775
-763792
-763497
-763724
-763683
-763772
-763771
-763482
-763661
-763610
-763600
-763622
-763325
-763412
-763450
-763349
-763311
-763091
-763175
-763193
-763106
-763057
-762747
-762915
-762984
-762855
-762850
-762541
-762672
-762663
-762551
-762525
-762263
-762457
-762399
-762357
-762382
-762029
-762277
-762292
-762298
-762342
-762045
-762260
-762457
-762346
-762209
-761903
-761955
-762165
-762295
-762226
-762020
-762284
-762408
-762547
-762446
-762184
-762527
-762547
-762613
-762642
-762528
-762741
-762883
-762862
-762896
-762697
-763023
-763032
-763055
-763158
-762794
-763082
-763131
-763100
-763056
-762849
-763095
-763097
-762995
-763010
-762700
-762993
-762985
-762947
-762995
-762838
-762956
-762975
-762962
-762905
-762599
-762844
-762809
-762744
-762855
-762445
-762611
-762729
-762685
-762773
-762490
-762639
-762577
-762572
-762512
-762294
-762564
-762646
-762617
-762619
-762306
-762605
-762532
-762580
-762477
-762328
-762549
-762623
-762575
-762597
-762403
-762535
-762589
-762653
-762720
-762454
-762618
-762746
-762698
-762813
-762578
-762789
-762861
-762773
-762924
-762689
-762784
-762768
-762921
-763062
-762782
-763035
-762956
-763059
-763182
-762945
-763233
-763199
-763225
-763340
-763186
-763377
-763439
-763417
-763508
-763352
-763589
-763609
-763668
-763615
-763407
-763628
-763673
-763809
-763806
-763530
-763684
-763772
-763813
-763883
-763624
-763911
-763903
-764059
-764116
-763882
-764128
-764114
-764076
-764146
-763903
-764202
-764184
-764348
-764393
-764138
-764391
-764431
-764616
-764659
-764360
-764673
-764669
-764818
-764853
-764664
-764645
-764967
-765028
-765230
-764916
-765194
-765264
-765394
-765418
-765126
-765470
-765502
-765536
-765625
-765203
-765496
-765657
-765671
-765782
-765591
-765700
-765769
-765923
-765956
-765790
-765987
-766097
-766093
-766096
-765848
-766066
-766236
-766284
-766441
-766273
-766458
-766459
-766484
-766663
-766185
-766622
-766669
-766728
-766817
-766569
-766715
-766839
-766909
-767035
-766836
-767036
-767051
-767166
-767238
-767069
-767227
-767236
-767371
-767405
-767157
-767482
-767537
-767701
-767672
-767501
-767663
-767753
-767903
-767967
-767785
-768051
-768182
-768213
-768369
-768094
-768307
-768535
-768468
-768501
-768320
-768516
-768554
-768709
-768764
-768617
-768817
-768836
-768933
-769128
-769000
-769066
-769228
-769220
-769455
-769202
-769366
-769556
-769680
-769742
-769533
-769712
-769878
-769610
-769952
-769656
-769886
-770071
-770051
-770265
-769967
-770232
-770255
-770337
-770443
-770269
-770306
-770470
-770582
-770624
-770445
-770684
-770751
-770817
-770964
-770810
-770928
-771003
-771042
-770996
-770795
-770994
-771052
-771149
-771079
-770783
-770762
-770823
-770702
-770620
-770342
-770359
-770289
-770123
-769823
-769436
-769315
-769131
-768871
-768474
-767938
-767871
-767544
-767305
-767055
-766413
-766298
-766300
-765782
-765322
-764750
-764589
-764157
-764059
-763976
-763634
-763476
-763185
-763014
-762841
-762349
-762387
-762392
-762267
-762140
-761834
-761758
-761781
-761766
-761791
-761453
-761485
-761596
-761629
-761576
-761303
-761411
-761503
-761572
-761679
-761452
-761516
-761531
-761538
-761649
-761420
-761523
-761663
-761743
-761761
-761508
-761507
-761609
-761608
-761742
-761427
-761496
-761536
-761641
-761578
-761331
-761432
-761435
-761511
-761499
-761332
-761380
-761443
-761377
-761404
-761098
-761200
-761192
-761255
-761217
-761000
-761004
-761078
-761112
-761101
-760917
-760929
-761034
-760826
-760968
-760751
-760698
-760967
-760968
-760942
-760825
-760956
-760993
-761007
-761085
-761015
-760970
-761200
-761266
-761432
-761195
-761245
-761539
-761557
-761578
-761432
-761517
-761749
-761902
-762049
-761621
-761979
-762148
-762294
-762324
-762226
-762295
-762580
-762550
-762575
-762403
-762449
-762618
-762690
-762786
-762711
-762690
-762886
-762891
-762941
-762826
-762818
-762969
-763007
-763100
-762789
-762745
-762957
-762940
-763050
-762877
-762758
-762961
-762919
-763020
-762785
-762668
-762935
-762832
-762854
-762687
-762576
-762770
-762777
-762797
-762566
-762550
-762739
-762762
-762796
-762581
-762579
-762679
-762827
-762728
-762536
-762451
-762664
-762739
-762837
-762645
-762563
-762794
-762816
-762960
-762785
-762636
-762857
-763040
-763183
-762929
-762791
-762950
-763141
-763182
-763123
-762984
-763163
-763286
-763382
-763336
-763271
-763479
-763574
-763700
-763473
-763310
-763662
-763646
-763919
-763738
-763640
-763849
-763899
-764003
-763944
-763863
-764038
-764111
-764353
-764209
-764026
-764316
-764346
-764466
-764354
-764215
-764506
-764549
-764743
-764632
-764459
-764644
-764821
-764905
-764684
-764555
-764845
-764981
-765050
-764998
-764854
-765052
-765141
-765291
-765133
-765088
-765308
-765373
-765423
-765399
-765327
-765578
-765592
-765707
-765523
-765489
-765640
-765845
-765975
-765877
-765724
-765940
-766001
-766113
-765969
-765653
-766040
-766225
-766285
-766217
-766038
-766355
-766345
-766508
-766598
-766425
-766493
-766607
-766806
-766704
-766533
-766799
-766849
-767027
-767439
-766852
-767004
-767065
-767246
-767166
-767001
-767068
-767240
-767366
-767371
-767222
-767380
-767509
-767502
-767443
-767268
-767506
-767621
-767714
-767680
-767543
-767730
-767968
-768038
-767928
-767769
-768005
-768093
-768162
-768172
-768022
-768252
-768260
-768409
-768376
-768129
-768480
-768551
-768692
-768662
-768515
-768669
-768769
-768887
-768838
-768634
-768837
-769036
-769110
-769100
-768968
-769137
-769274
-769275
-769319
-769162
-769421
-769451
-769564
-769646
-769369
-769593
-769601
-769745
-769766
-769660
-769823
-769932
-769943
-770051
-769767
-770050
-770035
-770304
-770192
-770036
-770281
-770406
-770295
-770431
-770247
-770450
-770419
-770536
-770694
-770559
-770684
-770803
-770849
-770759
-770621
-770852
-770996
-771100
-771023
-770856
-771116
-771199
-771232
-771283
-771100
-771302
-771392
-771536
-771522
-771271
-771524
-771571
-771656
-771749
-771502
-771712
-771875
-771975
-771921
-771743
-772021
-772080
-772187
-772253
-772066
-772182
-772302
-772279
-772470
-772225
-772501
-772530
-772629
-772651
-772427
-772669
-772795
-772738
-772822
-772514
-772604
-772494
-772539
-772454
-772129
-772216
-772022
-771852
-771682
-771152
-771042
-770757
-770516
-770207
-769660
-769546
-769253
-768946
-768620
-767978
-767796
-767473
-767208
-766811
-766152
-766129
-765837
-765512
-765229
-764736
-764696
-764446
-764169
-763965
-763538
-763544
-763387
-763207
-763083
-762792
-762756
-762598
-762508
-762496
-762179
-762364
-762299
-762352
-762335
-762106
-762224
-762227
-762275
-762362
-762094
-762218
-762220
-762279
-762377
-762121
-762321
-762393
-762463
-762480
-762161
-762449
-762444
-762504
-762585
-762314
-762519
-762572
-762663
-762601
-762348
-762614
-762621
-762673
-762744
-762418
-762598
-762594
-762570
-762599
-762411
-762511
-762489
-762525
-762514
-762261
-762475
-762478
-762483
-762490
-762166
-762496
-762451
-762521
-763202
-762510
-762542
-762483
-762492
-762502
-762382
-762619
-762731
-762683
-762777
-762541
-762783
-762910
-762928
-763014
-762820
-763064
-763176
-763266
-763458
-763134
-763391
-763488
-763589
-763601
-763438
-763707
-763763
-763595
-763893
-763670
-763926
-763992
-764059
-764072
-763841
-764067
-764086
-764102
-764155
-763918
-764083
-764199
-764251
-764200
-764002
-764179
-764086
-764111
-763897
-763988
-764085
-764055
-764060
-763802
-763962
-763893
-764020
-763941
-763624
-763953
-763920
-763998
-763892
-763678
-763820
-763752
-763669
-763792
-763542
-763738
-763749
-763786
-763779
-763953
-763925
-763766
-763845
-763756
-763802
-763866
-763825
-763804
-763734
-763591
-763762
-763858
-763831
-764000
-763675
-763908
-763966
-764028
-764097
-763839
-764127
-764204
-764217
-764297
-764124
-764241
-764317
-764114
-764374
-764251
-764430
-764507
-764506
-764719
-764396
-764376
-764551
-764614
-764882
-764539
-764916
-764932
-765487
-765193
-764856
-765080
-765155
-765118
-765201
-764984
-765108
-765196
-765332
-765438
-765209
-765396
-765424
-765544
-765578
-765443
-765625
-765716
-765681
-765817
-765580
-765833
-765902
-765838
-765947
-765719
-765891
-765915
-766045
-766168
-766008
-766083
-766204
-766277
-766281
-766126
-766267
-766455
-766427
-766454
-766272
-766487
-766597
-766592
-766567
-766364
-766605
-766649
-766794
-766747
-766607
-766737
-766947
-766881
-766925
-766701
-767014
-767018
-767039
-767136
-766978
-767153
-767186
-767320
-767304
-767174
-767348
-767474
-767514
-767544
-767263
-767417
-767600
-767548
-767710
-767566
-767748
-767908
-767952
-767953
-767698
-767938
-768029
-768143
-768184
-767933
-768227
-768311
-768327
-768467
-768282
-768490
-768514
-768572
-768567
-768330
-768547
-768718
-768687
-768824
-768605
-768727
-768899
-768974
-768950
-768742
-768816
-769056
-769150
-769171
-768925
-769177
-769199
-769274
-769344
-769139
-769271
-769496
-769484
-769642
-769423
-769601
-769750
-769743
-769850
-769508
-769829
-769925
-770005
-770017
-769809
-769958
-770048
-770068
-770163
-769973
-770232
-770340
-770354
-770356
-770111
-770303
-770432
-770519
-770602
-770409
-770555
-770627
-770671
-770774
-770523
-770621
-770806
-770917
-770944
-770783
-770854
-771130
-771150
-771209
-770964
-771164
-771297
-771378
-771255
-771259
-771839
-771634
-771611
-771697
-771553
-771686
-771730
-771839
-771911
-771672
-771853
-772046
-772116
-772252
-771985
-772135
-772313
-772320
-772415
-772153
-772340
-772509
-772502
-772639
-772489
-772539
-772597
-772743
-772766
-772649
-772638
-772783
-772811
-772892
-772560
-772443
-772430
-772379
-772239
-771771
-771737
-771678
-771402
-771127
-770661
-770395
-770180
-769948
-769746
-769094
-768848
-768633
-768337
-768036
-767403
-767021
-766911
-766665
-766388
-765840
-765598
-765362
-765178
-765002
-764573
-764274
-764181
-764097
-763925
-763589
-763351
-763350
-763229
-763190
-762919
-762759
-762665
-762865
-762851
-762612
-763002
-762781
-762735
-762808
-762587
-762581
-762699
-762734
-762852
-762640
-762634
-762869
-763037
-763141
-762830
-762853
-763131
-763246
-763357
-763148
-763179
-763288
-763399
-763522
-763276
-763218
-763434
-763519
-763612
-763481
-763345
-763505
-763662
-764481
-763741
-763503
-763679
-763729
-763697
-763584
-763400
-763676
-763721
-763637
-763486
-763379
-763590
-763632
-763697
-763530
-763389
-763596
-763632
-764119
-763490
-763414
-763608
-763698
-763847
-763720
-763675
-763839
-763869
-763987
-763901
-763868
-764128
-764301
-764377
-764233
-764178
-764441
-764610
-764784
-764610
-764559
-764942
-765123
-765234
-764871
-764903
-765262
-765445
-765524
-765375
-765190
-765479
-765675
-765601
-765603
-765553
-765743
-765835
-765852
-765773
-765641
-765782
-765848
-766023
-765867
-765623
-765911
-765969
-766056
-765880
-765626
-765843
-765971
-765961
-765812
-765676
-765872
-765907
-766029
-765874
-765633
-765897
-766021
-766031
-765897
-765690
-766035
-766090
-766040
-765875
-765643
-765954
-766016
-766051
-765906
-765731
-765973
-766007
-766025
-765999
-765834
-766069
-766142
-766238
-766141
-765949
-766192
-766270
-766345
-766294
-766063
-766359
-766438
-766559
-766443
-766364
-766493
-766602
-766829
-766732
-766612
-766816
-766914
-767000
-767070
-766836
-767079
-767131
-767359
-767342
-767126
-767390
-767500
-767703
-767597
-767410
-767724
-767839
-767928
-767988
-767869
-768008
-768183
-768248
-768246
-768060
-768324
-768481
-768518
-768495
-768367
-768450
-768641
-768740
-768680
-768607
-768819
-768904
-769042
-769060
-768768
-769283
-769157
-769222
-769203
-769080
-769260
-769362
-769451
-769475
-769262
-769478
-769610
-769702
-769497
-769451
-769639
-769805
-769997
-769956
-769848
-769958
-770095
-770235
-770223
-770036
-770170
-770243
-770383
-770395
-770213
-770479
-770601
-770623
-770629
-770488
-770542
-770671
-770867
-770749
-770518
-770836
-770988
-771089
-771006
-770816
-771067
-771133
-771864
-771448
-771109
-771564
-771390
-771597
-771547
-771322
-771509
-771660
-771692
-771791
-771570
-771790
-771831
-771862
-771934
-771750
-771948
-771992
-771986
-772051
-771823
-772084
-772188
-772106
-772269
-772081
-772362
-772385
-772505
-772566
-772341
-772609
-772672
-772799
-772782
-772583
-772822
-772940
-773087
-773076
-772914
-773255
-773342
-773431
-773377
-773216
-773458
-773440
-773542
-773799
-773554
-773728
-773794
-773831
-773955
-773813
-774088
-773976
-774182
-774289
-774030
-774297
-774356
-774379
-774450
-774166
-774428
-774548
-774605
-774711
-774383
-774677
-774690
-774728
-774673
-774493
-774724
-774843
-774948
-775030
-774799
-774929
-774975
-775150
-775207
-774898
-775239
-775270
-775294
-775427
-775147
-775410
-775491
-775413
-775470
-775274
-775454
-775867
-776348
-775979
-775413
-775748
-775826
-775839
-775983
-775709
-776005
-776073
-776132
-776157
-775998
-776248
-776356
-776312
-776470
-776227
-776493
-776432
-776525
-776611
-776425
-776647
-776730
-776794
-776766
-776618
-776835
-776848
-776988
-777015
-776731
-776996
-777090
-777185
-777238
-777052
-777128
-777181
-777244
-777228
-776960
-777036
-777038
-777002
-776907
-776566
-776569
-776304
-776104
-775935
-775499
-775434
-775180
-775290
-774667
-774010
-773831
-773409
-773137
-772825
-772121
-772006
-771605
-771233
-770761
-770281
-770152
-769921
-769653
-769277
-768904
-768701
-768537
-768316
-768074
-767510
-767509
-767321
-767219
-767059
-766747
-766833
-766624
-766691
-766511
-766298
-766368
-766347
-766381
-766150
-766013
-766187
-766255
-766296
-766290
-766046
-766231
-766219
-766356
-766318
-766031
-766359
-766373
-766466
-766591
-766411
-766568
-766701
-766755
-766930
-766628
-766720
-766863
-766928
-766991
-766697
-766895
-766761
-766976
-767067
-766781
-766963
-767096
-767071
-767106
-766820
-767079
-767025
-767052
-766991
-766751
-766879
-766858
-766945
-766930
-766613
-766817
-766946
-766939
-766944
-766597
-766732
-766877
-766802
-766911
-766528
-766808
-766886
-766942
-767023
-766818
-767055
-767053
-767096
-767215
-767232
-767341
-767339
-767418
-767523
-767305
-767529
-767638
-767696
-767861
-767535
-767821
-767898
-768015
-768103
-767876
-768108
-768217
-768372
-768343
-768149
-768400
-768455
-768543
-768431
-768322
-768479
-768578
-768407
-768606
-768429
-768669
-768437
-768552
-768673
-768432
-768557
-768631
-768673
-768701
-768446
-768633
-768567
-768603
-768568
-768380
-768480
-768514
-768475
-768530
-768193
-768465
-768520
-768440
-768420
-768182
-768327
-768318
-768290
-768390
-768024
-768273
-768282
-768260
-768276
-767978
-768193
-768248
-768212
-768197
-767998
-768134
-768172
-768247
-768227
-768001
-768132
-768119
-768223
-768304
-768109
-768329
-768381
-768351
-768419
-768197
-768542
-768426
-768548
-768705
-768506
-768792
-768840
-768944
-768928
-768765
-769043
-769099
-769151
-769243
-769060
-769264
-769366
-769412
-769554
-769336
-769473
-769678
-769625
-769745
-769484
-769700
-769781
-769925
-769981
-769863
-769991
-770098
-770598
-770378
-770022
-770237
-770273
-770538
-770374
-770197
-770412
-770477
-770581
-771128
-770617
-770634
-770757
-771018
-770970
-770607
-770745
-770886
-770937
-771006
-770790
-770990
-771008
-771044
-771152
-771092
-771208
-771229
-771353
-771423
-771213
-771165
-771446
-771461
-771576
-771346
-771535
-771573
-771668
-771789
-771591
-771803
-771890
-772013
-772103
-771842
-771961
-772092
-772138
-772121
-772034
-772157
-772321
-772317
-772383
-772245
-772345
-772436
-772567
-772539
-772437
-772635
-772695
-772690
-772758
-773051
-772846
-772252
-772688
-772994
-772774
-772880
-773081
-773172
-773205
-772923
-773068
-773139
-773206
-773388
-773201
-773136
-773225
-773360
-773537
-773219
-773357
-774112
-773483
-773577
-773422
-773341
-773530
-773743
-773790
-773567
-773683
-773864
-773923
-773886
-773745
-773827
-773996
-774126
-774239
-774047
-774135
-774303
-774286
-774390
-774104
-774341
-774456
-774454
-774553
-774401
-774532
-774684
-774663
-774776
-774571
-774710
-774808
-774864
-775022
-774726
-774916
-775145
-775098
-775194
-774912
-774921
-775203
-775345
-775322
-775197
-775260
-775466
-775534
-775548
-775271
-775428
-775691
-775793
-775690
-775568
-775663
-775735
-775828
-776006
-775752
-775855
-775655
-775910
-776068
-775938
-775941
-776107
-776235
-776227
-776446
-776244
-776301
-776292
-776436
-776337
-776259
-776454
-776495
-776597
-776534
-776527
-776620
-776746
-776865
-776625
-776562
-776725
-776879
-777019
-776908
-776835
-776971
-777063
-777086
-776852
-776910
-777096
-777011
-776941
-776753
-776567
-776529
-776449
-776354
-775900
-775697
-775619
-775315
-775122
-774593
-774172
-773967
-773661
-773323
-772800
-772436
-772127
-771935
-771558
-770908
-770565
-770259
-770025
-769793
-769247
-768738
-768677
-768443
-768318
-767814
-767518
-767520
-767322
-767204
-766834
-766527
-766603
-766577
-766477
-766201
-765972
-766181
-766182
-766172
-765912
-765765
-766018
-766010
-766468
-766044
-765881
-766004
-766087
-766260
-766056
-765932
-766170
-766206
-766308
-765986
-766094
-766403
-766467
-766595
-766450
-766374
-766556
-766691
-766648
-766487
-766435
-766595
-766562
-766584
-766483
-766467
-766683
-766777
-766801
-766726
-766601
-766707
-766691
-766675
-766602
-766459
-766610
-766631
-766714
-766612
-766322
-766519
-766543
-766682
-766435
-766316
-766382
-766456
-766522
-766350
-766165
-766387
-766402
-766541
-766389
-766132
-766411
-766449
-766508
-766471
-766218
-766507
-766697
-766745
-766552
-766496
-766767
-766878
-766971
-766878
-766754
-767074
-767201
-767376
-767373
-767096
-767352
-767462
-767651
-767566
-767400
-767716
-767739
-767825
-767814
-767660
-767821
-767888
-768072
-767958
-767897
-767959
-768104
-768257
-768153
-767995
-768184
-768280
-768291
-768321
-767943
-768128
-768295
-768381
-768210
-768013
-768206
-768259
-768270
-768188
-767970
-768204
-768196
-768247
-768123
-767992
-768175
-768146
-768195
-768128
-767943
-768044
-768234
-768141
-768160
-767867
-768011
-768090
-768148
-768081
-768460
-768160
-768056
-768082
-768018
-767984
-768120
-768248
-768371
-768227
-767952
-768246
-768237
-768274
-768382
-768134
-768348
-768828
-768680
-768503
-768234
-768319
-768409
-768590
-768525
-768454
-768597
-768731
-768821
-768746
-768633
-768878
-768966
-768935
-769043
-768789
-769017
-769106
-769170
-769228
-768915
-769291
-769397
-769481
-769518
-769247
-769452
-769602
-769733
-769728
-769503
-769738
-769851
-769857
-769850
-769487
-769864
-770023
-770109
-770081
-769865
-770077
-770126
-770342
-770376
-770121
-770289
-770379
-770434
-770638
-770338
-770525
-770632
-770650
-770704
-770503
-770682
-770772
-770795
-770871
-770633
-770844
-771003
-771063
-771198
-770847
-771157
-771115
-771318
-771264
-771082
-771414
-771316
-771472
-771518
-771261
-771555
-771614
-771675
-771658
-771480
-771702
-771845
-771856
-771956
-771688
-771956
-771924
-771996
-772071
-771779
-772006
-772138
-772140
-772163
-771931
-772207
-771971
-772195
-772362
-772153
-772449
-772463
-772524
-772561
-772335
-772548
-772566
-772735
-772795
-772547
-772717
-772771
-772786
-772872
-772701
-772963
-772840
-772934
-773086
-772795
-773033
-773137
-773279
-773293
-773075
-773326
-773441
-773444
-773572
-773354
-773554
-773571
-773623
-773626
-773460
-773781
-773833
-773782
-773856
-773593
-773815
-773893
-774383
-774100
-773928
-774093
-773993
-774170
-774286
-773875
-774197
-774176
-774237
-774294
-774239
-774460
-774345
-774457
-774486
-774284
-774541
-774592
-774644
-774768
-774477
-774667
-774793
-774871
-774903
-774642
-774843
-774973
-775014
-775135
-774845
-775077
-775205
-775202
-775221
-774982
-775200
-775192
-775254
-775352
-775203
-775450
-775548
-775462
-775620
-775391
-775685
-775597
-775667
-775895
-775674
-775833
-775718
-775970
-775905
-775872
-776061
-776115
-776095
-776185
-776013
-776302
-776336
-776278
-776348
-776083
-776314
-776460
-776512
-776543
-776332
-776552
-776524
-776739
-776759
-776521
-776811
-776843
-776846
-776972
-776828
-776950
-777055
-777061
-777210
-776969
-776950
-777214
-777395
-777424
-777286
-777401
-777532
-777557
-777598
-777371
-777566
-777675
-777527
-777765
-777620
-777821
-777756
-777760
-777756
-777345
-777439
-777433
-777368
-777130
-776790
-776713
-776314
-776110
-775867
-775245
-775155
-774706
-774381
-774120
-773448
-773244
-772845
-772532
-772160
-771392
-771168
-770883
-770546
-770222
-769673
-769430
-769199
-768913
-768530
-768037
-768009
-767875
-767621
-767459
-766965
-767005
-766930
-766521
-766551
-766221
-766411
-766351
-766274
-766185
-765885
-766501
-766170
-766041
-766189
-765864
-766063
-766032
-765987
-766196
-765997
-766119
-766279
-766317
-766374
-766104
-766363
-766408
-766509
-766647
-766450
-766505
-766623
-766717
-766834
-766515
-766712
-766902
-766816
-766755
-766575
-766874
-766972
-766979
-766971
-766721
-766884
-766869
-766952
-766895
-766604
-766801
-766846
-766774
-766914
-766571
-766698
-766706
-766744
-766793
-766507
-766649
-766715
-766741
-766704
-766345
-766518
-766602
-766614
-766678
-766383
-766500
-766551
-766643
-766713
-766390
-766597
-766680
-766658
-766903
-766606
-766780
-766945
-766961
-767096
-766852
-767102
-767205
-767259
-767364
-767159
-767354
-767385
-767492
-767557
-767332
-767618
-767574
-767676
-767756
-767551
-767787
-767820
-767860
-767991
-767792
-768055
-768043
-768064
-768132
-767800
-768092
-768109
-768064
-768123
-767842
-768092
-768119
-768127
-768208
-767823
-768019
-768117
-768103
-768131
-767758
-767950
-768006
-767892
-767966
-767682
-767941
-767978
-767961
-767920
-767643
-767756
-767740
-767810
-767793
-767546
-767682
-767568
-767799
-767844
-767552
-767663
-767728
-767833
-767800
-767612
-767645
-767850
-767915
-767907
-767668
-767885
-767939
-767970
-768026
-767775
-768034
-767972
-768112
-768063
-767943
-768148
-768158
-768222
-768353
-768105
-768303
-768390
-768328
-768384
-768292
-768491
-768503
-768621
-768624
-768470
-768607
-768753
-768800
-768779
-768592
-768764
-768904
-769020
-768997
-768829
-768968
-769060
-769215
-769346
-768948
-769156
-769333
-769339
-769412
-769136
-769410
-769457
-769572
-769526
-769287
-769424
-769685
-769733
-769803
-769584
-769744
-769768
-769938
-769953
-769698
-769836
-770060
-770057
-770264
-769934
-770137
-770249
-770293
-770192
-770363
-770463
-770446
-770520
-770388
-770591
-770638
-770783
-770856
-770585
-770691
-770838
-770956
-770946
-770782
-770962
-771071
-770984
-771006
-770876
-771078
-771197
-771200
-771274
-771090
-771214
-771406
-771413
-771516
-771319
-771485
-771509
-771673
-771688
-771515
-771483
-771611
-771781
-771809
-771545
-771756
-771860
-771961
-772017
-771775
-771908
-771986
-772150
-772158
-772000
-772013
-772116
-772214
-772274
-772080
-772299
-772356
-772403
-772522
-772294
-772377
-772556
-772610
-772667
-772498
-772550
-772815
-772846
-772835
-772582
-772686
-772830
-772889
-772963
-772797
-772939
-773085
-773184
-773214
-772973
-773103
-773178
-773260
-773422
-773115
-773210
-773376
-773437
-773439
-773296
-773293
-773573
-773608
-773706
-773190
-773491
-773706
-773809
-773874
-774274
-773900
-774016
-773964
-774076
-773828
-773896
-774008
-774213
-774298
-774063
-774070
-774262
-774284
-774350
-774201
-774235
-774464
-774603
-774590
-774423
-774552
-774688
-774743
-774785
-774621
-774654
-774803
-774854
-775003
-774779
-774808
-774969
-775029
-775076
-774933
-774965
-775144
-775257
-775349
-775191
-775155
-775434
-775430
-775463
-775305
-775373
-775630
-775608
-775635
-775419
-775536
-775696
-775811
-775935
-775821
-775784
-775976
-776006
-776039
-775982
-775918
-776596
-776341
-776343
-776100
-776077
-776261
-776349
-776303
-776185
-776313
-776463
-776557
-776592
-776509
-776429
-776606
-776771
-776878
-776767
-776715
-776962
-777068
-777053
-776917
-776908
-777064
-777162
-777201
-777085
-777014
-777254
-777295
-777429
-777233
-777292
-777384
-777436
-777483
-777302
-777202
-777300
-777306
-777207
-776920
-776580
-776531
-776448
-776173
-775776
-775338
-775272
-774890
-774701
-774184
-773625
-773361
-773014
-772604
-772061
-771534
-771373
-771060
-770743
-770155
-769704
-769538
-769226
-768914
-768484
-768023
-767851
-767730
-767515
-767095
-766681
-766640
-766588
-766456
-766203
-765850
-765828
-765830
-765953
-765633
-765326
-765562
-765577
-765571
-765479
-765240
-765485
-765452
-765616
-765522
-765418
-765577
-765717
-765774
-765702
-765561
-765889
-765944
-766069
-766003
-765845
-766111
-766164
-766270
-766149
-766113
-766335
-766473
-766620
-766482
-766384
-766591
-766691
-766761
-766648
-766555
-766592
-766791
-766842
-766785
-766494
-766639
-766760
-766844
-766653
-766474
-766666
-766768
-766817
-766644
-766368
-766534
-766594
-766692
-766577
-766437
-766577
-766676
-766614
-766464
-766271
-766503
-766575
-766683
-766522
-766138
-766307
-766358
-766673
-766692
-766528
-766725
-766849
-766900
-766858
-766663
-766926
-767113
-767233
-767153
-767044
-767258
-767405
-767400
-767373
-767182
-767530
-767601
-767701
-767591
-767420
-767699
-767636
-767744
-767741
-767408
-767673
-767729
-767834
-767759
-767529
-767771
-767758
-767895
-767676
-767449
-767618
-767749
-767779
-767699
-767432
-767569
-767633
-767697
-767579
-767427
-767502
-767565
-767697
-767524
-767377
-767449
-767428
-767480
-767344
-767136
-767305
-767386
-767417
-767356
-767112
-767243
-767322
-767448
-767377
-767121
-767175
-767325
-767306
-767301
-767074
-767268
-767262
-767459
-767259
-767113
-767331
-767318
-767364
-767305
-767220
-767370
-767462
-767485
-767497
-767223
-767449
-767458
-767617
-767600
-767417
-767643
-767755
-767922
-767826
-767646
-767953
-767868
-767943
-768014
-767755
-768018
-768111
-768205
-768230
-767939
-768231
-768332
-768369
-768344
-768206
-768436
-768386
-768486
-768496
-768277
-768507
-768673
-768704
-768692
-768441
-768685
-768693
-768817
-768838
-768658
-768890
-768956
-769025
-769103
-768771
-768976
-769136
-769239
-769132
-768887
-769207
-769166
-769172
-769253
-769054
-769356
-769368
-769401
-769555
-769192
-769405
-769488
-769641
-769691
-769474
-769715
-769832
-769833
-769740
-769557
-769833
-769928
-769922
-769984
-769640
-769904
-769986
-770064
-770100
-769793
-770064
-770051
-770202
-770290
-770095
-770341
-770276
-770428
-770362
-770109
-770318
-770444
-770551
-770549
-770225
-770531
-770548
-770701
-770688
-770468
-770735
-770727
-770819
-770853
-770565
-770799
-770845
-770938
-770957
-770779
-770955
-770941
-770982
-771146
-770898
-771128
-771190
-771148
-771253
-771010
-771150
-771269
-771238
-771405
-771132
-771257
-771391
-771431
-771554
-771233
-771562
-771657
-771584
-771627
-771509
-771693
-771791
-771758
-771820
-771560
-771738
-771871
-771994
-771986
-771712
-771932
-771944
-772055
-772117
-771952
-772059
-772215
-772208
-772405
-772187
-772283
-772456
-772530
-772510
-772331
-772550
-772576
-772622
-772709
-772477
-772652
-772689
-772728
-772819
-772626
-772944
-772929
-772990
-773036
-772770
-772967
-772989
-773018
-773131
-772868
-773076
-773110
-773214
-773245
-773025
-773273
-773239
-773262
-773448
-773227
-773332
-773505
-773514
-773546
-773243
-773490
-773549
-773693
-773805
-773452
-773684
-773798
-773826
-773887
-773317
-773769
-773859
-773980
-773949
-773706
-773952
-774010
-774033
-774120
-774042
-774173
-774269
-774313
-774352
-774062
-774395
-774435
-774504
-774383
-774212
-774458
-774513
-774536
-774586
-774351
-774708
-774778
-774705
-774803
-774650
-774889
-774907
-775029
-775074
-774836
-775119
-775110
-775172
-775266
-775047
-775246
-775230
-775311
-774952
-775200
-775071
-775016
-774882
-774433
-774412
-774187
-773943
-773854
-773155
-773079
-772765
-772368
-771977
-771357
-771182
-770714
-770298
-770151
-769433
-769164
-768854
-768487
-768145
-767469
-767346
-766935
-766595
-766312
-765691
-765657
-765452
-765222
-764976
-764491
-764472
-764754
-764214
-763850
-763542
-763570
-763526
-763419
-763294
-762786
-763114
-763143
-763183
-763166
-762879
-763089
-763002
-762985
-763039
-762840
-763072
-763098
-763045
-763214
-762898
-763169
-763227
-763015
-763263
-763045
-763284
-763521
-763512
-763573
-764044
-763667
-763721
-763714
-763729
-763516
-763718
-763702
-763781
-763747
-763476
-763686
-763706
-763730
-763476
-763696
-763630
-763752
-763725
-763345
-763483
-763521
-763555
-763568
-763230
-763378
-763361
-763457
-763464
-763207
-763254
-763353
-763219
-763364
-763087
-763276
-763329
-763314
-763276
-763089
-763295
-763366
-763410
-763446
-763225
-763456
-763455
-763555
-763679
-763360
-763644
-763746
-763848
-763919
-763686
-763898
-763946
-764014
-764145
-763933
-764118
-764233
-764286
-764309
-764182
-764323
-764383
-764488
-764526
-764349
-764511
-764512
-764598
-764745
-764389
-764513
-764606
-764646
-764591
-764422
-764627
-764514
-764576
-764546
-764289
-764345
-764492
-764448
-764612
-764265
-764357
-764412
-764345
-764428
-764152
-764299
-764267
-764355
-763957
-764210
-764280
-764192
-764251
-763896
-764130
-764116
-764114
-764123
-763821
-764035
-764065
-764148
-764185
-763946
-764053
-764121
-764115
-764039
-763785
-764042
-764036
-764058
-764156
-763924
-764155
-764136
-764110
-764218
-763940
-764149
-764283
-764304
-764380
-764128
-764297
-764395
-764479
-764568
-764284
-764457
-764617
-764662
-764800
-764587
-764776
-764821
-764875
-764999
-764778
-764896
-765053
-765058
-765213
-765027
-765169
-765284
-765292
-765281
-765182
-765437
-765521
-765527
-765631
-765275
-765494
-765579
-765652
-765758
-765541
-765716
-765775
-765882
-765922
-765553
-765792
-765921
-765945
-765970
-765742
-765947
-765970
-766032
-766080
-765882
-766084
-766098
-766208
-766314
-766069
-766230
-766400
-766346
-766409
-766189
-766367
-766584
-766596
-766673
-766375
-766622
-766621
-766661
-766871
-766578
-766775
-766812
-766944
-767053
-766799
-766993
-767102
-767106
-767258
-767034
-767220
-767302
-767328
-767327
-767157
-767261
-767369
-767425
-767464
-767285
-767535
-767532
-767582
-767701
-767489
-767652
-767571
-767684
-767815
-767628
-767818
-767943
-767843
-767991
-767722
-767894
-767998
-768122
-768172
-767994
-768072
-768194
-768277
-768371
-768182
-768280
-768389
-768501
-768555
-768351
-768535
-768629
-768620
-768646
-768485
-768657
-768724
-768834
-768866
-768614
-768918
-769003
-769070
-768805
-769033
-769175
-769212
-769189
-769027
-769132
-769336
-769366
-769479
-769272
-769289
-769454
-769573
-769594
-769408
-769520
-769651
-769762
-769867
-769540
-769678
-769795
-769834
-769940
-769793
-769986
-770077
-770135
-770199
-769984
-770032
-770164
-770205
-770262
-769969
-770117
-770290
-770328
-770347
-770117
-770266
-770448
-770584
-770547
-770428
-770492
-770628
-770658
-770713
-770528
-770563
-770777
-770808
-770929
-770675
-770769
-770969
-771054
-771034
-770868
-770962
-771028
-771196
-771212
-770999
-771118
-771201
-771329
-771391
-771162
-771240
-771359
-771556
-771562
-771356
-771414
-771536
-771656
-771792
-771590
-771602
-771774
-771827
-771916
-771672
-771716
-771875
-772078
-772103
-771933
-771928
-772208
-772248
-772347
-772220
-772241
-772386
-772483
-772535
-772439
-772395
-772507
-772628
-772777
-772492
-772476
-772619
-772737
-772919
-772641
-772694
-772818
-772942
-773143
-772962
-772953
-773143
-773139
-773079
-772968
-772960
-773011
-773003
-772961
-772592
-772446
-772383
-772279
-772113
-771478
-771133
-771042
-770717
-770376
-769828
-769403
-769259
-768837
-768529
-767803
-767150
-766818
-766624
-766402
-765774
-765355
-765055
-764816
-764289
-763746
-763377
-763200
-762974
-762758
-761838
-761853
-761852
-761660
-761483
-761046
-760841
-760810
-760701
-760610
-760364
-760172
-760277
-760255
-760122
-759892
-759680
-759882
-759898
-759965
-759836
-759718
-759793
-759791
-759886
-759572
-759585
-759816
-759819
-759895
-759690
-759668
-759922
-760003
-760043
-759971
-759871
-760110
-760189
-760254
-760690
-760234
-760337
-760359
-760376
-760223
-760015
-760213
-760258
-760353
-760142
-760102
-760718
-760485
-760292
-760093
-760009
-760127
-760198
-760183
-759968
-759865
-759942
-759931
-759972
-759799
-759691
-759816
-759833
-759816
-759598
-759426
-759648
-759620
-759640
-759532
-759372
-759631
-759618
-759686
-759521
-759525
-759707
-759724
-759749
-759640
-759541
-759806
-759984
-760016
-759886
-759868
-760139
-760194
-760320
-760152
-760073
-760291
-760460
-760562
-760370
-760278
-760569
-760637
-760793
-760612
-760402
-760693
-760739
-760890
-760749
-760562
-760877
-760954
-760916
-760756
-760682
-760841
-760890
-760992
-760753
-760666
-760827
-760840
-760916
-760796
-760514
-760774
-760828
-760898
-760635
-760524
-760776
-760676
-760735
-760481
-760346
-760456
-760342
-760475
-760362
-760277
-760450
-760443
-760352
-760343
-760101
-760311
-760320
-760463
-760575
-760181
-760371
-760301
-760409
-760228
-760051
-760280
-760296
-760438
-760360
-760086
-760403
-760400
-760493
-760371
-760192
-760411
-760461
-760582
-760621
-760295
-760534
-760550
-760682
-760595
-760472
-760667
-760812
-761379
-760913
-760663
-760903
-760982
-761175
-761118
-760936
-761121
-761113
-761272
-761298
-761108
-761238
-761337
-761522
-761337
-761195
-761435
-761520
-761676
-761517
-761195
-761533
-761622
-761777
-761656
-761503
-761798
-761816
-761972
-761917
-761821
-761981
-761975
-762029
-762013
-761810
-762008
-762100
-762244
-762156
-761980
-762240
-762363
-762478
-762370
-762306
-762483
-762535
-762649
-762501
-762259
-762486
-762674
-762706
-762722
-762450
-762663
-762752
-762905
-762753
-762628
-762845
-762872
-762988
-762979
-762669
-762981
-763126
-763145
-763235
-763003
-763346
-763304
-763432
-763490
-763193
-763361
-763461
-763592
-763546
-763362
-763578
-763605
-763674
-763721
-763425
-763590
-763751
-763795
-763900
-763606
-763785
-763939
-764079
-764060
-763760
-764011
-764113
-764100
-764149
-763917
-764083
-764232
-764269
-764270
-764165
-764372
-764395
-764365
-764335
-764189
-764451
-764441
-764494
-764584
-764390
-764663
-764682
-764867
-764784
-764599
-764693
-764884
-764900
-764895
-764595
-764861
-764984
-764994
-765078
-764824
-765038
-765160
-765278
-765213
-765074
-765214
-765261
-765297
-765338
-765111
-765328
-765407
-765498
-765426
-765256
-765445
-765522
-765715
-765598
-765428
-765597
-765722
-765828
-765915
-765589
-765844
-765872
-765963
-766029
-765696
-765920
-765976
-766092
-766803
-766087
-766135
-766299
-766288
-766372
-765914
-766364
-766371
-766455
-766476
-766282
-766513
-766602
-766603
-766780
-766609
-766827
-766848
-766939
-766994
-766670
-766922
-766949
-767053
-767001
-766875
-767033
-767142
-767194
-767185
-766905
-767236
-767294
-767334
-767459
-767152
-767389
-767355
-767412
-767547
-767352
-767513
-767646
-767666
-767766
-767565
-767737
-767699
-767919
-767846
-767594
-767841
-767944
-767973
-767831
-767751
-767996
-768063
-768097
-768210
-768042
-768256
-768321
-768411
-768486
-768179
-768372
-768483
-768508
-768529
-768331
-768617
-768585
-768646
-768691
-768503
-768831
-768821
-768807
-768991
-768735
-768858
-768973
-768938
-769413
-768842
-768941
-768962
-768982
-768790
-768535
-768684
-768521
-768366
-768197
-767694
-767748
-767364
-767015
-766734
-766181
-766006
-765577
-765167
-764817
-764238
-763981
-763549
-763234
-762804
-762159
-761994
-761555
-761139
-760857
-760183
-760100
-759704
-759342
-759078
-758522
-758370
-758159
-758031
-757792
-757469
-757340
-757140
-756974
-756844
-756531
-756580
-756586
-756453
-756454
-756101
-756323
-756231
-756196
-756138
-755852
-756108
-756091
-756129
-756247
-755933
-756194
-756573
-756384
-756173
-756400
-756250
-756351
-756424
-756235
-756476
-756521
-756615
-756609
-756433
-756644
-756765
-756702
-756790
-756575
-756765
-756792
-756781
-756851
-756611
-756674
-756756
-756866
-756855
-756575
-756768
-756760
-756671
-756964
-756439
-756571
-756530
-756512
-756399
-756116
-756326
-756473
-756368
-756380
-756103
-756330
-756283
-756387
-756419
-756077
-756284
-756333
-756372
-756507
-756264
-756227
-756424
-756586
-756668
-756428
-756713
-756743
-756801
-756926
-756714
-756994
-757093
-757142
-757116
-756885
-757221
-757244
-757773
-757433
-757133
-757302
-757260
-757285
-757146
-757141
-757333
-757317
-757391
-757353
-757019
-757257
-757303
-757216
-757322
-757034
-756933
-757668
-757184
-757186
-756670
-757115
-757535
-757132
-757105
-756614
-756698
-756719
-756683
-756655
-756380
-756658
-756592
-756709
-756575
-756331
-756301
-756401
-756384
-756543
-756236
-756217
-756149
-756368
-756457
-756179
-756380
-756446
-756387
-756465
-756266
-756460
-756319
-756412
-756364
-756624
-756634
-756648
-756626
-756628
-756343
-756638
-756725
-756631
-756757
-756558
-757387
-756773
-756679
-756902
-756640
-756936
-756723
-757005
-757093
-756907
-757066
-757179
-757278
-757389
-756955
-757216
-757389
-757393
-757432
-757044
-757497
-757631
-757641
-757752
-757502
-757708
-757783
-757858
-758334
-757722
-758518
-758159
-758061
-758163
-758022
-758221
-758317
-758332
-758309
-758132
-758330
-758432
-758490
-758676
-758396
-758981
-758673
-758670
-758612
-758378
-758630
-758766
-758793
-758860
-758556
-759525
-759029
-758975
-758980
-758671
-759454
-759158
-759031
-759172
-758761
-758903
-759006
-759381
-759375
-759018
-759329
-759042
-759301
-759237
-759115
-759401
-759441
-759385
-759432
-759247
-759585
-759674
-759741
-759734
-759475
-759659
-759798
-759913
-759881
-759696
-759645
-759956
-760014
-760022
-759867
-760055
-760153
-760842
-760437
-759969
-759939
-760096
-759988
-760668
-760187
-760302
-760840
-760528
-760462
-760128
-760334
-760472
-760453
-760363
-760633
-760673
-760655
-760583
-760725
-760517
-761199
-760927
-760843
-760887
-760718
-760860
-760937
-761009
-761179
-760941
-761210
-761306
-761280
-761365
-761610
-762050
-761428
-761525
-761701
-761368
-761646
-761710
-761741
-761715
-761545
-761653
-761830
-761916
-761943
-761736
-761998
-762035
-762018
-762160
-761909
-762084
-762107
-762219
-762325
-762055
-762254
-762322
-762393
-762536
-762246
-762849
-762574
-762528
-762593
-762367
-762564
-762685
-762502
-762693
-762585
-762669
-762741
-763027
-762975
-762719
-762964
-763059
-763079
-763147
-762935
-763165
-763174
-763235
-763266
-763109
-763411
-763410
-763487
-763428
-763302
-763486
-763575
-763724
-763815
-763557
-763792
-763905
-764008
-763973
-763693
-763906
-764067
-764041
-764149
-763939
-764084
-764286
-764342
-764351
-764249
-764306
-764485
-764477
-764577
-764451
-764583
-764653
-764650
-764758
-764554
-764665
-764676
-764707
-764685
-764432
-764485
-764418
-764353
-764188
-763703
-763535
-763354
-763142
-762847
-762357
-762093
-761833
-761423
-761024
-760378
-760142
-759825
-759277
-758909
-758248
-757928
-757631
-757170
-756798
-756201
-755912
-755623
-755263
-754927
-754330
-754105
-753825
-753534
-753358
-752863
-752759
-752565
-752354
-752205
-751758
-751645
-751560
-751507
-751411
-750949
-751011
-751030
-750915
-750880
-750707
-750688
-750743
-750774
-750827
-750416
-750462
-750591
-750640
-750566
-750316
-750531
-750520
-750582
-750699
-750362
-750460
-750588
-750553
-750601
-750365
-750426
-750586
-750538
-750643
-750405
-750501
-750520
-750491
-750531
-750314
-750273
-750323
-750332
-750262
-750040
-750073
-750176
-750133
-750143
-749812
-749782
-749866
-749850
-749829
-749480
-749532
-749602
-749660
-749671
-749288
-749386
-749490
-749390
-749426
-749114
-749164
-749276
-749254
-749370
-749187
-749227
-749324
-749268
-749330
-749169
-749163
-749347
-749519
-749539
-749337
-749509
-749694
-749696
-749781
-749586
-749615
-749876
-749888
-750055
-749938
-749975
-750241
-750222
-750421
-750167
-750248
-750386
-750511
-750551
-750423
-750480
-750568
-750689
-750677
-750549
-750513
-750695
-750746
-750873
-750688
-750707
-750799
-750827
-750903
-750664
-750641
-750730
-750743
-750821
-750499
-750518
-750713
-750660
-750692
-750534
-750368
-750537
-750513
-750512
-750281
-750290
-750467
-750429
-750400
-750079
-750102
-750262
-750310
-750216
-750028
-750010
-750106
-750165
-750171
-750053
-750000
-750122
-750111
-750210
-750001
-750018
-750159
-750156
-750250
-750119
-750075
-750252
-750332
-750318
-750137
-750159
-750353
-750346
-750487
-750313
-750300
-750597
-750647
-750622
-750507
-750442
-750635
-750693
-750862
-750738
-750728
-750879
-751023
-751065
-750828
-750815
-751015
-751197
-751230
-751098
-751052
-751270
-751341
-751494
-751339
-751302
-751472
-751554
-751698
-751552
-751548
-751691
-751795
-751987
-751895
-751737
-751844
-751879
-752049
-751990
-751873
-752086
-752186
-752242
-752140
-751986
-752171
-752322
-752413
-752219
-752269
-752442
-752471
-752681
-752499
-752458
-752658
-752723
-752860
-752755
-752593
-752918
-753008
-753085
-752861
-752859
-753072
-753145
-753333
-753234
-753184
-753338
-753502
-753487
-753384
-753354
-753518
-753612
-753673
-753548
-753525
-753609
-753653
-753859
-753738
-753651
-753870
-753931
-754000
-753890
-753719
-753998
-754030
-754227
-754037
-753891
-754120
-754237
-754421
-754233
-754061
-754312
-754388
-754563
-754440
-754380
-754613
-754668
-754749
-754679
-754552
-754701
-754897
-754955
-754870
-754694
-754956
-754995
-755186
-755080
-754877
-755198
-755297
-755422
-755268
-755171
-755397
-755411
-755524
-755517
-755297
-755600
-755726
-755818
-755692
-755530
-755834
-755919
-756015
-755900
-755797
-755943
-755989
-756054
-755991
-755806
-756136
-756110
-756348
-756170
-756036
-756212
-756286
-756460
-756333
-756166
-756378
-756412
-756611
-756466
-756352
-756521
-756602
-756794
-756753
-756531
-756810
-756862
-756960
-756950
-756708
-756968
-757076
-757193
-757058
-756909
-757115
-757252
-757348
-757221
-757089
-757373
-757451
-757467
-757393
-757354
-757502
-757543
-757711
-757703
-757465
-757785
-757791
-757900
-757883
-757775
-758015
-758071
-758173
-758165
-757870
-758086
-758280
-758422
-758319
-758097
-758325
-758405
-758488
-758487
-758334
-758522
-758557
-758744
-758724
-758640
-758733
-758738
-758883
-758817
-758747
-758902
-758971
-759165
-759101
-758900
-759182
-759283
-759388
-759319
-759206
-759364
-759464
-759557
-759523
-759312
-759599
-759637
-759721
-759507
-759270
-759290
-759259
-759184
-758923
-758449
-758401
-758236
-758019
-757544
-757030
-756743
-756351
-756107
-755595
-754998
-754735
-754314
-754031
-753468
-752837
-752458
-752099
-751698
-751181
-750553
-750343
-750037
-749694
-749257
-748714
-748471
-748195
-748063
-747640
-747115
-747061
-746864
-746795
-746614
-746081
-746041
-746013
-745935
-745666
-745360
-745477
-745325
-745342
-745158
-744886
-744988
-745045
-745028
-744979
-744739
-744937
-744854
-744898
-744883
-744692
-744819
-744878
-744882
-744849
-744688
-744836
-744844
-744902
-744875
-744626
-744761
-744791
-744751
-744717
-744465
-744659
-744597
-744579
-744594
-744378
-744518
-744553
-744414
-744300
-743980
-744195
-744131
-744215
-744150
-743865
-743981
-743832
-743788
-743773
-743536
-743620
-743554
-743558
-743455
-743181
-743297
-743323
-743402
-743359
-742981
-743193
-743180
-743300
-743270
-743015
-743129
-743223
-743247
-743050
-743291
-743418
-743404
-743509
-743324
-743550
-743718
-743747
-743870
-743751
-744053
-744163
-744255
-744320
-744119
-744326
-744436
-744465
-744600
-744308
-744613
-744635
-744772
-744795
-744417
-744784
-744861
-744939
-744958
-744648
-744912
-744844
-744779
-744825
-744648
-744773
-744848
-744815
-744831
-744628
-744768
-744803
-744830
-744874
-744482
-744620
-744694
-744698
-744619
-744385
-744632
-744638
-744548
-744544
-744309
-744388
-744424
-744468
-744455
-744177
-744388
-744426
-744324
-744399
-744190
-744320
-744321
-744311
-744281
-744035
-744292
-744326
-744266
-744290
-744103
-744327
-744313
-744362
-744442
-744174
-744291
-744330
-744449
-744528
-744263
-744447
-744552
-744608
-744639
-744372
-744739
-744733
-744786
-744849
-744574
-744756
-744951
-745019
-745009
-744724
-745032
-745107
-745213
-745184
-744968
-745228
-745296
-745326
-745460
-745200
-745404
-745586
-745651
-745772
-745530
-745676
-745769
-745873
-745995
-745687
-745972
-746043
-746047
-746153
-745876
-746182
-746171
-746183
-746350
-746131
-746339
-746340
-746469
-746429
-746307
-746545
-746646
-746591
-746770
-746456
-746697
-746759
-746832
-746887
-746697
-746943
-746940
-747006
-747010
-746847
-747019
-747173
-747224
-747208
-747077
-747280
-747281
-747384
-747460
-747276
-747451
-747564
-747595
-747608
-747447
-747666
-747668
-747747
-747778
-747559
-747762
-747891
-747963
-748159
-747902
-748049
-748114
-748177
-748296
-748021
-748375
-748425
-748420
-748597
-748324
-748581
-748588
-748602
-748721
-748421
-748630
-748830
-748817
-748928
-748711
-748899
-749021
-749097
-748919
-749121
-749091
-749238
-749295
-749048
-749244
-749267
-749359
-749312
-749119
-749324
-749364
-749448
-749653
-749328
-749500
-749604
-749704
-749822
-749607
-749758
-749815
-749838
-749918
-749712
-749935
-749949
-750000
-750017
-749821
-750056
-750208
-750284
-750192
-750019
-750253
-750418
-750422
-750659
-750261
-750454
-750467
-750700
-750709
-750505
-750735
-750775
-750878
-750971
-750657
-750939
-751037
-751101
-751185
-750960
-751133
-751221
-751336
-751407
-751121
-751385
-751430
-751511
-751689
-751441
-751601
-751635
-751800
-751883
-751668
-751827
-751798
-751866
-751974
-751642
-751872
-752050
-752154
-752144
-751831
-752132
-752178
-752217
-752326
-752144
-752226
-752325
-752296
-752354
-752186
-752412
-752517
-752520
-752712
-752320
-752564
-752708
-752732
-752876
-752703
-752904
-752962
-752973
-753051
-752777
-753032
-753054
-753216
-753299
-753056
-753191
-753270
-753358
-753462
-753277
-753482
-753559
-753531
-753685
-753413
-753603
-753636
-753756
-753795
-753644
-753869
-753923
-754006
-754124
-753895
-754143
-754218
-754261
-754308
-754138
-754248
-754388
-754420
-754470
-754193
-754396
-754401
-754539
-754633
-754364
-754449
-754346
-754330
-754239
-753849
-753916
-753646
-753442
-753068
-752649
-752444
-752084
-751791
-751464
-750890
-750520
-750158
-749703
-749299
-748575
-748371
-747890
-747411
-747045
-746349
-745962
-745602
-745194
-744792
-744061
-744003
-743707
-743255
-742933
-742328
