PPG
-886838
-887296
-887527
-887818
-888121
-888679
-889149
-889358
-889875
-890266
-890684
-891217
-891734
-892054
-892625
-893110
-894112
-894045
-894389
-894721
-895192
-896312
-896125
-896312
-896662
-897031
-897363
-897644
-897898
-898226
-898647
-899091
-899176
-899496
-899675
-900130
-900454
-900530
-900900
-901094
-901292
-901482
-901498
-901672
-901798
-901983
-902299
-902402
-902670
-903306
-902925
-902879
-902950
-902939
-903064
-903209
-903426
-903437
-903631
-903702
-903707
-903723
-903706
-903710
-903609
-903827
-903917
-903832
-903923
-903746
-903752
-903786
-903683
-903566
-903438
-903291
-903327
-903217
-903139
-903026
-903064
-903384
-903152
-903534
-903698
-903834
-904044
-903967
-904103
-904105
-904314
-904421
-904481
-904549
-904680
-904924
-904849
-905059
-905217
-905424
-905733
-905862
-905920
-906007
-906107
-906210
-906249
-906340
-906424
-906451
-906628
-907527
-907216
-907309
-907580
-907949
-908295
-908455
-908886
-909217
-909543
-909725
-910009
-910203
-910417
-910644
-911104
-911376
-911655
-911883
-912210
-912576
-912866
-913168
-913519
-914001
-914325
-914729
-915102
-915463
-915793
-916095
-916351
-916691
-916994
-917361
-917761
-918008
-918314
-918607
-919015
-919353
-919547
-919755
-919969
-920372
-920578
-920763
-921089
-921375
-921636
-921846
-921877
-922121
-922360
-922754
-922984
-923226
-923536
-923292
-923827
-924032
-924148
-924336
-924391
-924424
-924811
-924963
-925107
-925154
-925245
-925267
-925307
-925326
-925367
-925699
-925841
-926034
-926052
-926124
-926248
-926433
-926469
-926502
-926573
-926763
-927040
-926951
-926891
-926954
-927144
-927352
-927346
-927251
-927405
-927486
-927639
-927560
-927556
-927649
-927804
-927906
-927947
-927919
-927998
-927841
-928224
-928186
-928349
-928326
-928629
-928792
-928854
-929083
-929133
-929244
-929491
-929445
-929578
-929745
-930040
-930245
-930211
-930463
-930780
-930930
-931171
-931091
-931412
-931699
-931987
-932158
-932266
-932371
-932479
-932554
-932524
-932404
-932326
-932129
-932002
-931715
-931364
-930944
-930396
-929930
-929481
-928840
-928119
-927386
-926450
-925906
-924872
-923974
-923128
-922229
-921318
-920271
-919242
-918312
-917474
-916499
-915382
-914404
-913343
-912438
-911632
-910811
-909862
-908894
-908010
-907090
-906042
-905250
-904309
-903622
-902892
-902005
-901025
-900478
-899984
-900344
-899125
-898240
-897698
-897190
-896627
-896246
-895655
-895381
-895127
-894844
-894655
-894345
-894279
-894254
-894114
-893970
-893911
-893778
-893834
-893763
-893604
-893539
-893517
-893589
-893482
-893458
-893471
-893512
-893611
-893511
-893450
-893526
-893648
-893776
-893893
-893873
-893833
-893813
-893978
-893938
-893853
-893947
-894052
-894186
-894242
-894316
-894284
-894274
-894497
-894521
-894341
-894375
-894435
-894494
-894570
-894480
-894577
-894628
-894836
-894788
-894614
-894708
-894863
-894913
-895167
-895205
-895278
-895253
-895416
-895624
-895588
-896211
-895893
-896301
-896369
-896518
-896534
-896702
-896941
-897134
-897105
-897413
-897465
-897753
-897909
-897962
-898122
-898194
-898474
-898678
-898822
-898894
-899046
-899352
-899542
-899707
-899768
-900008
-900340
-900491
-900640
-900738
-900852
-901099
-901232
-901341
-901498
-901507
-901548
-901583
-901688
-901725
-901768
-901827
-902108
-901999
-902055
-902112
-902090
-902065
-901858
-901791
-902304
-902028
-901986
-901902
-901958
-902788
-902309
-901995
-901780
-901708
-901646
-901705
-901687
-901450
-901515
-901247
-901292
-901244
-900926
-900857
-900673
-900871
-900966
-900735
-900622
-900543
-900512
-900295
-900224
-900014
-900046
-900164
-900173
-899980
-899952
-899813
-899938
-899802
-899718
-899671
-899657
-899749
-899775
-899695
-899648
-899618
-899748
-899793
-899576
-899610
-899638
-899784
-899868
-899831
-899978
-900020
-900187
-900422
-900321
-900436
-900492
-900710
-900866
-900788
-900823
-900977
-901148
-901220
-901186
-901185
-901231
-901394
-901475
-901440
-901510
-901518
-901621
-901605
-901511
-901528
-902359
-901967
-901847
-901740
-901858
-901911
-902142
-902162
-902094
-902112
-902086
-902283
-902390
-902472
-902498
-902552
-902560
-902569
-902567
-902632
-902686
-902860
-902924
-902966
-903181
-903343
-903411
-903332
-903498
-903760
-904169
-904147
-904053
-904086
-904044
-904247
-904547
-904674
-904912
-905006
-905144
-905073
-905299
-905281
-905392
-905501
-905852
-905938
-906617
-906783
-906823
-907123
-907390
-907418
-907323
-907495
-907617
-907481
-907557
-907730
-908684
-909218
-909301
-909195
-909211
-909353
-909565
-909773
-909871
-910449
-910815
-910930
-910822
-910648
-910579
-910550
-910633
-910687
-910814
-910610
-910651
-910710
-910847
-910933
-911145
-911278
-911583
-911691
-911641
-911812
-911924
-912280
-912409
-912414
-912544
-912685
-912798
-913001
-912993
-912909
-912961
-912863
-912669
-912283
-911952
-911623
-911233
-910972
-910320
-909793
-909295
-908863
-908436
-907965
-907498
-907046
-906513
-905860
-904800
-903812
-902543
-901418
-900176
-898668
-897424
-896120
-894533
-893307
-891989
-890727
-889514
-888280
-887127
-885768
-884530
-883147
-882133
-880961
-879737
-878706
-877463
-876559
-875641
-874553
-873601
-872795
-871988
-871296
-870294
-869571
-868746
-867922
-867068
-866171
-865575
-864958
-864141
-863521
-862531
-861848
-861344
-860833
-860429
-859957
-859595
-859336
-859014
-858740
-858415
-858248
-858250
-858151
-858193
-857897
-857882
-857804
-857772
-857828
-857659
-857809
-857769
-857709
-857535
-857431
-857442
-857432
-857455
-857336
-857091
-857074
-856992
-857248
-857115
-856906
-856720
-856648
-856676
-856606
-856551
-856547
-856561
-856619
-856484
-856183
-855914
-856086
-856211
-856265
-856171
-856159
-856282
-856321
-856356
-856160
-856141
-856274
-856428
-856286
-856257
-856311
-856437
-856658
-857572
-856961
-856971
-856984
-857180
-857473
-857646
-857886
-858076
-858352
-858454
-858428
-858659
-858916
-859069
-859290
-859305
-859466
-859719
-859691
-859789
-859843
-860096
-860329
-860429
-860568
-860484
-860379
-860217
-859998
-859582
-859020
-858614
-859269
-858176
-857379
-856904
-856444
-855927
-855675
-855394
-854888
-855123
-855353
-855697
-855999
-856085
-856377
-856505
-856596
-856522
-856407
-856181
-855985
-856051
-856364
-856480
-856531
-856372
-856154
-856095
-856042
-856145
-856360
-856846
-857107
-857095
-857136
-856959
-857114
-857178
-857076
-857059
-857199
-857256
-857354
-857302
-857377
-857535
-857781
-857891
-857809
-857919
-858013
-858176
-858398
-858472
-858645
-858717
-858858
-859110
-859353
-859618
-859937
-860448
-860877
-861293
-861896
-862607
-863465
-864366
-865085
-866030
-867141
-868193
-869164
-869916
-870611
-870762
-870747
-870470
-870368
-870434
-870687
-870885
-870897
-870935
-871116
-871435
-871755
-871923
-872141
-872384
-872630
-872698
-872944
-872893
-873149
-873527
-873768
-873879
-873851
-874031
-874293
-874470
-874586
-874629
-874858
-875063
-875207
-875367
-875419
-875379
-875299
-875173
-874620
-874037
-873245
-872453
-871631
-870674
-869709
-869446
-869956
-871222
-872337
-872912
-872954
-873114
-873246
-873382
-873748
-874159
-874688
-875058
-875457
-875511
-875758
-876040
-876496
-876712
-876798
-877158
-877312
-877606
-877884
-877944
-878216
-878879
-879063
-879318
-879627
-880255
-880790
-881373
-881784
-882287
-882636
-883042
-883522
-883866
-884131
-884511
-884724
-885031
-885243
-885356
-885608
-885763
-885963
-886192
-886349
-886489
-887322
-887254
-887483
-887738
-888115
-888521
-889060
-889342
-889793
-890167
-890764
-891436
-892014
-892524
-892932
-893605
-894235
-894770
-895124
-895571
-896081
-896694
-897235
-897616
-897836
-898084
-898009
-897744
-897491
-897121
-896963
-897009
-896994
-896909
-896802
-896433
-896603
-896390
-896346
-896224
-896178
-896319
-896238
-896188
-896032
-895878
-895803
-895714
-895496
-895405
-895368
-895214
-895033
-894763
-894351
-894023
-893748
-893384
-892860
-892419
-891854
-891214
-890533
-889700
-888870
-888112
-887404
-886817
-886416
-886144
-885581
-885127
-884363
-883551
-882771
-881901
-880859
-879867
-878887
-877821
-876871
-875940
-874751
-873584
-872342
-871622
-870758
-869792
-868697
-867608
-866479
-865607
-864478
-863311
-862373
-861461
-860437
-859359
-858175
-857486
-856258
-855351
-854560
-853554
-852805
-851891
-851185
-850436
-849617
-849159
-848918
-848728
-848586
-848764
-848982
-849287
-849744
-850014
-850516
-850665
-850293
-849582
-848343
-847633
-847284
-847147
-846923
-846690
-846117
-845799
-845729
-845545
-845475
-845289
-845260
-845261
-845201
-845085
-844980
-845003
-845052
-845004
-844681
-844914
-844962
-845032
-845153
-845076
-845152
-845430
-845656
-845811
-845850
-845707
-845781
-845874
-846090
-846187
-846287
-846363
-846408
-846625
-846701
-846824
-846883
-846977
-847010
-847060
-846959
-847086
-847126
-847226
-847165
-847091
-847208
-847338
-847497
-847576
-847524
-847669
-847847
-848065
-848155
-848163
-848341
-848523
-848814
-848872
-849026
-849167
-849473
-849785
-849913
-850081
-850369
-850348
-850754
-851027
-851072
-851174
-851196
-851190
-851062
-850824
-850541
-850373
-850193
-849803
-849459
-848606
-848386
-848211
-848128
-847891
-847736
-847565
-847379
-847430
-847331
-847268
-847153
-847279
-847333
-847394
-847382
-847423
-847523
-847571
-847449
-847301
-847153
-846755
-846707
-846534
-846454
-846464
-846577
-846651
-846692
-846704
-846861
-847044
-847401
-847507
-847618
-847712
-847875
-848114
-848200
-848134
-848249
-848387
-848566
-848702
-848717
-848782
-848906
-849018
-849082
-849327
-849512
-849783
-850143
-850542
-850918
-851444
-852070
-852844
-853399
-854004
-854485
-854980
-855296
-855500
-856088
-855434
-855277
-854986
-854545
-853990
-853462
-852838
-852209
-851429
-850749
-850310
-850217
-850665
-851354
-852056
-852669
-852918
-853310
-853389
-853589
-853867
-854173
-854443
-854697
-854822
-855201
-855618
-856478
-856664
-857289
-858092
-859074
-859995
-860781
-861456
-862138
-862807
-863308
-863625
-863826
-863808
-864097
-864155
-864089
-863833
-863679
-863415
-863194
-862811
-862436
-861858
-861596
-861110
-860571
-860091
-860181
-860792
-861772
-862226
-862408
-862516
-862489
-862629
-862769
-863027
-863349
-863742
-863925
-863977
-864205
-864668
-865092
-865482
-865867
-866171
-866407
-866782
-867050
-867282
-867496
-867927
-868312
-868724
-869098
-869311
-869541
-869781
-870189
-870428
-870836
-871117
-871343
-871516
-871906
-872052
-872194
-872446
-872717
-872944
-872876
-873043
-873647
-873553
-873527
-873695
-873755
-873924
-874201
-874311
-874293
-874451
-874611
-874833
-874979
-875222
-875279
-875428
-875700
-875889
-876025
-876135
-876369
-876365
-876410
-876304
-876519
-876978
-877404
-877851
-878023
-878290
-878421
-878671
-878897
-878992
-878958
-879160
-879469
-879565
-879729
-879902
-879774
-880143
-880481
-880573
-880726
-880730
-880801
-880968
-880910
-880729
-880672
-880751
-880775
-880942
-880840
-880798
-880652
-880452
-880210
-880079
-880021
-880325
-880330
-880266
-880231
-880227
-880272
-880190
-880086
-879814
-879847
-879846
-879538
-879338
-879176
-879061
-878689
-878016
-877218
-876509
-875719
-874973
-874129
-873161
-872231
-871309
-870418
-869513
-868619
-867945
-867393
-866855
-866346
-865873
-865541
-865373
-865075
-864823
-864465
-864015
-863336
-862070
-860305
-858540
-857056
-855907
-854902
-853818
-852594
-851734
-850829
-850068
-849186
-848155
-847096
-846144
-845212
-844233
-843252
-842388
-841586
-840885
-840056
-839971
-838804
-837999
-837398
-836727
-836779
-836001
-835467
-835081
-834630
-834188
-834017
-833862
-833597
-833389
-833000
-832962
-832906
-832739
-832618
-832379
-832297
-832115
-832086
-831971
-831712
-831621
-831736
-831705
-831759
-831875
-831858
-832001
-831857
-831950
-831867
-832066
-832081
-832390
-832389
-832450
-832335
-832342
-832247
-832266
-832250
-832426
-832698
-832816
-832746
-832867
-832823
-833138
-833103
-833319
-833363
-833389
-833695
-833465
-833406
-833316
-833377
-833558
-833616
-833722
-833727
-834033
-834076
-834199
-834318
-834333
-834561
-834810
-834999
-835182
-835563
-835790
-836255
-836698
-836967
-837417
-837856
-838244
-838754
-839162
-839744
-840204
-840691
-841089
-841458
-841827
-842392
-842803
-843226
-843459
-843866
-844397
-844742
-845047
-845491
-845773
-846036
-846483
-846617
-846752
-847029
-847335
-847712
-847958
-848086
-848222
-848480
-848765
-848920
-848864
-849057
-849388
-849629
-849651
-849833
-849809
-850030
-850177
-850185
-850180
-850147
-850222
-850685
-850686
-850619
-850660
-850703
-850760
-850662
-850549
-850607
-850686
-850874
-850722
-850653
-850674
-850661
-850596
-850412
-850472
-850572
-850510
-850335
-850000
-849440
-849158
-848838
-848484
-847930
-847450
-847001
-846831
-846751
-846617
-846544
-846338
-846171
-845734
-845191
-844652
-844213
-844136
-843765
-843464
-843214
-843106
-843009
-842830
-842595
-842290
-842001
-841937
-842046
-842038
-842198
-842280
-842575
-842724
-842919
-842932
-843198
-843530
-843797
-843877
-843998
-844102
-844303
-844480
-844539
-844804
-845058
-845433
-845874
-846187
-846565
-847018
-847500
-848011
-848574
-849014
-849434
-850136
-850552
-850936
-851215
-851629
-852105
-852627
-852974
-853549
-854114
-854645
-855282
-855865
-856403
-856908
-857382
-857626
-857622
-857625
-857994
-858253
-858440
-858633
-858787
-859029
-859236
-859472
-859722
-859870
-860052
-860354
-860478
-860503
-860645
-860816
-861002
-861253
-861434
-861544
-861775
-862246
-862628
-862867
-863119
-863437
-863886
-864185
-864489
-864790
-865218
-865650
-866058
-866445
-866866
-867399
-868126
-868811
-869423
-870071
-870945
-871834
-872746
-873471
-874253
-874936
-875610
-877246
-877375
-877754
-878216
-878650
-878976
-879181
-879251
-879262
-879155
-878982
-878736
-878528
-878318
-878439
-878569
-878776
-878913
-879095
-879142
-879234
-879094
-879102
-878603
-878559
-878709
-878762
-878725
-878640
-878702
-878670
-878611
-878499
-878470
-878417
-878260
-878166
-877912
-877716
-877656
-877571
-877537
-877485
-877395
-877251
-877123
-877027
-876865
-876770
-876737
-876617
-876485
-876183
-876116
-876200
-876196
-875402
-875233
-874718
-874313
-873944
-873403
-872853
-872189
-871690
-871204
-870482
-869686
-868995
-868262
-867401
-866401
-865275
-864076
-863241
-862307
-861236
-860139
-859118
-858053
-857755
-856282
-855009
-853794
-852691
-851598
-850472
-849211
-848208
-847262
-846373
-845186
-844188
-843187
-842482
-841773
-840857
-839839
-839079
-838649
-837895
-837194
-836438
-835757
-835078
-834684
-834268
-833703
-833398
-833096
-832628
-832257
-832006
-831695
-831612
-831509
-831313
-831227
-831149
-831340
-831247
-831279
-831227
-831304
-831524
-831760
-831972
-832176
-832504
-832816
-833057
-833285
-833675
-833988
-834477
-834785
-834993
-835336
-835698
-835870
-836048
-835962
-835862
-835709
-835885
-835969
-835776
-835787
-835929
-836070
-836209
-836290
-836407
-836455
-836520
-836643
-836619
-836649
-836803
-836738
-836922
-837008
-837175
-837218
-837273
-837407
-837367
-837346
-837492
-837725
-838015
-837847
-837856
-837996
-838144
-838199
-838144
-838148
-838250
-838326
-838531
-838478
-838372
-838468
-838649
-838692
-838575
-838589
-838750
-838800
-838947
-838933
-838956
-839009
-839156
-839178
-839113
-839193
-839126
-839236
-839109
-838944
-838799
-838643
-838680
-838573
-838327
-838205
-837988
-837978
-837868
-837615
-837390
-837158
-837018
-836870
-836679
-836383
-836235
-836141
-836101
-835785
-836105
-835596
-835550
-835439
-835270
-835205
-835359
-835441
-835279
-835289
-835159
-835306
-835322
-835265
-835306
-835360
-835389
-835478
-835608
-835742
-835791
-836060
-836219
-836360
-836420
-836635
-836967
-837106
-837282
-837527
-837732
-838158
-838430
-838570
-838835
-839199
-839572
-840089
-840278
-840638
-840871
-841156
-841520
-841895
-842211
-842481
-842741
-843038
-843316
-843514
-843661
-843878
-844002
-844027
-843829
-843723
-843789
-843940
-844011
-844087
-844159
-844252
-844472
-844394
-844428
-844429
-844499
-844417
-842694
-842547
-842343
-842043
-841885
-841649
-841654
-841688
-841529
-841617
-841702
-841949
-842153
-842114
-842355
-842595
-842686
-843353
-843528
-843801
-844164
-844583
-844891
-845010
-845296
-845427
-845844
-845999
-846254
-846500
-846699
-846989
-847276
-847469
-847826
-848058
-848347
-848825
-849044
-849389
-849802
-850262
-850651
-850987
-851423
-851768
-852102
-852564
-852823
-853134
-853408
-853787
-854097
-854410
-854599
-854828
-855255
-855591
-855821
-855933
-856218
-856508
-856597
-856736
-856919
-856862
-857096
-857274
-857413
-857426
-857607
-857797
-857903
-857904
-857974
-858047
-858156
-858253
-858186
-859168
-858755
-858782
-858944
-858938
-859037
-859104
-859288
-859563
-859648
-859841
-859989
-860254
-860539
-860707
-860676
-860769
-861015
-861190
-861185
-861188
-861403
-861498
-861589
-861652
-861730
-861782
-862045
-862080
-862116
-862212
-862355
-862470
-862499
-862468
-862540
-862568
-862862
-863029
-863077
-863135
-863258
-863424
-863433
-863358
-863239
-863142
-863213
-863142
-862783
-862393
-861972
-861579
-861115
-860639
-859924
-859282
-858823
-858295
-857553
-856898
-856175
-855638
-854855
-853981
-853193
-852389
-851631
-850761
-849692
-848417
-847079
-845814
-844630
-843451
-842474
-841522
-840706
-839890
-838794
-837867
-837198
-836474
-835733
-834947
-834190
-833472
-832905
-832445
-831756
-831258
-830794
-830394
-829969
-829556
-829084
-828695
-828534
-828382
-828136
-827972
-827924
-827804
-827819
-827701
-827520
-827548
-827532
-827579
-827533
-827588
-827662
-828111
-827953
-827915
-827890
-827970
-828257
-828221
-828418
-828562
-828825
-829045
-829280
-829443
-829758
-829826
-830218
-830490
-830643
-830866
-831167
-831355
-831660
-831835
-832076
-832348
-832681
-832900
-832991
-832946
-833370
-833915
-834204
-834283
-834472
-834608
-834941
-835282
-835470
-835952
-836236
-836367
-836704
-836983
-837273
-837677
-838039
-838384
-838481
-838812
-838950
-839434
-839656
-839885
-840181
-840501
-840875
-841119
-841301
-841476
-841677
-841955
-842195
-842335
-842550
-842626
-842760
-842987
-843104
-843265
-843382
-843492
-843616
-843675
-843707
-843678
-843725
-843664
-843446
-843491
-843386
-843222
-843038
-842771
-842307
-841912
-841872
-841758
-841219
-840949
-840533
-840182
-839801
-839400
-838960
-838548
-838223
-837924
-837589
-837185
-836891
-836639
-836312
-835891
-835700
-835402
-835244
-835120
-834749
-834505
-834353
-834101
-833559
-833516
-833479
-833463
-833571
-833736
-833832
-833918
-834045
-834134
-834271
-834281
-834344
-834490
-834539
-834836
-834896
-835051
-835095
-835277
-835579
-835802
-835878
-836001
-836195
-836458
-836631
-836705
-836668
-836867
-837063
-837142
-837115
-837284
-837406
-837513
-837598
-837575
-837591
-837519
-837694
-837669
-837611
-837720
-837929
-838115
-838271
-838206
-838361
-838391
-838679
-838950
-839058
-839180
-839458
-839703
-839957
-840201
-840470
-840716
-840967
-841394
-841722
-842089
-842439
-842845
-843247
-843608
-844060
-844463
-844847
-845412
-845729
-846833
-846732
-847136
-847464
-847839
-848181
-848541
-849073
-849366
-849698
-849948
-850241
-850747
-851023
-851341
-851619
-851872
-852127
-852401
-852524
-852852
-853156
-853433
-853735
-853801
-854050
-854308
-854539
-854668
-854802
-855113
-855192
-855586
-855740
-855897
-856129
-856394
-856626
-857007
-856965
-857261
-857651
-858194
-858598
-858892
-859157
-859504
-860055
-860363
-860794
-861123
-861502
-861843
-862001
-861861
-861687
-861614
-861640
-861857
-862204
-862350
-862673
-862930
-863120
-863128
-863261
-863459
-863780
-864068
-864205
-864262
-864456
-864617
-864865
-865008
-865060
-865138
-865393
-865525
-865600
-865670
-865653
-865674
-865467
-865155
-864975
-864638
-863967
-863372
-862776
-861889
-861034
-860184
-859138
-858007
-856772
-855622
-854441
-852984
-851555
-850063
-848529
-847047
-845476
-843769
-842184
-840452
-839003
-837269
-835523
-833912
-832428
-830861
-829325
-827650
-826248
-824822
-823703
-822673
-821879
-821532
-821152
-820660
-819793
-818918
-818076
-817528
-817057
-816424
-815795
-815386
-814909
-814422
-814062
-813610
-813259
-813019
-812883
-812569
-812824
-812189
-811898
-811687
-811480
-811265
-811170
-811003
-811070
-810949
-810750
-810609
-810586
-810665
-810203
-810298
-810665
-810224
-810375
-810239
-810277
-810403
-810445
-810400
-810430
-810214
-810302
-810500
-810400
-810436
-810441
-810511
-810674
-810657
-810610
-810659
-810764
-810865
-810870
-810748
-810777
-810857
-810904
-811043
-811264
-811374
-811595
-811923
-812115
-812476
-812847
-813285
-813887
-814441
-814872
-815532
-816150
-816822
-817441
-817986
-818651
-819345
-820105
-820633
-820597
-820164
-819369
-819082
-819021
-819308
-819617
-819896
-820137
-820062
-819976
-820097
-820386
-820594
-820804
-820869
-820951
-821000
-821156
-821205
-821208
-821347
-821492
-821745
-821864
-821549
-821725
-821834
-822069
-822337
-822363
-822420
-822566
-822621
-822716
-822627
-822564
-822687
-822685
-822781
-822860
-822972
-823037
-823041
-823150
-823016
-822950
-823083
-823271
-823283
-823289
-823268
-823210
-823134
-823168
-823143
-823127
-823333
-823499
-823519
-823957
-823710
-823634
-823736
-823705
-823606
-823707
-823543
-823783
-823897
-824020
-824195
-824314
-824374
-824547
-824481
-824563
-824807
-824991
-825034
-825133
-825195
-825383
-825681
-825718
-825754
-825925
-826120
-826376
-826634
-826685
-826823
-827007
-827168
-827300
-827485
-828202
-828072
-828191
-828378
-828540
-828693
-828900
-829071
-829199
-829386
-829445
-829655
-830005
-830190
-830183
-830359
-830490
-830809
-830854
-830833
-830980
-831099
-831273
-831411
-831390
-831306
-831444
-831570
-831588
-831551
-831756
-831873
-831955
-832027
-832098
-832169
-832404
-832708
-832784
-832882
-833427
-833501
-833763
-834027
-834113
-834426
-834692
-835058
-835254
-835494
-835719
-835954
-836258
-836536
-836906
-837183
-837410
-837759
-837967
-838222
-838477
-838826
-839231
-839499
-839717
-840023
-840426
-840695
-841019
-841303
-841567
-841938
-842096
-843666
-842803
-842437
-842385
-842440
-842567
-842796
-842794
-843066
-843436
-843482
-843565
-843848
-843986
-844185
-844359
-844431
-844580
-844633
-844834
-845983
-845302
-845269
-845349
-845506
-845697
-845586
-845602
-845668
-845813
-845779
-845668
-845563
-845594
-845518
-845295
-845123
-844981
-844937
-844889
-844719
-844563
-844295
-844113
-843979
-843816
-843380
-843168
-842872
-842687
-842387
-841736
-841195
-840776
-840252
-839529
-838896
-838102
-837490
-836688
-835864
-834847
-833931
-833132
-832276
-831278
-830102
-828931
-828011
-826811
-825657
-824982
-823457
-822328
-821172
-820228
-819063
-817939
-817032
-816196
-815247
-814149
-813098
-812289
-811566
-810785
-809976
-809054
-808242
-807604
-806704
-805795
-805019
-804276
-801857
-799567
-798830
-797983
-797360
-796637
-796046
-795569
-795379
-795274
-795412
-795302
-795419
-795406
-795291
-795238
-795192
-795022
-794843
-794874
-795007
-795011
-795051
-794980
-794976
-794989
-795062
-794980
-794864
-794935
-794995
-795221
-795284
-796168
-795565
-795474
-795379
-795400
-795295
-795307
-795313
-795273
-795093
-795297
-795549
-795707
-795885
-795817
-795712
-795673
-795818
-795880
-795995
-795915
-795958
-795893
-795959
-795972
-796031
-796128
-796253
-796426
-796560
-796606
-796745
-796936
-797207
-797374
-797461
-797754
-798208
-798806
-799184
-799566
-799907
-800453
-801077
-801434
-801864
-802587
-803087
-803678
-804248
-804709
-805799
-805904
-806186
-806605
-806951
-807326
-807637
-807741
-807716
-807304
-807192
-807228
-807401
-807436
-807506
-807606
-807701
-807745
-807800
-807799
-807966
-808141
-808362
-808341
-808432
-808343
-808514
-808484
-808594
-808496
-808514
-808493
-808473
-808491
-808489
-808452
-808526
-808702
-808661
-808712
-808662
-808890
-808877
-808886
-808971
-809059
-809189
-809235
-809232
-809155
-809216
-809191
-809331
-809313
-809401
-809351
-809472
-809604
-809494
-809598
-809677
-809825
-810040
-809940
-809951
-809965
-810128
-810275
-810313
-810344
-810419
-810629
-810862
-810848
-810887
-811069
-811206
-811397
-811732
-812115
-811934
-812048
-812135
-812295
-812369
-812365
-812743
-812906
-813092
-813188
-813087
-813498
-813973
-813769
-814017
-814150
-814508
-814683
-814854
-815167
-815339
-815651
-815912
-816054
-816432
-816635
-816782
-817085
-817184
-817530
-817744
-817988
-818285
-818328
-818493
-818599
-818987
-819280
-819530
-819606
-819753
-820078
-820389
-820492
-820509
-820596
-820896
-820950
-821075
-821657
-821291
-821247
-821227
-821207
-821086
-821074
-821019
-821011
-820752
-820501
-820243
-820195
-820023
-819680
-819445
-819091
-818990
-818775
-818634
-818338
-818085
-818063
-818219
-818320
-818903
-819460
-820146
-820603
-820838
-821040
-821129
-821339
-821563
-821938
-822273
-822512
-822728
-822972
-823155
-823361
-823585
-824042
-824318
-824366
-824614
-824795
-825139
-825377
-825467
-825428
-825456
-825794
-826235
-826298
-826356
-826493
-826777
-826879
-827122
-827253
-827333
-827521
-827673
-827967
-827963
-828215
-828482
-828682
-828838
-828962
-828985
-829363
-829447
-829651
-829793
-829835
-830069
-830347
-830563
-830511
-830627
-830870
-831122
-831216
-831244
-831410
-831449
-831514
-831599
-831494
-831462
-831463
-831453
-831407
-831226
-831139
-831141
-830930
-830664
-830463
-830063
-829843
-829503
-829000
-828498
-827675
-826733
-824988
-822922
-821154
-819884
-818950
-817730
-816597
-815314
-814049
-812922
-811543
-810334
-809152
-808142
-807181
-806283
-805135
-804178
-802859
-802157
-801311
-800769
-800043
-799242
-798447
-797816
-797237
-796546
-796042
-795592
-795250
-794752
-794358
-794094
-793701
-793433
-793178
-792931
-792541
-792354
-792272
-792096
-791909
-791805
-791772
-791885
-791789
-791739
-791625
-791586
-791534
-791583
-791651
-791776
-791908
-791827
-791826
-791832
-791848
-792001
-792084
-792156
-792069
-792179
-792261
-792318
-792214
-792072
-792124
-792181
-792238
-792095
-792001
-791952
-791897
-791747
-791915
-791622
-791451
-791373
-791254
-791125
-790911
-790857
-790798
-790601
-790537
-790269
-790303
-790330
-790250
-790223
-790179
-790132
-790145
-790182
-789993
-789922
-789972
-789854
-789836
-789828
-789897
-789955
-790068
-790358
-790484
-790581
-790907
-791112
-791322
-791525
-791724
-791985
-792084
-792277
-792411
-792521
-792656
-792930
-793118
-793227
-793321
-793372
-793481
-793551
-793534
-793565
-793815
-793910
-794029
-794056
-793979
-793957
-794067
-794141
-794052
-794079
-794126
-794133
-794154
-794188
-794261
-794149
-794171
-794189
-794035
-794010
-794045
-794128
-794235
-794045
-794064
-794117
-794178
-794211
-794113
-794194
-794219
-794301
-794337
-794387
-794273
-794339
-794453
-794534
-794493
-794500
-794517
-794689
-794885
-794860
-794973
-795168
-795252
-795470
-795540
-795590
-795760
-795907
-796119
-796150
-796267
-796427
-796608
-796726
-796898
-797066
-797212
-797453
-797621
-797614
-797817
-797872
-798113
-798248
-798214
-798331
-798422
-798429
-798607
-798590
-798672
-798776
-798903
-799224
-799368
-799665
-799891
-800043
-800430
-800640
-800910
-801012
-801315
-801601
-801644
-801909
-802018
-802355
-802545
-802742
-803012
-803146
-803243
-803602
-803665
-803839
-804085
-804449
-804539
-804655
-804953
-805067
-805303
-805509
-805732
-806085
-806503
-807003
-807431
-807826
-808534
-809142
-809918
-810608
-811226
-811947
-812723
-813522
-814248
-814915
-815631
-816316
-816878
-817321
-817250
-816796
-816357
-816199
-816416
-816659
-817084
-817200
-817422
-817509
-817330
-817413
-817466
-817852
-818125
-818221
-818322
-818346
-818403
-818467
-818617
-818534
-818520
-818806
-818911
-819133
-819041
-819305
-819820
-820084
-820393
-820508
-820700
-820765
-821083
-821242
-821457
-821634
-821824
-822062
-822217
-822282
-822489
-822654
-822771
-822881
-822970
-822955
-822959
-822875
-822741
-822578
-822363
-822003
-821966
-821683
-821424
-821161
-820884
-820724
-820664
-820252
-820230
-819956
-819859
-819821
-819693
-819673
-819771
-820135
-820528
-820935
-821350
-821827
-822110
-822399
-822577
-822787
-822932
-823319
-823662
-823918
-824225
-824369
-824639
-824891
-824966
-825285
-825503
-825764
-825857
-825923
-826115
-826162
-826262
-826373
-826559
-826063
-825967
-825544
-825290
-824770
-824251
-823670
-823123
-822306
-821471
-820573
-819725
-819000
-818030
-816966
-816020
-814828
-813848
-812828
-811631
-810411
-809156
-807984
-806861
-805555
-804366
-802944
-801974
-800836
-799636
-798492
-797515
-796678
-795666
-794764
-793836
-793049
-792248
-791537
-790660
-789954
-789373
-789015
-788684
-788182
-787849
-787500
-787338
-787258
-787068
-786910
-786998
-787005
-787131
-787159
-787241
-787395
-787533
-787741
-787982
-788094
-788381
-788744
-788884
-788924
-788890
-788750
-788407
-788017
-787923
-787970
-787971
-788208
-788264
-788262
-788289
-788369
-788332
-788333
-788380
-788507
-788744
-788759
-788905
-789049
-789068
-789083
-789202
-789331
-789613
-789813
-789754
-789841
-789858
-789951
-790071
-790030
-789993
-790206
-790232
-790317
-790312
-790438
-790529
-790763
-790956
-790832
-791127
-791262
-791623
-791768
-791990
-792261
-792456
-792817
-793124
-793317
-793628
-793816
-794245
-794506
-794661
-794878
-794956
-795032
-795025
-795012
-795071
-795137
-795428
-795667
-795757
-795838
-795816
-796005
-796170
-796233
-796259
-796325
-796458
-796649
-796593
-796711
-796807
-796921
-796975
-796956
-796975
-796910
-797050
-797091
-797155
-797208
-797204
-797173
-797191
-797109
-797050
-797028
-797068
-797077
-796929
-796809
-796699
-796793
-796787
-796666
-796562
-796449
-796429
-796434
-796349
-796233
-796145
-795966
-795808
-795848
-795619
-795678
-795664
-795654
-795549
-795478
-795466
-795562
-795642
-795631
-795570
-795835
-795944
-796019
-796191
-796301
-796411
-796706
-796759
-796895
-797184
-797232
-797498
-797685
-797786
-798015
-798154
-798424
-798634
-798690
-798840
-798979
-799128
-799250
-799421
-799435
-799623
-799756
-799955
-800020
-800153
-800333
-800663
-800847
-801022
-801287
-801382
-801716
-801947
-802017
-802308
-802596
-802934
-803175
-803341
-803639
-803800
-804095
-804271
-804235
-804314
-804429
-804558
-804707
-804729
-804937
-804960
-805080
-805208
-805053
-805361
-805500
-805743
-805897
-806027
-806260
-806505
-806780
-807087
-807278
-807624
-808007
-808388
-808668
-808912
-809294
-809705
-809957
-810203
-810386
-810374
-810455
-810683
-810707
-810785
-811007
-811090
-811367
-811380
-811716
-811471
-811403
-811391
-811176
-811005
-810899
-810546
-810259
-810101
-809713
-809420
-809225
-809040
-808865
-808680
-808480
-808350
-808255
-808426
-808408
-808545
-808739
-809197
-809558
-809886
-810184
-810370
-810600
-810796
-810825
-810862
-811087
-811226
-811343
-811412
-811418
-811444
-811661
-811697
-811741
-811742
-811882
-811934
-811943
-811915
-812134
-812128
-812289
-812409
-812163
-812274
-812289
-812424
-812359
-812455
-812440
-812619
-812608
-812502
-812585
-812631
-812582
-812612
-812707
-812683
-812725
-812733
-812885
-812912
-812914
-812906
-812898
-813086
-813143
-813318
-813400
-813399
-813490
-813703
-813684
-813840
-813901
-814160
-814330
-814314
-814448
-814598
-814783
-814893
-814966
-815141
-815374
-815506
-815681
-815685
-815887
-816058
-816335
-816423
-816549
-816710
-816892
-816992
-817096
-817125
-817265
-817299
-817473
-817521
-817359
-817860
-817369
-817180
-816980
-816540
-816266
-815970
-815506
-815078
-814447
-813835
-813239
-812742
-811929
-811074
-810284
-809345
-808591
-807679
-806638
-805525
-804621
-803547
-802521
-801367
-800257
-799117
-798013
-797069
-795988
-795103
-794135
-793298
-792211
-791243
-790353
-789404
-788671
-787821
-786999
-786300
-785520
-784806
-784229
-783544
-782776
-783063
-782056
-781381
-780980
-780615
-780391
-780244
-779877
-779542
-779365
-778922
-778772
-778715
-778409
-778440
-778336
-778361
-778281
-778196
-778273
-778332
-778396
-778606
-778551
-779006
-779400
-779678
-780107
-780467
-780963
-781499
-782057
-782551
-783047
-783558
-784148
-784818
-785337
-785902
-786528
-786928
-787462
-788112
-788615
-788946
-789523
-790086
-790363
-790614
-790884
-791195
-791381
-791629
-791667
-791738
-791891
-792071
-792206
-792351
-792303
-792429
-792354
-792366
-792314
-792234
-792247
-792133
-792009
-791860
-791660
-791416
-791274
-790964
-790562
-790241
-790053
-789817
-789589
-789279
-789481
-790147
-791370
-792135
-792309
-792062
-791822
-791776
-791904
-792056
-792361
-792327
-792380
-792300
-792308
-792324
-792339
-792579
-792699
-792711
-792622
-792472
-792556
-792424
-792537
-792393
-792248
-792233
-792153
-792154
-792191
-792054
-792002
-791867
-791759
-791646
-791672
-791632
-791525
-791530
-791529
-791434
-791334
-791518
-791447
-791519
-791396
-791404
-791457
-791629
-791825
-792084
-792337
-792737
-793073
-793444
-793886
-794418
-795098
-795683
-796275
-796815
-797266
-798010
-798675
-799421
-799862
-800455
-801037
-801310
-801153
-800501
-800195
-799969
-800186
-800445
-800723
-800843
-800872
-800908
-800898
-801007
-801214
-801490
-801794
-801878
-801916
-802060
-802217
-802404
-802612
-802669
-802945
-803109
-803380
-803675
-803839
-804362
-804326
-804508
-804682
-804651
-804899
-805064
-805389
-805703
-805883
-805958
-806260
-806459
-806564
-806666
-806890
-807322
-807600
-807708
-807944
-808126
-808190
-808383
-808698
-808729
-808987
-809264
-809609
-809676
-809781
-810051
-810227
-810426
-810612
-810937
-811141
-811376
-811541
-811640
-811756
-812033
-812172
-812504
-812542
-812764
-812845
-813124
-813242
-813457
-813544
-813595
-813822
-814029
-814254
-814292
-814302
-814459
-814616
-814867
-815025
-815121
-815373
-815439
-815658
-815605
-815811
-816042
-816291
-816365
-816454
-816621
-816895
-817041
-817107
-817126
-817344
-817481
-817620
-817654
-817569
-817630
-817578
-817637
-817546
-817392
-817327
-817336
-817234
-817162
-816996
-816762
-816730
-816544
-816424
-816301
-816073
-815963
-815849
-815761
-815633
-815545
-815421
-815507
-815394
-815302
-815424
-815457
-815670
-815704
-815719
-815661
-815918
-816096
-816254
-816345
-816606
-816783
-816988
-817153
-817310
-817451
-817631
-817891
-818019
-818273
-818389
-818624
-818958
-819249
-819396
-819777
-820053
-820547
-820827
-821136
-821324
-821823
-822267
-822790
-823044
-823495
-823837
-824408
-824688
-825171
-825543
-826161
-826637
-826952
-827365
-827795
-828182
-828469
-828788
-829495
-829311
-829345
-829512
-829519
-829417
-829335
-829248
-829103
-828619
-828259
-827617
-827288
-826852
-826371
-825734
-824995
-824368
-823643
-822979
-822112
-821345
-820626
-819777
-818429
-817510
-816516
-815516
-814503
-813396
-812299
-811187
-810242
-809137
-807933
-806770
-805725
-804729
-803850
-802701
-801752
-800825
-800021
-799128
-798198
-797366
-796552
-795892
-795185
-794495
-793715
-793178
-792681
-792164
-791674
-791183
-790635
-790218
-789896
-789534
-789304
-789058
-788784
-788649
-788390
-788044
-788076
-787977
-787722
-787607
-787606
-787592
-787720
-787770
-787679
-787730
-787810
-787975
-787874
-787972
-788122
-788197
-788344
-788493
-788307
-788630
-788962
-789029
-789142
-789187
-789900
-789704
-789790
-789936
-789988
-790038
-790184
-790431
-790509
-790659
-790953
-791007
-791280
-791917
-791574
-791604
-791785
-792061
-792183
-792307
-792452
-792714
-792929
-793079
-793364
-793639
-794000
-794205
-794200
-794403
-794854
-794934
-795033
-795193
-795417
-795661
-795878
-796026
-796207
-796248
-796403
-796709
-796847
-796875
-796945
-797017
-797123
-797309
-797374
-797326
-797425
-797631
-797583
-797603
-797630
-797632
-797674
-797700
-797661
-797591
-797480
-797591
-797448
-797780
-797521
-797398
-797209
-797315
-797166
-797102
-796914
-796941
-796876
-796823
-796789
-796673
-796680
-796710
-796594
-796461
-796397
-796413
-796445
-796372
-796350
-796282
-796264
-796289
-796162
-796075
-796117
-796172
-796216
-796168
-796205
-796298
-796296
-796315
-796304
-796311
-796387
-796458
-796474
-796464
-796575
-796633
-796682
-796646
-796690
-796805
-796897
-796944
-797013
-797182
-797274
-797364
-797559
-798325
-797963
-797890
-798149
-798388
-798478
-798550
-798753
-798847
-799180
-799156
-799313
-799390
-799759
-799941
-800585
-800456
-800512
-800724
-801004
-801194
-801411
-801625
-801880
-802113
-802239
-802508
-802667
-802934
-803050
-803211
-803344
-803529
-803720
-803985
-804193
-804450
-804535
-804824
-805002
-805201
-805362
-805552
-805904
-806141
-806400
-806455
-806630
-806904
-807179
-807287
-807564
-807821
-808118
-808339
-808543
-808687
-808843
-809022
-809340
-809422
-809433
-809714
-809952
-810155
-810207
-810310
-810398
-810543
-810790
-810836
-810915
-811200
-811313
-811590
-811642
-811772
-811796
-811977
-812095
-812197
-812286
-812367
-812569
-812705
-812696
-812875
-812895
-813011
-813108
-813130
-813223
-813280
-813500
-813532
-813512
-813471
-813681
-813695
-813912
-813966
-813911
-813974
-814154
-814212
-814263
-814303
-814304
-814550
-814702
-814746
-814763
-814846
-814922
-815067
-815190
-815232
-815307
-815452
-815579
-815776
-815809
-815914
-816039
-816261
-816322
-816540
-816604
-816717
-816897
-816998
-817269
-817474
-817645
-817865
-817996
-818191
-819435
-819712
-819901
-820840
-820383
-820267
-820482
-820601
-820724
-820796
-820980
-821209
-821454
-821502
-821697
-821825
-822064
-822235
-822249
-822366
-822491
-822410
-822417
-822188
-821961
-821631
-821437
-821019
-820563
-819932
-819360
-818713
-817965
-817141
-816348
-815434
-814553
-813636
-812628
-811642
-810602
-809536
-808648
-807366
-806259
-805126
-804009
-802855
-801574
-800210
-799034
-797954
-796909
-795821
-794502
-793333
-792348
-791328
-790264
-789198
-788152
-787134
-786378
-785416
-784542
-783835
-783152
-782560
-781897
-781336
-780641
-780372
-779967
-779649
-779239
-778890
-778719
-778510
-778355
-778275
-778131
-778281
-778306
-778294
-778279
-778292
-778515
-778628
-778704
-778926
-779151
-779526
-779720
-780003
-780375
-780628
-780938
-781214
-781391
-781763
-782032
-782557
-782825
-783160
-783446
-783680
-783625
-783030
-782044
-781553
-781639
-781969
-782276
-782462
-782347
-782124
-782159
-782010
-782129
-782192
-782217
-782218
-782179
-782133
-782155
-782127
-782132
-782035
-782077
-782153
-782152
-782223
-782169
-782373
-782371
-782457
-782547
-782779
-782618
-782649
-782624
-782743
-782691
-782743
-782716
-782628
-782698
-782620
-782557
-782409
-782344
-782444
-782304
-782284
-782107
-782095
-781946
-781966
-781674
-781416
-781466
-781440
-781364
-781241
-781040
-780803
-780739
-780635
-780423
-780391
-780217
-780122
-780054
-779812
-779529
-779351
-779162
-779018
-778749
-778662
-778471
-778416
-778129
-777933
-777691
-777450
-777307
-777197
-776829
-776800
-776444
-776339
-776237
-776084
-775755
-775719
-775853
-775891
-775671
-775629
-775512
-775500
-775467
-775463
-775471
-776009
-775808
-775787
-775824
-775973
-776254
-776671
-777102
-777283
-777577
-777753
-778154
-778010
-778324
-778581
-778800
-779131
-779489
-779711
-779861
-780225
-780397
-780660
-780784
-781091
-781270
-781795
-782023
-782224
-782483
-782691
-782939
-783141
-783356
-783697
-783920
-784337
-784547
-784769
-784963
-785121
-785395
-785671
-785825
-786155
-786456
-786778
-787090
-787300
-787637
-787851
-788181
-788618
-788879
-789083
-789519
-789855
-790116
-790369
-790603
-790938
-791438
-792027
-792155
-792410
-792726
-793109
-793431
-793618
-794078
-794491
-794808
-795215
-795500
-795838
-796204
-796626
-796996
-797241
-797450
-797648
-798010
-798254
-798378
-798727
-798912
-799287
-799510
-799799
-799952
-800304
-800519
-800821
-800959
-801195
-801430
-801548
-801699
-801843
-801946
-802271
-802421
-802486
-802564
-802689
-802905
-803141
-803260
-803385
-803377
-803495
-803718
-803744
-803831
-803952
-804106
-804201
-804253
-804514
-804588
-804830
-805114
-805021
-805224
-805430
-805756
-805991
-806112
-806152
-806431
-806631
-806950
-807029
-807022
-807210
-807487
-807747
-807872
-808019
-808145
-808484
-808564
-808630
-808779
-808984
-809118
-809223
-809161
-809342
-809308
-809501
-809550
-809524
-809744
-809764
-810008
-810020
-810223
-810270
-810326
-810444
-810616
-810603
-810739
-810725
-811021
-811058
-811031
-811169
-811330
-811539
-811651
-811737
-811915
-811989
-812193
-812440
-812564
-812729
-812885
-813081
-813260
-813392
-813548
-813768
-814147
-814341
-814379
-814647
-814773
-815019
-815180
-815316
-815416
-815648
-815915
-816159
-816179
-816331
-816518
-816696
-816714
-816809
-816983
-817051
-817061
-817005
-816808
-816654
-816369
-815998
-815668
-815166
-814684
-814231
-813688
-812784
-812143
-811328
-810584
-809742
-808783
-807795
-806704
-805611
-804590
-803363
-802105
-800974
-799728
-798501
-797211
-795967
-794573
-793410
-792322
-791295
-790159
-789104
-788270
-787506
-786568
-785634
-784554
-783820
-782878
-782112
-781169
-780459
-779639
-779003
-778422
-777677
-776996
-776408
-775959
-775443
-774918
-774587
-774238
-773820
-773594
-773181
-772909
-772692
-772409
-772284
-772006
-771705
-771606
-771576
-771486
-771236
-771131
-770949
-770994
-770945
-770852
-770832
-770756
-770682
-770587
-770573
-770622
-770704
-770720
-770703
-770520
-770476
-770373
-770407
-770425
-770386
-770257
-770262
-770371
-770377
-770431
-770400
-770382
-770424
-770252
-770226
-770338
-770352
-770342
-770171
-770208
-770143
-770339
-770466
-770414
-770466
-770480
-770467
-770612
-770535
-770611
-770730
-770794
-770852
-770825
-770774
-770967
-771110
-771180
-771216
-771322
-771351
-771638
-771716
-771762
-771950
-771992
-772112
-772159
-772122
-772266
-772381
-772712
-772928
-773073
-773333
-773689
-774211
-774705
-775162
-775654
-776331
-777140
-777788
-778433
-779274
-780136
-781134
-782004
-782643
-782749
-782121
-781197
-780776
-780723
-780944
-781067
-781099
-780856
-780575
-780494
-780368
-780332
-780445
-780276
-780177
-780179
-780123
-780114
-779936
-779826
-779759
-779697
-779638
-779681
-779634
-779684
-779710
-779668
-779573
-779707
-779644
-779680
-779623
-779632
-780091
-779775
-779745
-779725
-779888
-779715
-779613
-779491
-779388
-778928
-778584
-778061
-777363
-776973
-776394
-775722
-775163
-774666
-774341
-773821
-773416
-773118
-772892
-772685
-772630
-772817
-773358
-773833
-774310
-774415
-774308
-774232
-774112
-774238
-774445
-774519
-774676
-774848
-774953
-774967
-774936
-775054
-775275
-775340
-775241
-775288
-775453
-775528
-775604
-775513
-775536
-775426
-775589
-775731
-775715
-775700
-775716
-775850
-776023
-776238
-776663
-777091
-777746
-778468
-779331
-780304
-781351
-782452
-783374
-784319
-785005
-785049
-784576
-783859
-783331
-783431
-783691
-784022
-784374
-784476
-784690
-784886
-785098
-785873
-785856
-785921
-786276
-786644
-786905
-787107
-787294
-787673
-787873
-788268
-788490
-788616
-788985
-789300
-789761
-790171
-790506
-790819
-791318
-791687
-792004
-792214
-792533
-793000
-793460
-793642
-793955
-794236
-795277
-795407
-795603
-795899
-796122
-796546
-797140
-797511
-797876
-798328
-798678
-799115
-799461
-799629
-799938
-800246
-800436
-800432
-800398
-800297
-800027
-799851
-799469
-799148
-798798
-798510
-798525
-798616
-799316
-800392
-801326
-801937
-802086
-802026
-802301
-802672
-803141
-803495
-803637
-803884
-804231
-804604
-804865
-805215
-805666
-806105
-806345
-806711
-806814
-807236
-807664
-807995
-808245
-808549
-808823
-809155
-809622
-809866
-809987
-810218
-810549
-810975
-811458
-812162
-812916
-813966
-815065
-816305
-817364
-818576
-819805
-821025
-822055
-822643
-822467
-821900
-821282
-821736
-821391
-821485
-821943
-822169
-822483
-822679
-822867
-823188
-823415
-823714
-823896
-824165
-824385
-824765
-824859
-824906
-825159
-825473
-825572
-825702
-825722
-825848
-825888
-825867
-825782
-825676
-825352
-825201
-825078
-824773
-824221
-823658
-823217
-822563
-821835
-821061
-820342
-819494
-818653
-817610
-816521
-815475
-814483
-813491
-812296
-810927
-809709
-808718
-807596
-806318
-805052
-803980
-802924
-801862
-800716
-799471
-798390
-797352
-796347
-795423
-794611
-793707
-792888
-792289
-791360
-790599
-789808
-789144
-788623
-787875
-787045
-786414
-785713
-785144
-784482
-783763
-783240
-782736
-782359
-781862
-781379
-781092
-780883
-780652
-780419
-780205
-780146
-780197
-780179
-780208
-780159
-780245
-780431
-780631
-780862
-780918
-781127
-781428
-781781
-781964
-782220
-782487
-782752
-783093
-783012
-782828
-782533
-782456
-782410
-782419
-782333
-782395
-782464
-782584
-782603
-782720
-782696
-782691
-782713
-782639
-782464
-782427
-782445
-782501
-782442
-782363
-782292
-782352
-782304
-782345
-782232
-782218
-782247
-782238
-782131
-782082
-782016
-782216
-782313
-782405
-782503
-782387
-782538
-782235
-782373
-782510
-782664
-782735
-782850
-782983
-782855
-782936
-783023
-783159
-783276
-783164
-783207
-783452
-783529
-783621
-783661
-783640
-783741
-783856
-783872
-783835
-783773
-783835
-784012
-784155
-784070
-784124
-784012
-784121
-784062
-783951
-784094
-784026
-784198
-784077
-783913
-783793
-783939
-783999
-783930
-783726
-783660
-783694
-784145
-783842
-783634
-783597
-783653
-783586
-783363
-783278
-783215
-783230
-783277
-783268
-783249
-783230
-783229
-782941
-783058
-782967
-782862
-783143
-783227
-783296
-783284
-783324
-783380
-783414
-783384
-783490
-783578
-783786
-783871
-783866
-783977
-784015
-784281
-784411
-784356
-784502
-784486
-784677
-785033
-785193
-785391
-785506
-785698
-785939
-786117
-786168
-786356
-786544
-786983
-787083
-787368
-787393
-787676
-787941
-788137
-788350
-788563
-788862
-789043
-789297
-789415
-789656
-790073
-790339
-790488
-790734
-790864
-791151
-791520
-791569
-791730
-791962
-792145
-792280
-792387
-792533
-792717
-792821
-793036
-793207
-793394
-793463
-793758
-793949
-794067
-794211
-794448
-794618
-794881
-794926
-795120
-795223
-795304
-795447
-795389
-795438
-795570
-795668
-795750
-795602
-795625
-795750
-795766
-795818
-795775
-795807
-795922
-796119
-796179
-796327
-796321
-796346
-796580
-796948
-797037
-797304
-797501
-797699
-797994
-798338
-798552
-798727
-799285
-799469
-799789
-799995
-800308
-800726
-801241
-801665
-802016
-802426
-802828
-803360
-803815
-804204
-804594
-805131
-805557
-805790
-806155
-806274
-806586
-806698
-806633
-806692
-806608
-806621
-806576
-806683
-806591
-806569
-806520
-806400
-806286
-806159
-806081
-806136
-806207
-806204
-806190
-806260
-806426
-806493
-806703
-807135
-807685
-808230
-808595
-808660
-808702
-808909
-809100
-809319
-809545
-809798
-809988
-810288
-810497
-810634
-810814
-810847
-811044
-811240
-811537
-811620
-811689
-811940
-812123
-812146
-812405
-812550
-812703
-812808
-812916
-813092
-813068
-813164
-813310
-813404
-813548
-813619
-813920
-814115
-814574
-814679
-814691
-815396
-814999
-815041
-815139
-815302
-815323
-815455
-815624
-815805
-815932
-816233
-816358
-816564
-816637
-816737
-816807
-816996
-817133
-817379
-817466
-817666
-817704
-817929
-818085
-818289
-818321
-818481
-818632
-818858
-819007
-819277
-819481
-819738
-819957
-820218
-820365
-820593
-821003
-821250
-821482
-821753
-821958
-822186
-822283
-822482
-822626
-822665
-822918
-822846
-822796
-822509
-822251
-821943
-821538
-820939
-820309
-819738
-819120
-818481
-817442
-816529
-815548
-814719
-813757
-812608
-811494
-810532
-809638
-808619
-807416
-806227
-805134
-804082
-802995
-801771
-800683
-799572
-798520
-797526
-796320
-795256
-794297
-793278
-792363
-791303
-790458
-789552
-788706
-787999
-787190
-786386
-785684
-785089
-784517
-783959
-783411
-782918
-782558
-782272
-781792
-781589
-781190
-780989
-780799
-780475
-780249
-780075
-780015
-779950
-779778
-779608
-779460
-779244
-779069
-778824
-778625
-778394
-778486
-778217
-777951
-777569
-777339
-777088
-776836
-776436
-776094
-775871
-775679
-775392
-775167
-774843
-774548
-774273
-774101
-773673
-773599
-773423
-773411
-773294
-773076
-772963
-772909
-772900
-772846
-772665
-772558
-772665
-772551
-772658
-772541
-772352
-772252
-772127
-772050
-771773
-771743
-771878
-771943
-772038
-772015
-772005
-771919
-772028
-772093
-772066
-771946
-771916
-771921
-771935
-771820
-771738
-771632
-771541
-771576
-771269
-771217
-770959
-770813
-770496
-770190
-769836
-769528
-769307
-769116
-768751
-768440
-768096
-768066
-767750
-767423
-767126
-766847
-766535
-766195
-765726
-765375
-765117
-764896
-764560
-764150
-763660
-763274
-763188
-762876
-762434
-762176
-761800
-761614
-761342
-761045
-760791
-760648
-760490
-760359
-759887
-759705
-759505
-759509
-759368
-759150
-758966
-758892
-758817
-758630
-758389
-758451
-758364
-758320
-758357
-758243
-758153
-758618
-758294
-758411
-758434
-758522
-758554
-758780
-758800
-758948
-759003
-759045
-759173
-759405
-759412
-759569
-759516
-759714
-759882
-759936
-760163
-760359
-760813
-761051
-761468
-761819
-762446
-762983
-763610
-764237
-765006
-765719
-766545
-767274
-767908
-768524
-769304
-770090
-770749
-771126
-771291
-771296
-770576
-770410
-770560
-771024
-771406
-771896
-772061
-772133
-772391
-772564
-772774
-772904
-772750
-772595
-772369
-772154
-771987
-771431
-771068
-770594
-769997
-769447
-768996
-768337
-768039
-768490
-768708
-769367
-770223
-770742
-771049
-771021
-770756
-770596
-770567
-770580
-770648
-770514
-770354
-770311
-770297
-770305
-770107
-770056
-769912
-769920
-769855
-769715
-769652
-769561
-769530
-769468
-769277
-769322
-769301
-769435
-769493
-769496
-769559
-769544
-769604
-769573
-769297
-769141
-769185
-769258
-769388
-769257
-769241
-769280
-769322
-769425
-769271
-769223
-769173
-769253
-769360
-769277
-769465
-769491
-769681
-769726
-769708
-769659
-769766
-769950
-770102
-770270
-770344
-770386
-770632
-770850
-770883
-771281
-771617
-772054
-772511
-773017
-773628
-774437
-775195
-776098
-776859
-777750
-778580
-779631
-780408
-781560
-781913
-782115
-781916
-781448
-781019
-781148
-781639
-782168
-782395
-782616
-782940
-783050
-783157
-783635
-783977
-784277
-784764
-785206
-785642
-785842
-786114
-786407
-786566
-787119
-787459
-787805
-788243
-788679
-789053
-789325
-789597
-789976
-790415
-790790
-791006
-791522
-791898
-792351
-792723
-792923
-793083
-793387
-793819
-794072
-794415
-794845
-795243
-795645
-795927
-796213
-796207
-796718
-797114
-797452
-797874
-798273
-798794
-799315
-799692
-800095
-800323
-800765
-801582
-802010
-802643
-803219
-803866
-804424
-804846
-805285
-805889
-806514
-806948
-807356
-807558
-807765
-807975
-808102
-808053
-807937
-807708
-807553
-807297
-806814
-806376
-805780
-805461
-804268
-803194
-802418
-801375
-800501
-799539
-798519
-797515
-796585
-795787
-795037
-794282
-793492
-792863
-792269
-791657
-791112
-790313
-789869
-789363
-789049
-788601
-788146
-787830
-787619
-787217
-786835
-786359
-785947
-785913
-785685
-785353
-784850
-784124
-783627
-783277
-783095
-782706
-782385
-782228
-781967
-781628
-781402
-781230
-780910
-780679
-780415
-780227
-779991
-779880
-779723
-779597
-779564
-779489
-779369
-779497
-779695
-779642
-779558
-779710
-779889
-780075
-780204
-780469
-780624
-780884
-780968
-781064
-781184
-781462
-781731
-782102
-782170
-782149
-782559
-782748
-783020
-783145
-783322
-783332
-783419
-783693
-783876
-784083
-784074
-784265
-784487
-784777
-784831
-784909
-785106
-785400
-785644
-785802
-785947
-786139
-786513
-786696
-786990
-786962
-787294
-787565
-787883
-788204
-788458
-788662
-789043
-789405
-789759
-789903
-790173
-790648
-790829
-791192
-791339
-791669
-791988
-792306
-792607
-792748
-792862
-793091
-793322
-793397
-793472
-793724
-793950
-794077
-794260
-794334
-794508
-794594
-794721
-794811
-794772
-794917
-795124
-795233
-795353
-795278
-795432
-795499
-795630
-795649
-795667
-795675
-795838
-795955
-796031
-796073
-795967
-796023
-796150
-795982
-795806
-795868
-795900
-795873
-795660
-795423
-795448
-795471
-795541
-795551
-795507
-795629
-795722
-795925
-795756
-795693
-795736
-795669
-795678
-795534
-795406
-795494
-795675
-795908
-795950
-795877
-796035
-796179
-796300
-796467
-796636
-796922
-797170
-797446
-797416
-797494
-797452
-797506
-797865
-797837
-797916
-797950
-798030
-798129
-798193
-798163
-798347
-798385
-798591
-798598
-798661
-798756
-799022
-799166
-799234
-799398
-799644
-799921
-800105
-800221
-800398
-800695
-801022
-801346
-801996
-801872
-802088
-802246
-802525
-802735
-802933
-803291
-803391
-803703
-803731
-803736
-803786
-804116
-804385
-804471
-804585
-804761
-805063
-805373
-805489
-805735
-805789
-806078
-806420
-806641
-806788
-806876
-807084
-807262
-807470
-807578
-807738
-807965
-808183
-808200
-808306
-808320
-808532
-808583
-808562
-808418
-808451
-808448
-808343
-808213
-808105
-808109
-808343
-808666
-809071
-809403
-810268
-810298
-810326
-810402
-810603
-810670
-810830
-811022
-811147
-811443
-811478
-811701
-811930
-812014
-811974
-812196
-812508
-812843
-812989
-813143
-813372
-813602
-813894
-814004
-814186
-814391
-814505
-814661
-814749
-814788
-814956
-815114
-815389
-815530
-815663
-815787
-816050
-816236
-816451
-816566
-816654
-816963
-817199
-817487
-817723
-817947
-818275
-818635
-818918
-819232
-819604
-819913
-820288
-820473
-820651
-820930
-820834
-821211
-821354
-821469
-821692
-821799
-821988
-822009
-822054
-822037
-822219
-822244
-822313
-822196
-822105
-822079
-821996
-821723
-821442
-821094
-820959
-820536
-820135
-819637
-819406
-819420
-819419
-819110
-818562
-817943
-817345
-816795
-815992
-815206
-814316
-813639
-812878
-811968
-810966
-810212
-809209
-808253
-807337
-806345
-805316
-804250
-803313
-802230
-801214
-800142
-799247
-798273
-797400
-796489
-795656
-795078
-794543
-793940
-793463
-793101
-792908
-792800
-792555
-792345
-792061
-791957
-791863
-791688
-791242
-790761
-790327
-790131
-789880
-789570
-789442
-789322
-789217
-789152
-788892
-788791
-788793
-788913
-788854
-788819
-788570
-788729
-788790
-788788
-788868
-788885
-789159
-789171
-789162
-789183
-789475
-789735
-789960
-790247
-790266
-790472
-791359
-791232
-791445
-791510
-791764
-792013
-792268
-792377
-792563
-792858
-793267
-793414
-793691
-793809
-794096
-794334
-794640
-794891
-795064
-795332
-795667
-796082
-796443
-796703
-797068
-797545
-798077
-798204
-798802
-799399
-799953
-800463
-800970
-801397
-801801
-802306
-802848
-803095
-803316
-803639
-803989
-804288
-804554
-804826
-805049
-805340
-805581
-805876
-805970
-806246
-806538
-806837
-807234
-807553
-808103
-808342
-808922
-808857
-809270
-809570
-809791
-810034
-810249
-810447
-810548
-810822
-811059
-811305
-811513
-811603
-811914
-812280
-812562
-812632
-812791
-813043
-813233
-813443
-813579
-813694
-813910
-814145
-814177
-814353
-814286
-814450
-814600
-814660
-814715
-814808
-815085
-815225
-815272
-815300
-815251
-815782
-815299
-815113
-815003
-815041
-815302
-815216
-815344
-815407
-815315
-815453
-815470
-815531
-815505
-815437
-815565
-815550
-815554
-815792
-815411
-815294
-815231
-815100
-815027
-814772
-814745
-814912
-814995
-815486
-815789
-816142
-816287
-816283
-816276
-816596
-816880
-817106
-817128
-817237
-817464
-817673
-817939
-818069
-818169
-818246
-818542
-818722
-818841
-819018
-819250
-819520
-819785
-819933
-820016
-820148
-820467
-820633
-820813
-820964
-821245
-821403
-821583
-821724
-821996
-822126
-822511
-822754
-822909
-823015
-823200
-823598
-823877
-824126
-824367
-824651
-824763
-825198
-825410
-825595
-825674
-825969
-826217
-826375
-826604
-826669
-827044
-827230
-827502
-827676
-827867
-828266
-828692
-828891
-829273
-829678
-830170
-830679
-830956
-831489
-831885
-832231
-832808
-833115
-833514
-833743
-834030
-834063
-833993
-834029
-834208
-834501
-834665
-834792
-834908
-834988
-835207
-835524
-835668
-835949
-836057
-836310
-836455
-836495
-836463
-836625
-836852
-837224
-837298
-837539
-837566
-837884
-838077
-838089
-838285
-838562
-838856
-839057
-839274
-839390
-839418
-839760
-840021
-840163
-840325
-840475
-840775
-841075
-841173
-841303
-841438
-841710
-841827
-842070
-842256
-842485
-842668
-842940
-843116
-843162
-843256
-843359
-843547
-843752
-843803
-843905
-843921
-844078
-844099
-844146
-843990
-844021
-844022
-843912
-843649
-843511
-843337
-842981
-842519
-842059
-841391
-840927
-840420
-839499
-838720
-837918
-837199
-836296
-835809
-834615
-833708
-832809
-831876
-830808
-829756
-828726
-827767
-826631
-825323
-824109
-822844
-821942
-820861
-819567
-818444
-817260
-816206
-815184
-814007
-812939
-811880
-810952
-810038
-808996
-808228
-807387
-806640
-805890
-805176
-804465
-803707
-803439
-802497
-801967
-801400
-800985
-800591
-800167
-799807
-799345
-798940
-798721
-798647
-798317
-798144
-797916
-798003
-797832
-797677
-797629
-797546
-797468
-797390
-797223
-797115
-797030
-797185
-797156
-797087
-797097
-797125
-797251
-797387
-798009
-797697
-797688
-797885
-797904
-797984
-798044
-798206
-798356
-798471
-798484
-798652
-798751
-798957
-799041
-799072
-799236
-799365
-799594
-799655
-799682
-799800
-799824
-799988
-800090
-800186
-800121
-800306
-800410
-800536
-800644
-800791
-801012
-801273
-801477
-801687
-801888
-801993
-802371
-802604
-802639
-802829
-803142
-803444
-803824
-803866
-804195
-804380
-804732
-805030
-805236
-805438
-805812
-806061
-806305
-806525
-806647
-807476
-807482
-807604
-807409
-807776
-808050
-808219
-808565
-808695
-808849
-809052
-809247
-809515
-809504
-809632
-809695
-809913
-810014
-810108
-810278
-811044
-811086
-811280
-811412
-811456
-811514
-811476
-811560
-811814
-811720
-811862
-811892
-812028
-812062
-811977
-812068
-812095
-812166
-812196
-812142
-812252
-812234
-812380
-812653
-812582
-812698
-812697
-812869
-812954
-812887
-812813
-812981
-813074
-813320
-813375
-813550
-813775
-813856
-814088
-814070
-814099
-814310
-814482
-814736
-814870
-814993
-815113
-815410
-815528
-815674
-815734
-815848
-816071
-816323
-816333
-816564
-816694
-816982
-817175
-817306
-817452
-817812
-817956
-818217
-818370
-818570
-818762
-819076
-819338
-819514
-819729
-819811
-820136
-820313
-820528
-820393
-820822
-821085
-821331
-821393
-821693
-821999
-822477
-822822
-822972
-823150
-823467
-823822
-824112
-824191
-824340
-824569
-824845
-825068
-825756
-825598
-825888
-826059
-826287
-826508
-826634
-826837
-827148
-827256
-827386
-827572
-827702
-827989
-828058
-828240
-828376
-828636
-828933
-829235
-829366
-829722
-829868
-830079
-830299
-830524
-830649
-830865
-831185
-831465
-831438
-831734
-831941
-832167
-832459
-832681
-832865
-833238
-833411
-833704
-833905
-834124
-834419
-834750
-834934
-835094
-835301
-835456
-835785
-835973
-836128
-836396
-836611
-836926
-837054
-837266
-837376
-837730
-837932
-838271
-838459
-838500
-838568
-838905
-839162
-839403
-839531
-839907
-840132
-840503
-840602
-840923
-841136
-841406
-841616
-841835
-842035
-842309
-842502
-842702
-842830
-843078
-843257
-843547
-843746
-843784
-843969
-844112
-844069
-844087
-844009
-843882
-844116
-843565
-843121
-842629
-842192
-841622
-840977
-840309
-839372
-838680
-837719
-836808
-835868
-834686
-833798
-832723
-831817
-830664
-829535
-828484
-827242
-826213
-825002
-823787
-822559
-821463
-820469
-819275
-818007
-816890
-815781
-814719
-813672
-812585
-811584
-810538
-809787
-809027
-808186
-807312
-806548
-805882
-805222
-804464
-803936
-803354
-802920
-802423
-801809
-801290
-800932
-800510
-800187
-799760
-799415
-799210
-798949
-798674
-798418
-798274
-798128
-798013
-797834
-797559
-797366
-797298
-797233
-797075
-796907
-796948
-796797
-796994
-796919
-796866
-796819
-796913
-796994
-797044
-796992
-797050
-797237
-797358
-797282
-797211
-797320
-797378
-797470
-797504
-797511
-797514
-797502
-797469
-797400
-797394
-797325
-797355
-797365
-797303
-797111
-797054
-796969
-796956
-796842
-796665
-796642
-796676
-796606
-796583
-796428
-796380
-796569
-797218
-796741
-796663
-796587
-796576
-796891
-797091
-797094
-797185
-797447
-797630
-797703
-797804
-798019
-798259
-798440
-798640
-798714
-798953
-799270
-799473
-799707
-799858
-800070
-800467
-800635
-800838
-801260
-801515
-801869
-802078
-802344
-802476
-802745
-803149
-803378
-803701
-803795
-804320
-804278
-804412
-804391
-804655
-804941
-805270
-805394
-805610
-805781
-805861
-806123
-806252
-806397
-806610
-806665
-806883
-806895
-807007
-806962
-806963
-807093
-807282
-807303
-807278
-807320
-807339
-807418
-807580
-807560
-807615
-807787
-807929
-807961
-807912
-807877
-808067
-808187
-808271
-808269
-808256
-808244
-808222
-808210
-808200
-808197
-808305
-808288
-808425
-808373
-808518
-808410
-808579
-808514
-808587
-808681
-808799
-808941
-809060
-809057
-809159
-809221
-809366
-809471
-809618
-809583
-809900
-810172
-810287
-810418
-810411
-810552
-810792
-811014
-811141
-811316
-811608
-811814
-812025
-812213
-812366
-812746
-813031
-813119
-813288
-813597
-813803
-814177
-814308
-814564
-814692
-814967
-815302
-815408
-815548
-815850
-816105
-816373
-816609
-816724
-816962
-817125
-817404
-817572
-817815
-818023
-818402
-818509
-818860
-818858
-819222
-819421
-819768
-819936
-820175
-820484
-820758
-821145
-821341
-821560
-821807
-822052
-822338
-822703
-822892
-823122
-823457
-823897
-823990
-824306
-824600
-824908
-825202
-825555
-825742
-826044
-826226
-826519
-826709
-826754
-826988
-827151
-827448
-827491
-827596
-827856
-828141
-828428
-828623
-828854
-829131
-829352
-829522
-829770
-829892
-830057
-830304
-830633
-830816
-830839
-831122
-831240
-831452
-831644
-831667
-831426
-831719
-831861
-831833
-831657
-831346
-831121
-830791
-830505
-829973
-829534
-829038
-828512
-827889
-827151
-826401
-825830
-825074
-824263
-823303
-822504
-821598
-820557
-819657
-818523
-817419
-816413
-815508
-814342
-813267
-812237
-811311
-810415
-809536
-808415
-807616
-806652
-805837
-804833
-804431
-803360
-802555
-801839
-801184
-800487
-799879
-799238
-798729
-798062
-797526
-797033
-796589
-796283
-795802
-795501
-795200
-794809
-794626
-794318
-794039
-793809
-793584
-793480
-793416
-793254
-793101
-793034
-792992
-792837
-792813
-792682
-792860
-792881
-792906
-792771
-792752
-792851
-792947
-792906
-792895
-792691
-792848
-792998
-793005
-792798
-793110
-793153
-793342
-793327
-793229
-793331
-793279
-793385
-793420
-793289
-793264
-793360
-793326
-793246
-793076
-792996
-793111
-793086
-792933
-792874
-792782
-793038
-792781
-792728
-792575
-792644
-792635
-792787
-792830
-792822
-792863
-792868
-792998
-793078
-793082
-793325
-793561
-793628
-793819
-793970
-793954
-794243
-794494
-794654
-794824
-795008
-795200
-795346
-795608
-795618
-795798
-796029
-796270
-796380
-796515
-796844
-797098
-797330
-797624
-797759
-797983
-798272
-798627
-798837
-798978
-799136
-799372
-799640
-799839
-799984
-800153
-800359
-800579
-800687
-800720
-800892
-801119
-801304
-801445
-801451
-801512
-801681
-801870
-801872
-801894
-801883
-802094
-802150
-802195
-802212
-802240
-802378
-802442
-802495
-802521
-802517
-802694
-802712
-802665
-802812
-802935
-802889
-802930
-802975
-803071
-803162
-803306
-803463
-803600
-803677
-803783
-803897
-803997
-804101
-804152
-804441
-804578
-804822
-804838
-804948
-805014
-805241
-805379
-805650
-805726
-805835
-806067
-806189
-806397
-806485
-806754
-806848
-807207
-807315
-807463
-807594
-807861
-808200
-808324
-808503
-808728
-808900
-809659
-809595
-809739
-809913
-810213
-810487
-810581
-810865
-811015
-811254
-811424
-811667
-811878
-812115
-812440
-812753
-812919
-813263
-813323
-813649
-813801
-813961
-814026
-814162
-814501
-814687
-814722
-814875
-815061
-815417
-815577
-815845
-816066
-816202
-816556
-816716
-817089
-817111
-817333
-817601
-817791
-817922
-818218
-818457
-818865
-819027
-819363
-819547
-819781
-820111
-820399
-820333
-820701
-821106
-821389
-821847
-821927
-822165
-822519
-822953
-823175
-823431
-823664
-824054
-824427
-824770
-825020
-825303
-825603
-825801
-826084
-826386
-826565
-826570
-827136
-827255
-827535
-827972
-828238
-828587
-828778
-829007
-829112
-829360
-829776
-830137
-830245
-830519
-830690
-831001
-831237
-831216
-831227
-831281
-831345
-831419
-831270
-831101
-830714
-830521
-830109
-829626
-829104
-828492
-827992
-827421
-826676
-826015
-825162
-824446
-823529
-822584
-821712
-820832
-819895
-818966
-817970
-817066
-816075
-815242
-814327
-813433
-812540
-811822
-811050
-810238
-809430
-808669
-807768
-807086
-806513
-805755
-804915
-804490
-804023
-803504
-802856
-802365
-801788
-801344
-800991
-800404
-800068
-799778
-799460
-799281
-798970
-798597
-798436
-798388
-798109
-797951
-797811
-797699
-797540
-797637
-797342
-797442
-797249
-797199
-797197
-797093
-797075
-796923
-796965
-796924
-796922
-796858
-796948
-796858
-796866
-796781
-796833
-796855
-796889
-796933
-796960
-796900
-796801
-796808
-796839
-796744
-796717
-796676
-796754
-796726
-796585
-796586
-796450
-796427
-796445
-796278
-796246
-796158
-796213
-796192
-796217
-796190
-796137
-796296
-796359
-796412
-796431
-796570
-796760
-796949
-797127
-797366
-797436
-797689
-797870
-798041
-798229
-798411
-798685
-798923
-799125
-799261
-799643
-799846
-800132
-800223
-800478
-801101
-801099
-801331
-801558
-801728
-802011
-802237
-802418
-802493
-802758
-802900
-803212
-803302
-803445
-803721
-803820
-803992
-804281
-804391
-804562
-804728
-804873
-805108
-805027
-805205
-805304
-805489
-805500
-805685
-805589
-805654
-805599
-805921
-805876
-805943
-805934
-806027
-806132
-806174
-806154
-806203
-806318
-806360
-806291
-806325
-806364
-806285
-806466
-806450
-806464
-806434
-806566
-806639
-806802
-806798
-806840
-806942
-807149
-807136
-807266
-807187
-807367
-807399
-807540
-807723
-807634
-807924
-807941
-808008
-808122
-808321
-808508
-808826
-808843
-809014
-809061
-809232
-809415
-809486
-809576
-809761
-810039
-810271
-810350
-810529
-810660
-810905
-811105
-811139
-811322
-811511
-811790
-811976
-812046
-812200
-812340
-812538
-812758
-812820
-813016
-813210
-813496
-813691
-813889
-814008
-814188
-814493
-814624
-814807
-814914
-815143
-815383
-815560
-815764
-816058
-816122
-816376
-816545
-816708
-816950
-817037
-817099
-817648
-817846
-818086
-818341
-818591
-818795
-818936
-819132
-819351
-819689
-819908
-820165
-820461
-820591
-820918
-821016
-821265
-821550
-821758
-822072
-822342
-822531
-822788
-822959
-823199
-823480
-823631
-823874
-824118
-824279
-824486
-824563
-824673
-824889
-825214
-825304
-825450
-825549
-825648
-825962
-826177
-826319
-826556
-826630
-826941
-827075
-827143
-827250
-827612
-827842
-827957
-828149
-828378
-828591
-828819
-828987
-829060
-829276
-829488
-829705
-829942
-830228
-830410
-830602
-830848
-831019
-831057
-831245
-831368
-831650
-831823
-832044
-832123
-832269
-832530
-832626
-832727
-832889
-833112
-833408
-833659
-833731
-833800
-833883
-833998
-834120
-834214
-834176
-834278
-834456
-834403
-834069
-833949
-833487
-833262
-832809
-832108
-831563
-830926
-830291
-829642
-828760
-828140
-827275
-826658
-825910
-825034
-824082
-823309
-822666
-822009
-821262
-820570
-819907
-819362
-818767
-818109
-817623
-817063
-816692
-816293
-815936
-815613
-815213
-814851
-814338
-813770
-813384
-812852
-812449
-811997
-811391
-810850
-810330
-810140
-809700
-809435
-809047
-808867
-808649
-808375
-808099
-807905
-807591
-807400
-807234
-806972
-806835
-806737
-806657
-806468
-806217
-806084
-805871
-805726
-805467
-805202
-805122
-804758
-804515
-804315
-803888
-803685
-803457
-802972
-802487
-802267
-801874
-801744
-801661
-801785
-801664
-801626
-801528
-801383
-801131
-800957
-800939
-800764
-800743
-800555
-800382
-800208
-799964
-799887
-799836
-799693
-799600
-799457
-799463
-799351
-799158
-799063
-798880
-799014
-799031
-799282
-799430
-799560
-799723
-799797
-799802
-799996
-800180
-800443
-800569
-800664
-800987
-801315
-801510
-801688
-801741
-801814
-802615
-802594
-802604
-802719
-802774
-803039
-803306
-803567
-803661
-803732
-803940
-804105
-804264
-804286
-804610
-804708
-804767
-804661
-804552
-804690
-804841
-805116
-805224
-805068
-805077
-805116
-805296
-805543
-805930
-806583
-807303
-808038
-808888
-809725
-810406
-810749
-810544
-810009
-809637
-809528
-809629
-809724
-809754
-809808
-809878
-809876
-809952
-810686
-810227
-810202
-810200
-810428
-810429
-810304
-810296
-810665
-810833
-810925
-811100
-811243
-811239
-811422
-811541
-811667
-811688
-811775
-811855
-811808
-811947
-812130
-812277
-812357
-812502
-812473
-812444
-812483
-812554
-812816
-812994
-813169
-813345
-813514
-813677
-813773
-813934
-814133
-814390
-814501
-814639
-814785
-814793
-814790
-814551
-814176
-813906
-813593
-813279
-813165
-813216
-813593
-814082
-814527
-814871
-814712
-814746
-815000
-815249
-815615
-815803
-815940
-816139
-816301
-816276
-816311
-816475
-816738
-816869
-816901
-816801
-817022
-816981
-817223
-817469
-817413
-817620
-818012
-818222
-818500
-818770
-819140
-819623
-819981
-820221
-820604
-821048
-821623
-822209
-822810
-823424
-823999
-824539
-825206
-825829
-826416
-827016
-827862
-828464
-829058
-829316
-829238
-829075
-829036
-829195
-829466
-829772
-830101
-830395
-831217
-830877
-830901
-831246
-831577
-831741
-831905
-832189
-832451
-832573
-832810
-832789
-833045
-833231
-833465
-833755
-833856
-834098
-834265
-834549
-834757
-834816
-834897
-835227
-835370
-835739
-835960
-836038
-836138
-836254
-836567
-836906
-837266
-837468
-837661
-837588
-837758
-838021
-838210
-838376
-838521
-838638
-838800
-838886
-839085
-839138
-839225
-839414
-839575
-839705
-839865
-839907
-840018
-840208
-840394
-840515
-840585
-840557
-840697
-840896
-840911
-840834
-840867
-840875
-840988
-840925
-840880
-840970
-841100
-841360
-841502
-841644
-841792
-842191
-842445
-842826
-843211
-843558
-844030
-844535
-844902
-845470
-845485
-846102
-846672
-846924
-847181
-847398
-847620
-847714
-847721
-847865
-847959
-848044
-848155
-847978
-847725
-847600
-847349
-846824
-846290
-845674
-845452
-845045
-844486
-843803
-843429
-843764
-842858
-842013
-841243
-840443
-839703
-839002
-837997
-837157
-836251
-835460
-835015
-834281
-833513
-833287
-832101
-831450
-830832
-830153
-829711
-829109
-828648
-828074
-827482
-826899
-826488
-826009
-825531
-825147
-824689
-824418
-823882
-823608
-823101
-822590
-822363
-821925
-821447
-820964
-820404
-820174
-819929
-819645
-819300
-818990
-818779
-818530
-818294
-817911
-817631
-817500
-817366
-817216
-816998
-816852
-816584
-816386
-816224
-816127
-816204
-816288
-816165
-816072
-816073
-816010
-815928
-815931
-815833
-815604
-815443
-815445
-815462
-815533
-815402
-815204
-815221
-815278
-815351
-815357
-815486
-815593
-815719
-815833
-815989
-816216
-816539
-816807
-817047
-817444
-817798
-818226
-818638
-819047
-819341
-819627
-819934
-820314
-820584
-820830
-821255
-821484
-821681
-822044
-822419
-822665
-822927
-823216
-823497
-823670
-823896
-824211
-824430
-824576
-824747
-824887
-825147
-825370
-825487
-825531
-825696
-826010
-826245
-826345
-826407
-826594
-826769
-826917
-827031
-827215
-827471
-827720
-828024
-829017
-828858
-829043
-829292
-829457
-829563
-829686
-829713
-829889
-829933
-830088
-830271
-830397
-830411
-830541
-830729
-830698
-830887
-831029
-831037
-831177
-831208
-831332
-831409
-831550
-831530
-831510
-831357
-831801
-831990
-831901
-831987
-832075
-832203
-832388
-832331
-832264
-832143
-832242
-832292
-832469
-832331
-832385
-832456
-832447
-832446
-832466
-832532
-832646
-832746
-832715
-832817
-832951
-832945
-833116
-832783
-833064
-833259
-833306
-833288
-833432
-833573
-833743
-834030
-834072
-834186
-834216
-834394
-834550
-834845
-834834
-835058
-835129
-835218
-835523
-835580
-835666
-835724
-835921
-836090
-836328
-836404
-836526
-836696
-836928
-836884
-837025
-837385
-837538
-837558
-837604
-837764
-837867
-838101
-838140
-838234
-838344
-838532
-838816
-838818
-839085
-839051
-839174
-839275
-839444
-839476
-839608
-839848
-840040
-840092
-840155
-840374
-840559
-840552
-840504
-840570
-840740
-840956
-841190
-842087
-841535
-841663
-841880
-841998
-842110
-842270
-842479
-842771
-842990
-843153
-843240
-843425
-843588
-844203
-843576
-843772
-843885
-844137
-844393
-844525
-844807
-844875
-845180
-845348
-845266
-845405
-845408
-845364
-845653
-845587
-845720
-845748
-845763
-845686
-845632
-845510
-845572
-845542
-845485
-845364
-845412
-845347
-845256
-845215
-845187
-845305
-845364
-845420
-845711
-845884
-845970
-846148
-846397
-846762
-846971
-847253
-847413
-847793
-848119
-848472
-848594
-848679
-849083
-849458
-849839
-849994
-850353
-850638
-850962
-851250
-851534
-851649
-851993
-852267
-852589
-852755
-852981
-853102
-853304
-853596
-853714
-853822
-853917
-854041
-854247
-854360
-854424
-854545
-854675
-854743
-854832
-855039
-855135
-855361
-855451
-855638
-855736
-855918
-856050
-856231
-856294
-856347
-856401
-856420
-856283
-856238
-855961
-855780
-855578
-855313
-854917
-854481
-854081
-853608
-852984
-852346
-851778
-851072
-850475
-849714
-849064
-848288
-847638
-847035
-846351
-845612
-845060
-844294
-843758
-843049
-842321
-841473
-840584
-839824
-839094
-838419
-837753
-837174
-836665
-836150
-835408
-834533
-834214
-833880
-833458
-833031
-832610
-832015
-831667
-831111
-830668
-830342
-829989
-829653
-829416
-829030
-828795
-828408
-828165
-827923
-827619
-827365
-827139
-826887
-826752
-826388
-826141
-825955
-825786
-825469
-825308
-825088
-824923
-824751
-824495
-824189
-822712
-822560
-822475
-822153
-822066
-821957
-821564
-821367
-821047
-820934
-820828
-820621
-820533
-820428
-820173
-820046
-819806
-819582
-819473
-819422
-819214
-819133
-819102
-818918
-818991
-818857
-818782
-818788
-818700
-818612
-818520
-818446
-818733
-818709
-818761
-818699
-818854
-818945
-818932
-819114
-819143
-819274
-819435
-819535
-819730
-819787
-820035
-820017
-820213
-820294
-820331
-820530
-820422
-820448
-820479
-820608
-820767
-820774
-820685
-820780
-820795
-820937
-821057
-821052
-821069
-821110
-821331
-821344
-821361
-821512
-821676
-821819
-821913
-822046
-822185
-822254
-822484
-822357
-822831
-822700
-822692
-822918
-822973
-823086
-823067
-823063
-823135
-823070
-823013
-822868
-822884
-822819
-822780
-822747
-822624
-822741
-822630
-822645
-822572
-822504
-822375
-822351
-822333
-822243
-822222
-822067
-822129
-822096
-821932
-821943
-821905
-821985
-821913
-821959
-821989
-821995
-822076
-822170
-822126
-822115
-822219
-821973
-822336
-822376
-822233
-822494
-822654
-822698
-822687
-822708
-822801
-822802
-823048
-823000
-823032
-823048
-823181
-823270
-823262
-823351
-823444
-823448
-823518
-823610
-823630
-823749
-823782
-823831
-823902
-823973
-824001
-824190
-824329
-824474
-824534
-824690
-824790
-824890
-824960
-825060
-825174
-825272
-825328
-825316
-825434
-825560
-825814
-825899
-825895
-825970
-825965
-826185
-826444
-826527
-826735
-826837
-826966
-827050
-827132
-827237
-827349
-827579
-827667
-827780
-828021
-828023
-828215
-828171
-828292
-828407
-828590
-828779
-828893
-829039
-829070
-829210
-829436
-829657
-829712
-829866
-829950
-830240
-830346
-830529
-830535
-830684
-830917
-831018
-831154
-831209
-831428
-831700
-832014
-832080
-832217
-832366
-832609
-832678
-832838
-833052
-833202
-833372
-833637
-833781
-833904
-834017
-834476
-834422
-834454
-834530
-834647
-834921
-834996
-834965
-835126
-835245
-835472
-835534
-835468
-835711
-835769
-835998
-836282
-836354
-836538
-836688
-836850
-837104
-837211
-837194
-837482
-837824
-837970
-838206
-838344
-838474
-838806
-839060
-838870
-839701
-839696
-839902
-840084
-840164
-840391
-840619
-840888
-840959
-840971
-841137
-841313
-841590
-841769
-841835
-841972
-842045
-842051
-842265
-842393
-842495
-842517
-842900
-842812
-842915
-843051
-843744
-843375
-843409
-843319
-843498
-843507
-843744
-843827
-843977
-844095
-844223
-844306
-844355
-844440
-844552
-844774
-844963
-845150
-845204
-845208
-845249
-845324
-845312
-845294
-845993
-845314
-845088
-844977
-844519
-844293
-843833
-843425
-842909
-842247
-841686
-841076
-840461
-839916
-839133
-838476
-837826
-837044
-836364
-835589
-834784
-834193
-833504
-832946
-832321
-831594
-830866
-830296
-829688
-829039
-828428
-827831
-827453
-826722
-826389
-825820
-825406
-825053
-825051
-824238
-823774
-823381
-823032
-822784
-822401
-822124
-821869
-821527
-821212
-820941
-820745
-820594
-820358
-820180
-819984
-819803
-819552
-819474
-819359
-818956
-818773
-818732
-818597
-818434
-818888
-818459
-818339
-818249
-818173
-817915
-817795
-817704
-817615
-817465
-817323
-817184
-817093
-817001
-816839
-816711
-816568
-816391
-816318
-816121
-815936
-815810
-815646
-815511
-815389
-815117
-814966
-814867
-814804
-814612
-814395
-814318
-814230
-814135
-814012
-813926
-813830
-813896
-813895
-813942
-813774
-813810
-813676
-813765
-813806
-813701
-813944
-813916
-814021
-814112
-814135
-814190
-814240
-814338
-814452
-814517
-814755
-814711
-815050
-815201
-815294
-815593
-815691
-815946
-816229
-816218
-816323
-816673
-816954
-817174
-817365
-817521
-817722
-818150
-818283
-818430
-818610
-818800
-819097
-819299
-819420
-819598
-819601
-819738
-819848
-819909
-820107
-820191
-820249
-820362
-820344
-820476
-820498
-820539
-820573
-820616
-820677
-820726
-820966
-821090
-821027
-821015
-821048
-821181
-821315
-821226
-821377
-821371
-821479
-821989
-821697
-821594
-821514
-821619
-821714
-821706
-821761
-821823
-821936
-822106
-822013
-822048
-822224
-822287
-822372
-822365
-822393
-822488
-822720
-822824
-822771
-822908
-822987
-823198
-823295
-823383
-823419
-823616
-823758
-823806
-823903
-823937
-824096
-824128
-824269
-824244
-824235
-824354
-824535
-824722
-824908
-824830
-824928
-825134
-825279
-825366
-825497
-825736
-825937
-826203
-826266
-826505
-826678
-826917
-827176
-827303
-827452
-827780
-828102
-828265
-828395
-828702
-828910
-829214
-829314
-829520
-829778
-830005
-830237
-830358
-830580
-830781
-830972
-831146
-831289
-831391
-831570
-831862
-832050
-832367
-832545
-832685
-832810
-832963
-833119
-833258
-834114
-833887
-834029
-834248
-834420
-834626
-834849
-835116
-835296
-835308
-835575
-835820
-835986
-836245
-836349
-836615
-836748
-837089
-837164
-837223
-837534
-837814
-837961
-838235
-838405
-838679
-838858
-839112
-839159
-839386
-839569
-839744
-839873
-840074
-840199
-840336
-840471
-840760
-840758
-840869
-841143
-841292
-841339
-841491
-842345
-842043
-842020
-842180
-842271
-842268
-842540
-842888
-843029
-843161
-843320
-843465
-843703
-844313
-844079
-844230
-844334
-844543
-844762
-844887
-845023
-845096
-845311
-845415
-845500
-845704
-845964
-846150
-846274
-846377
-846619
-846712
-846950
-847113
-847064
-847239
-847367
-848428
-848030
-848083
-848252
-848408
-848536
-848740
-848745
-849096
-849327
-849560
-849673
-849766
-849878
-850089
-850295
-850568
-850611
-850863
-851164
-851462
-851575
-851768
-851882
-852198
-852392
-852569
-852749
-852912
-853187
-853477
-853762
-853917
-854144
-854370
-854612
-854826
-854904
-855133
-855343
-855633
-855906
-856002
-856276
-856498
-856674
-856912
-856924
-857121
-857456
-857727
-857991
-858206
-858333
-858576
-858776
-858974
-859008
-859349
-859536
-860107
-860050
-860151
-860377
-860550
-860915
-861118
-861307
-861513
-861879
-862039
-862236
-862477
-862609
-862776
-863171
-863280
-863493
-863553
-863716
-863746
-863851
-863784
-863898
-863810
-863747
-863477
-862872
-862763
-862541
-862205
-861708
-861232
-860678
-860316
-859720
-859049
-858380
-857676
-857220
-856632
-855962
-855305
-854467
-853583
-853012
-852444
-851910
-851428
-850987
-850402
-849858
-849306
-848863
-848514
-848143
-847818
-847320
-847103
-846949
-846603
-846297
-845988
-845296
-844533
-844317
-844402
-844199
-844173
-844078
-844065
-844068
-844098
-844056
-844043
-843905
-843909
-843984
-843939
-843985
-843806
-843754
-843733
-843834
-843715
-843700
-843663
-843725
-843745
-843634
-843410
-843455
-843340
-843424
-843173
-843192
-843129
-843136
-843054
-842919
-842875
-842871
-842813
-842778
-842744
-842640
-842695
-842633
-842684
-842550
-842478
-842474
-842493
-842449
-842490
-842380
-842276
-842291
-842394
-842386
-842260
-842411
-842461
-842776
-842739
-842774
-842819
-842914
-843059
-843162
-843251
-843448
-843661
-843810
-843916
-844058
-844179
-844320
-844497
-844757
-844668
-844993
-845347
-845637
-845805
-845907
-846182
-846279
-846823
-846986
-847266
-847566
-847793
-847982
-848270
-848443
-848645
-848941
-849128
-849270
-849277
-849491
-849720
-849840
-849898
-849991
-850174
-850378
-850454
-850489
-850527
-850566
-850781
-850930
-851120
-851134
-851129
-851320
-851481
-851516
-851631
-851780
-851841
-851950
-852010
-852011
-851943
-851944
-852078
-852204
-852159
-852154
-852415
-852382
-852486
-852472
-852442
-852470
-852650
-852521
-852705
-852784
-852853
-853093
-853220
-853291
-853358
-853402
-853580
-853768
-853828
-853951
-854124
-854226
-854384
-854575
-854613
-854763
-854970
-855061
-855094
-855180
-855412
-855553
-855667
-855777
-855892
-856074
-856232
-856389
-856364
-856602
-856815
-857093
-857179
-857251
-857524
-857774
-857903
-857826
-858073
-858878
-858870
-858894
-859060
-859186
-859329
-859575
-859872
-859841
-860128
-860165
-860519
-860667
-860952
-860931
-861104
-861396
-861547
-861700
-861828
-862219
-862434
-862511
-862638
-862770
-862992
-863192
-863348
-863501
-863540
-863653
-863928
-864083
-864257
-864466
-864622
-864858
-865114
-865324
-865329
-865581
-865758
-865976
-866191
-866428
-866573
-866852
-867156
-867891
-867463
-867608
-867912
-868126
-868230
-868405
-868628
-868769
-868956
-868964
-869096
-869267
-869485
-869585
-869687
-869866
-870022
-870099
-870365
-870446
-870638
-870778
-870989
-871272
-871496
-871513
-871547
-871801
-871972
-872175
-872332
-872420
-872601
-872920
-873042
-873298
-873266
-873491
-873580
-873822
-873944
-874108
-874251
-874443
-874616
-874702
-874923
-875111
-875212
-875359
-875409
-875576
-875699
-875862
-875995
-876079
-876369
-876556
-877134
-876920
-876937
-877017
-877287
-877432
-877603
-877706
-877772
-878024
-878102
-878108
-878275
-878453
-878613
-878800
-878860
-879069
-879192
-879091
-879464
-879608
-879572
-879716
-879953
-880172
-880250
-880438
-880545
-880766
-880837
-881007
-881240
-881375
-881717
-881852
-881940
-882133
-882295
-882541
-882806
-882906
-883161
-883287
-883552
-883764
-883775
-883979
-884088
-884269
-884483
-884754
-884781
-884932
-885171
-885317
-885333
-885451
-885581
-885821
-885837
-885634
-885978
-886224
-886497
-886724
-886819
-886998
-887166
-887331
-887567
-887618
-887819
-887997
-888182
-888473
-888808
-888841
-889039
-889222
-889561
-889563
-889741
-890056
-890431
-890515
-890692
-890863
-891060
-891482
-891854
-892078
-892155
-892433
-892757
-893066
-893236
-893465
-893538
-893856
-893993
-894280
-894447
-894677
-894885
-895154
-895324
-895385
-895499
-895825
-895892
-896119
-896192
-896417
-896653
-896930
-897020
-897169
-897201
-897397
-897787
-897768
-897906
-897945
-897946
-898037
-897898
-897762
-897718
-897530
-897322
-896948
-896514
-896162
-895756
-895343
-894838
-894133
-893652
-893110
-892471
-891931
-891160
-890628
-890102
-889509
-888916
-888285
-887654
-887131
-886606
-886014
-885534
-885125
-884654
-884327
-883746
-883365
-882955
-882743
-882499
-882252
-881899
-881839
-881643
-881483
-881299
-881238
-881075
-881041
-881025
-880922
-880822
-880806
-880818
-880770
-880640
-880606
-881386
-880900
-880955
-880922
-880851
-880913
-881086
-881102
-881066
-881223
-881221
-881331
-881431
-881386
-881427
-881429
-881645
-881741
-881636
-881863
-881553
-882419
-882134
-881973
-881997
-881970
-882083
-882110
-881989
-881996
-881764
-881782
-881873
-881855
-881654
-881616
-881704
-881675
-881649
-881525
-881484
-881524
-881456
-881506
-881517
-881341
-881422
-881537
-881442
-881454
-881526
-881615
-881566
-881528
-881632
-881604
-881775
-881901
-881939
-881917
-882395
-882265
-882328
-882340
-882351
-883059
-882900
-883028
-883145
-883235
-883446
-883672
-883789
-884004
-884115
-885123
-884934
-885245
-884756
-884886
-885120
-885483
-885688
-885624
-885898
-886078
-886413
-886618
-886848
-886923
-887030
-887289
-887889
-887594
-887759
-887832
-887872
-887919
-888550
-888428
-888098
-888416
-888608
-888662
-888790
-888966
-888958
-889065
-889204
-889111
-889134
-889292
-889445
-889465
-889814
-889677
-889657
-889763
-889629
-889647
-889559
-889858
-889793
-889816
-889789
-889918
-889936
-890083
-890036
-890150
-890312
-890412
-890240
-890336
-890443
-890431
-890493
-890573
-890555
-890648
-890767
-890872
-890914
-891007
-890959
-891196
-891347
-891389
-891399
-891476
-891708
-891802
-891765
-891931
-892101
-892251
-892499
-892588
-892732
-892733
-892955
-893198
-893259
-893368
-893601
-893772
-894037
-894065
-894139
-894264
-894474
-894670
-894826
-894838
-895020
-895361
-895539
-895685
-895681
-895751
-896044
-896190
-896324
-897120
-896717
-896922
-896925
-896995
-897103
-897427
-897513
-897717
-897836
-897949
-898019
-898234
-898319
-898484
-898652
-898780
-899034
-899114
-899228
-899406
-899496
-899741
-899742
-899951
-900059
-900170
-900263
-900395
-900510
-900604
-900753
-900941
-901034
-901230
-901358
-901431
-901595
-901750
-901915
-901997
-902297
-902292
-902580
-902723
-902708
-902995
-903140
-903119
-903191
-903212
-903333
-903478
-903542
-903730
-903798
-903922
-904015
-904065
-904263
-904305
-904527
-904809
-904792
-904955
-904984
-905252
-905327
-905526
-905640
-905833
-905922
-906130
-906118
-906420
-906497
-906678
-906882
-906872
-907104
-907163
-907379
-907512
-907597
-907700
-907804
-908030
-908101
-908186
-908240
-908413
-908719
-908784
-908942
-909062
-909131
-909372
-909374
-909383
-909624
-909732
-909965
-910144
-910212
-910338
-910528
-910591
-910826
-910820
-910981
-911157
-911343
-911471
-911497
-911608
-911634
-911815
-911964
-912085
-912253
-912531
-912377
-912736
-912918
-912999
-913067
-913190
-913355
-913387
-913621
-913726
-913887
-914008
-914126
-914234
-914432
-914578
-914701
-914694
-914789
-915045
-915086
-915381
-915398
-915508
-915636
-915920
-916083
-916025
-916234
-916328
-916515
-916576
-916671
-916802
-916945
-917132
-917231
-917314
-917423
-917467
-917742
-918078
-917985
-918113
-918150
-918459
-918498
-918608
-918826
-918875
-919040
-919181
-919229
-919373
-919504
-919579
-919690
-919870
-919973
-920057
-920262
-920387
-920734
-920662
-920449
-920741
-921098
-921187
-921285
-921410
-921580
-921801
-921831
-921942
-922147
-922270
-922420
-922625
-922750
-922873
-923032
-923249
-923432
-923539
-923788
-923940
-924168
-924309
-924356
-924559
-924669
-924881
-924920
-925129
-925003
-925132
-925145
-925005
-924727
-924611
-924414
-924108
-923894
-923517
-923075
-922600
-922270
-921552
-920982
-920446
-919778
-919178
-918432
-917687
-917001
-916395
-915944
-915309
-914756
-914304
-913928
-913362
-912744
-912329
-911878
-911516
-911053
-910594
-910282
-909919
-909672
-909482
-909216
-908946
-908718
-908495
-908342
-908243
-908125
-908105
-908057
-908069
-907948
-907576
-907680
-907798
-907904
-907802
-907875
-907891
-907719
-907978
-908025
-907993
-908037
-908189
-908220
-908211
-908152
-908238
-908357
-908317
-908328
-908202
-908274
-908272
-908390
-908286
-908213
-908301
-908359
-908278
-908160
-908180
-908104
-908136
-908114
-907998
-907983
-907884
-907943
-907978
-907744
-907869
-907665
-907800
-907761
-907662
-907614
-907683
-907687
-907675
-907652
-907495
-907431
-907515
-907544
-907501
-907371
-907347
-907461
-907549
-907504
-907543
-907490
-908174
-908029
-908017
-908086
-908143
-908421
-908589
-908660
-908875
-908996
-909175
-909364
-909471
-909726
-909854
-910101
-910382
-910544
-910704
-910837
-911077
-911242
-911360
-911581
-911638
-911901
-912190
-912221
-912440
-912557
-912779
-912956
-913065
-913079
-913257
-913498
-913586
-913677
-913793
-913831
-914053
-914082
-914073
-914143
-914191
-914228
-914375
-914243
-914359
-914419
-914435
-914492
-914450
-914435
-915227
-914819
-914751
-914727
-914853
-914936
-914997
-914934
-914931
-914982
-914940
-914994
-915011
-914960
-914892
-915056
-915191
-915066
-915151
-915186
-915320
-915261
-915241
-915213
-915252
-915461
-915561
-915301
-915569
-915467
-915622
-915789
-915735
-915859
-915977
-916157
-916178
-916214
-916433
-916474
-916575
-916790
-916621
-916844
-917010
-917156
-917402
-917229
-917506
-918260
-917816
-917768
-917815
-917932
-918201
-918222
-918436
-918487
-918613
-918635
-918879
-918956
-919078
-919140
-919389
-919527
-919726
-919688
-919820
-919708
-920164
-920373
-920366
-920519
-920532
-920851
-921036
-921038
-921215
-921415
-921499
-921617
-921592
-921770
-921784
-921966
-922046
-922219
-922262
-922403
-922456
-922438
-922557
-922665
-922802
-923043
-922980
-923184
-923266
-923412
-923537
-923632
-923705
-923995
-924154
-924357
-924373
-924416
-924607
-924755
-924950
-924920
-925123
-925274
-925475
-925600
-925676
-925766
-925847
-926087
-926218
-926204
-926444
-926547
-926711
-926809
-926813
-926872
-926895
-927022
-927191
-927325
-927447
-927501
-927728
-927815
-927875
-928070
-928125
-928320
-928367
-928488
-928584
-928669
-928931
-928984
-928990
-929173
-929234
-929341
-929453
-929449
-929523
-929744
-929801
-930004
-929912
-930001
-930055
-930198
-930423
-930482
-930631
-930751
-930866
-930974
-931070
-931233
-931427
-931444
-931596
-931552
-931702
-931911
-932073
-932212
-932178
-932265
-932466
-932483
-932591
-932721
-932711
-932854
-932951
-933234
-933144
-933217
-933159
-933188
-933367
-933365
-933498
-933670
-933979
-934044
-933973
-934099
-934015
-934560
-934643
-934837
-934928
-935150
-935259
-935248
-935250
-935268
-935195
-935614
-935804
-935848
-935980
-935949
-936070
-936318
-936348
-936498
-936741
-936852
-936956
-936867
-937070
-937080
-937221
-937411
-937363
-937525
-937731
-937821
-937896
-938056
-938192
-938233
-938506
-938542
-938596
-938815
-938834
-938927
-939114
-939004
-938964
-939960
-939474
-939687
-939676
-939660
-939583
-939642
-939686
-939671
-939808
-939967
-940230
-940285
-940136
-939924
-939704
-939654
-939385
-939097
-938770
-938365
-938117
-937571
-937015
-936506
-935974
-935488
-934952
-934485
-933861
-933534
-932780
-932145
-931512
-930890
-930317
-929864
-929227
-928590
-928156
-927717
-927232
-926481
-926110
-925859
-925373
-925173
-924761
-924412
-924080
-923801
-923627
-923256
-923006
-922838
-922754
-922666
-922420
-922191
-922013
-922027
-922048
-921980
-921830
-921768
-921705
-921773
-921616
-921652
-921617
-921663
-921772
-921639
-921469
-921396
-921541
-921536
-921498
-921552
-921535
-921531
-921607
-921731
-921701
-921676
-921667
-921679
-921730
-921678
-921633
-921705
-921718
-921676
-921583
-921670
-921558
-921678
-921601
-921376
-921323
-921385
-921333
-921200
-921017
-921042
-921008
-920895
-920774
-920660
-920510
-920526
-920424
-920371
-919941
-920093
-920443
-920138
-919924
-919662
-919559
-919509
-919589
-919474
-919402
-919242
-919249
-919242
-919176
-919167
-919180
-919248
-919316
-919435
-919266
-919335
-919474
-919290
-919496
-919630
-919728
-919784
-920017
-920015
-920052
-920165
-920188
-920254
-920413
-920396
-920577
-920681
-920887
-920886
-920938
-921136
-921125
-921304
-921331
-921389
-921566
-921649
-921734
-921872
-921863
-921984
-922118
-922183
-922274
-922205
-922300
-922451
-922626
-922642
-922575
-922669
-922784
-922919
-922956
-923037
-923123
-923192
-923362
-923420
-923242
-923449
-923420
-923517
-923583
-923422
-923563
-923632
-923724
-923647
-923691
-923619
-923689
-923789
-923795
-923760
-923658
-923880
-924060
-923938
-924133
-924228
-924326
-924482
-924617
-924503
-924687
-924884
-925048
-925095
-925173
-925390
-925450
-925633
-925825
-925855
-925857
-926192
-926316
-926396
-926498
-926515
-926513
-926673
-926548
-926499
-926379
-926541
-926805
-926879
-927057
-927208
-927127
-927430
-927429
-927570
-927577
-927726
-927944
-928048
-928007
-928220
-928458
-928548
-928529
-928525
-928622
-928824
-929083
-929043
-929076
-928908
-929148
-929287
-929233
-929408
-929522
-929701
-929948
-930069
-929971
-930129
-930169
-930247
-930275
-930316
-930397
-930601
-930646
-930684
-930813
-931804
-931209
-931266
-931363
-931786
-931434
-931437
-931609
-931752
-931682
-931886
-931951
-932192
-932257
-932228
-932215
-932371
-932568
-932675
-932730
-932695
-932858
-932934
-933002
-932998
-933048
-933211
-933282
-933248
-933414
-933323
-933434
-933475
-933510
-933534
-933619
-933580
-933837
-933916
-933777
-933898
-934062
-934117
-934189
-934151
-934345
-934534
-934577
-934667
-934736
-934788
-934821
-934968
-935582
-935145
-935203
-935403
-935325
-935503
-935560
-935711
-935690
-935867
-936102
-936010
-936161
-936242
-936399
-936539
-936561
-936620
-936685
-936782
-936879
-936924
-936921
-937069
-937247
-937321
-937308
-937328
-937406
-937537
-937582
-937559
-937684
-937859
-938017
-938158
-938193
-938329
-938609
-938622
-938695
-938798
-938941
-939040
-939103
-939039
-939126
-939185
-939354
-939485
-939416
-939502
-939634
-939708
-939956
-939950
-940012
-940048
-941031
-940395
-940288
-940486
-940530
-940794
-940892
-940915
-941051
-941189
-941292
-941376
-941494
-941536
-941756
-941675
-941843
-941925
-942146
-942252
-942467
-942621
-942696
-942665
-942882
-942993
-943160
-943257
-943414
-943405
-943569
-943463
-943408
-943651
-943849
-943974
-944082
-943936
-943924
-944139
-944286
-944242
-944207
-944388
-944580
-944723
-944695
-944696
-944777
-944891
-944861
-944815
-944640
-944694
-944634
-944665
-944379
-944277
-943962
-943583
-943206
-942860
-942199
-941749
-941233
-940780
-940183
-939618
-938869
-938288
-937829
-937118
-936534
-935935
-935327
-934906
-934155
-933603
-932914
-932587
-932035
-931395
-931103
-930635
-930192
-929794
-929324
-928823
-928581
-928227
-928030
-927692
-927385
-927295
-927067
-926883
-926683
-926465
-926314
-926328
-926189
-926029
-925867
-925726
-925666
-925725
-925701
-925598
-925435
-925385
-925364
-925279
-925186
-925185
-925228
-925306
-925272
-925209
-925395
-925321
-925322
-925240
-925217
-925274
-925381
-925350
-925288
-925263
-925234
-925133
-925000
-924782
-924724
-924525
-924447
-924399
-924197
-924004
-923919
-923766
-923556
-923318
-923270
-923224
-923207
-922936
-922758
-922564
-922559
-922444
-922402
-922789
-922205
-921911
-921835
-921708
-921483
-921426
-921343
-921099
-921055
-920965
-920786
-920522
-920734
-920728
-920501
-920466
-921133
-920758
-920650
-920540
-920669
-920838
-920822
-920849
-920979
-921246
-921409
-921662
-921552
-921771
-921938
-922264
-922349
-922461
-922541
-922593
-922944
-923048
-923276
-923304
-923484
-923569
-923731
-923805
-923911
-923888
-923934
-924030
-924180
-924133
-924108
-924232
-924436
-924323
-924310
-924379
-924487
-924612
-924596
-924443
-924702
-924722
-924622
-924625
-924500
-924594
-924549
-924623
-924815
-924864
-924772
-924900
-925015
-925022
-924973
-924953
-924994
-925180
-925301
-925117
-925040
-925113
-925048
-925156
-925147
-924975
-924999
-925077
-925020
-924926
-924924
-925015
-924930
-925051
-924941
-924643
-924896
-924987
-925037
-924983
-925120
-925134
-925323
-925457
-925466
-925490
-925455
-925556
-925765
-925822
-925915
-926039
-926125
-926194
-926869
-926394
-926459
-926527
-926602
-926671
-926463
-926672
-926891
-926804
-927139
-927287
-927445
-927660
-927838
-927947
-927883
-928013
-928242
-928276
-928354
-928565
-928623
-928809
-929008
-928975
-929014
-929166
-929253
-929272
-929305
-929390
-929413
-929586
-929535
-929604
-929409
-929395
-929396
-929406
-929364
-929227
-929047
-929136
-929099
-928963
-928914
-928867
-928793
-928811
-928833
-928788
-928786
-928938
-929007
-928986
-928784
-928931
-929208
-929313
-929404
-929453
-929565
-929690
-929919
-929911
-930097
-930042
-930182
-930301
-930456
-930416
-930498
-930651
-930596
-931234
-930787
-930743
-930520
-930772
-930791
-930974
-930915
-931052
-931204
-931235
-931282
-931419
-931437
-931595
-931494
-931693
-931656
-931820
-931888
-931974
-932030
-932027
-932170
-932340
-932346
-932358
-932474
-933188
-932936
-932896
-932927
-932937
-933080
-933077
-933197
-933127
-933051
-933239
-933372
-933428
-933526
-933484
-933626
-933832
-933826
-933903
-933939
-934164
-934258
-934297
-934299
-934429
-934607
-934647
-934723
-934883
-934933
-935073
-935243
-935328
-935360
-935545
-935599
-935834
-935837
-935949
-936091
-936396
-936538
-936670
-936810
-936887
-937209
-937392
-937503
-937585
-937858
-938024
-938373
-938473
-938623
-938704
-939134
-939320
-939583
-939688
-939881
-940160
-940442
-940469
-940596
-940827
-940971
-941287
-941464
-941641
-941773
-941997
-942157
-942264
-942347
-942470
-942731
-942945
-943092
-943138
-943093
-943431
-943489
-943427
-943505
-943502
-943539
-943577
-943448
-943346
-943399
-943313
-943106
-942751
-942496
-942198
-942010
-941636
-941194
-940773
-940269
-939832
-939243
-938541
-938128
-937428
-936967
-936267
-935580
-934947
-934319
-933587
-933114
-932371
-931718
-931235
-930672
-930105
-929448
-928857
-928296
-927972
-927381
-927045
-926516
-926152
-925566
-925291
-924818
-924378
-924004
-923810
-923501
-923241
-922896
-922592
-922499
-922297
-922136
-921887
-921965
-921810
-921853
-921812
-921665
-921541
-921551
-921659
-921591
-921585
-921718
-921683
-921845
-921773
-921815
-921778
-921835
-922015
-921978
-921847
-921928
-922062
-922052
-922008
-921992
-921871
-921938
-922001
-921916
-921878
-921864
-921835
-921802
-921704
-921693
-921654
-921537
-921562
-921634
-921298
-921255
-921236
-921228
-921044
-921047
-920855
-920817
-920783
-920785
-920617
-920593
-920489
-920365
-920265
-920221
-920131
-920065
-920134
-920112
-919797
-919835
-919822
-919784
-919657
-919493
-919593
-919634
-919488
-919585
-919479
-919461
-919696
-919712
-919688
-919637
-919566
-919732
-919781
-919743
-919682
-919728
-919826
-919919
-919892
-920003
-919952
-920011
-920203
-920171
-920209
-920190
-920321
-920364
-920332
-920415
-920355
-920437
-920481
-920484
-920447
-920479
-920596
-920602
-920506
-920593
-920501
-920649
-920644
-920667
-920531
-920410
-920521
-920574
-920528
-920526
-920568
-920522
-920611
-920522
-920543
-920542
-920616
-920683
-920586
-920553
-920509
-920634
-920560
-920515
-920592
-920219
-920451
-920508
-920598
-920611
-920553
-920523
-920669
-920566
-920604
-920540
-920684
-920730
-920670
-920655
-920741
-920857
-920924
-921044
-920847
-920986
-921039
-921113
-921214
-921279
-921204
-921275
-921392
-921401
-921519
-921558
-921714
-921754
-921678
-921790
-921785
-921874
-922111
-922014
-922188
-922246
-922311
-922377
-922501
-922438
-922539
-922617
-922749
-922803
-922853
-922908
-923057
-923172
-923304
-923362
-923508
-923676
-923842
-923895
-924055
-924112
-924241
-924494
-924590
-924739
-924848
-924983
-925278
-925363
-925460
-925653
-925795
-926126
-926190
-926211
-926374
-926637
-926784
-926995
-927100
-927126
-927287
-927342
-927458
-927632
-927714
-927753
-927958
-927935
-928007
-928112
-928370
-928430
-928482
-928274
-928516
-928740
-928866
-928884
-928953
-928981
-929173
-929326
-929443
-929536
-929574
-929565
-929857
-929897
-929986
-930044
-930239
-930463
-930444
-930498
-930600
-930749
-930850
-930838
-930717
-931030
-931266
-931445
-931414
-931532
-931723
-931868
-932010
-932108
-932295
-932337
-932653
-932775
-932878
-932939
-933031
-933179
-933292
-933354
-933530
-933685
-934393
-934155
-934095
-934167
-934194
-934399
-934528
-934622
-934678
-934755
-934971
-935141
-935275
-935320
-935323
-935559
-935634
-935502
-935420
-935462
-935413
-935626
-935685
-935739
-935891
-936006
-936083
-936157
-936308
-936443
-936537
-936750
-936690
-936785
-936997
-937248
-937203
-937383
-937426
-937573
-937690
-937712
-937779
-937867
-938042
-938233
-938143
-938592
-938472
-938553
-938664
-938650
-938701
-938753
-938972
-939129
-939126
-939325
-939336
-939396
-939578
-939622
-939610
-939315
-939583
-939659
-939604
-939552
-939434
-939451
-939236
-938990
-938763
-938516
-938245
-937874
-937281
-936954
-936477
-936037
-935504
-934917
-934362
-933992
-933309
-932721
-932035
-931491
-930985
-930512
-929926
-929363
-928511
-928175
-927694
-927274
-926715
-926247
-925841
-925419
-925115
-924662
-924437
-923992
-923716
-923461
-923268
-923035
-922803
-922340
-922425
-922253
-922070
-921943
-921910
-921667
-921556
-921487
-921380
-921401
-921233
-921176
-921052
-921185
-921159
-921131
-920990
-921033
-921088
-921055
-920987
-920965
-920871
-920921
-920910
-920666
-920685
-920650
-920671
-920562
-920415
-920318
-920364
-920434
-920385
-920205
-920056
-920061
-920070
-920061
-919786
-919829
-919611
-919737
-919642
-919490
-919403
-919183
-919213
-919134
-919009
-918966
-918795
-918889
-918909
-918633
-918529
-918559
-918625
-918427
-918283
-918198
-918174
-918229
-918175
-918187
-918163
-918112
-918271
-918075
-918156
-918174
-918113
-918051
-918267
-918202
-918393
-918461
-918555
-918716
-918612
-918740
-918843
-918989
-919089
-919271
-919351
-919432
-919570
-919847
-919933
-920119
-920246
-920481
-920631
-920746
-921429
-921390
-921611
-921801
-921880
-921858
-921947
-921939
-922111
-922147
-922205
-922085
-922119
-922214
-922162
-922125
-922087
-922079
-922301
-922310
-922122
-922123
-921996
-922013
-922020
-921871
-921880
-921925
-921956
-922013
-921912
-921893
-921738
-921610
-921426
-921464
-921438
-921542
-921462
-921335
-921333
-921341
-921349
-921352
-921345
-921211
-921202
-921260
-921225
-921217
-921349
-921291
-921286
-921481
-921272
-921347
-921420
-921481
-921570
-921628
-921621
-921659
-921627
-921838
-921669
-921678
-921839
-922006
-922046
-922109
-922212
-922263
-922456
-922475
-922611
-922663
-922783
-922982
-923115
-923229
-923432
-923366
-923547
-923774
-923909
-924011
-924085
-924181
-924320
-924280
-924398
-924514
-924587
-924610
-924651
-924681
-924849
-924942
-925044
-925151
-925125
-925221
-925215
-925351
-925331
-925499
-925533
-925600
-925641
-925669
-925842
-925898
-926142
-926272
-926111
-926235
-926262
-926449
-926581
-926735
-926915
-926903
-927069
-927095
-927126
-926942
-927366
-927548
-927716
-927676
-927907
-927851
-928165
-928273
-928260
-928280
-928382
-928632
-928766
-928669
-928680
-928849
-928951
-929064
-929101
-929105
-929163
-929451
-929586
-929631
-929728
-929749
-929878
-930005
-930014
-930237
-930279
-930476
-930640
-930733
-930902
-930945
-931096
-931172
-931294
-931375
-931467
-931762
-931789
-931807
-931897
-931959
-932227
-932292
-932377
-932441
-932586
-932700
-932745
-932896
-933011
-933025
-933172
-933330
-933275
-933390
-933449
-933600
-933817
-933791
-933827
-933968
-934107
-934057
-934177
-934254
-934487
-934473
-934465
-934652
-934554
-934681
-934703
-934725
-934861
-934766
-934979
-934978
-934900
-934814
-934829
-934896
-934899
-934948
-934894
-935076
-935035
-935031
-934897
-934589
-934784
-934924
-934828
-934826
-934710
-934572
-934582
-934639
-934401
-934326
-934197
-934156
-934087
-933991
-933934
-933824
-933742
-933686
-933512
-933482
-933626
-933718
-933875
-933976
-934074
-934355
-934571
-934595
-934586
-934608
-934670
-934890
-935083
-935032
-935102
-935172
-935383
-935580
-935422
-935534
-935457
-935516
-935610
-935525
-935437
-935374
-935440
-935243
-934930
-934846
-934585
-934533
-934248
-933816
-933524
-933183
-932783
-932525
-932074
-931708
-931416
-931221
-930968
-930256
-929948
-929992
-929859
-929597
-929286
-929005
-928802
-928234
-927835
-927157
-926496
-925944
-925555
-925119
-924543
-924031
-923742
-923463
-923005
-922494
-922239
-922004
-921832
-921697
-921364
-921252
-921181
-920909
-920836
-920592
-920494
-920432
-920459
-920400
-920078
-920069
-919812
-919805
-919907
-919742
-919710
-919641
-919685
-919651
-919452
-919313
-919279
-919405
-919477
-919276
-919333
-919297
-919271
-919248
-918949
-918970
-918803
-918775
-918694
-918493
-918406
-918056
-917929
-917729
-917387
-917161
-916804
-916646
-916266
-916020
-915837
-915590
-915383
-915276
-915035
-914905
-914629
-914614
-914326
-914164
-913953
-913863
-913728
-913640
-913560
-913313
-913208
-913062
-913002
-912744
-912624
-912496
-912432
-912235
-912147
-912037
-912078
-912037
-912151
-912213
-912343
-912463
-912596
-912758
-912799
-913104
-913122
-913359
-913549
-913590
-913713
-913854
-914165
-914372
-914357
-914501
-914506
-914894
-914993
-915109
-915279
-915388
-915679
-915657
-915687
-915989
-916000
-916151
-916351
-916336
-916365
-916495
-916568
-916746
-916873
-917021
-917082
-917268
-917289
-917363
-917382
-917561
-917537
-917696
-917732
-917690
-917837
-917881
-917898
-917826
-917920
-917855
-918089
-918062
-918014
-917992
-918048
-918127
-918082
-918074
-918152
-918186
-918182
-918277
-918159
-918124
-918235
-918942
-918479
-918397
-918382
-918427
-918440
-918517
-918481
-918588
-918578
-918567
-918606
-918727
-918879
-918986
-919112
-919075
-919102
-919126
-919251
-919390
-919481
-919483
-919430
-919525
-919836
-919815
-919813
-919780
-919884
-919922
-920068
-919996
-920150
-920124
-920270
-920195
-919831
-920046
-920021
-920147
-920238
-920178
-920202
-920207
-920368
-920408
-920340
-920477
-920453
-920648
-920788
-920886
-920870
-921106
-921215
-921375
-921474
-921686
-921764
-921897
-922029
-922013
-922208
-922375
-922572
-922471
-922533
-922357
-922669
-922737
-922874
-922796
-922973
-923108
-923194
-923313
-923345
-923392
-923482
-923720
-923791
-923827
-923895
-924033
-924190
-924198
-924269
-924344
-924534
-924685
-924729
-924777
-924708
-924895
-925156
-925304
-925384
-925419
-925259
-925534
-925414
-925615
-925780
-925884
-925954
-926021
-926040
-926115
-926159
-926291
-926429
-926618
-926750
-926792
-927098
-927132
-927088
-927077
-927224
-927261
-927376
-927363
-927460
-927536
-927752
-927713
-927686
-927894
-927912
-928056
-928182
-928149
-928193
-928436
-928587
-928698
-928809
-928854
-929004
-929207
-929235
-929179
-929300
-929442
-929511
-929682
-929766
-929793
-929838
-930044
-930106
-930085
-930047
-930294
-930307
-930370
-930398
-930508
-930649
-930799
-930772
-930781
-930820
-930966
-931264
-931213
-931313
-931283
-931476
-931631
-931691
-931714
-931898
-932013
-932209
-932168
-932269
-932348
-932424
-932460
-932453
-932533
-932503
-932789
-932783
-932954
-932819
-932969
-933008
-933261
-933241
-933298
-933251
-933484
-933526
-933594
-933569
-933603
-933669
-933859
-933948
-933938
-934080
-934234
-934419
-934415
-934531
-934558
-934711
-934789
-934966
-935034
-935067
-935117
-935223
-935250
-935374
-935396
-935473
-935608
-935628
-935739
-935831
-935973
-936073
-936176
-936166
-936287
-936426
-936547
-936595
-936545
-936719
-936856
-936906
-937100
-936878
-936897
-937015
-937258
-937250
-937419
-937510
-937602
-937808
-937953
-937996
-938008
-937970
-938234
-938336
-938432
-938505
-938681
-938957
-939003
-938876
-939014
-939005
-938978
-939082
-938927
-938848
-938648
-938600
-938250
-937834
-937591
-937080
-936606
-936126
-935705
-935021
-934498
-933921
-933489
-932782
-932180
-931689
-931124
-930484
-929872
-929160
-928723
-928127
-927536
-926927
-926368
-925736
-925430
-924982
-924386
-923847
-923418
-922902
-923141
-922220
-921686
-921485
-921062
-920809
-920390
-920177
-919975
-919921
-919690
-920078
-919649
-919373
-919157
-919042
-918835
-918760
-918928
-918866
-918880
-918701
-918821
-918806
-918835
-918768
-918666
-918593
-918792
-918859
-918936
-918864
-918775
-918852
-918871
-918893
-918939
-918845
-919012
-918975
-918943
-918790
-918725
-918736
-918887
-918805
-918765
-918778
-918697
-918752
-918684
-918530
-918570
-918481
-918436
-918440
-918286
-918208
-918202
-918092
-918112
-917985
-917929
-917907
-917924
-917745
-917595
-917509
-917578
-917479
-917403
-917437
-917382
-917379
-917481
-917450
-917532
-917545
-917553
-917656
-917783
-917749
-917734
-917763
-918034
-918204
-918303
-918365
-918421
-918485
-918708
-918753
-918871
