PPG
-970652
-970810
-971006
-971090
-971303
-971535
-971677
-971866
-972059
-972215
-972426
-972619
-972815
-973061
-973276
-973537
-973703
-973923
-974130
-973961
-974470
-974889
-975121
-975331
-975594
-975778
-976179
-976309
-976650
-976795
-976923
-977314
-977538
-977814
-978032
-978411
-978731
-978936
-979200
-979374
-979832
-979974
-980318
-980409
-980781
-981069
-981318
-981517
-981751
-982017
-982326
-982462
-982790
-982954
-983313
-983556
-983406
-983887
-984185
-984403
-984604
-984839
-985098
-985321
-985449
-985786
-986115
-986381
-986606
-986830
-987178
-987504
-987821
-988038
-988335
-988622
-988882
-989212
-989614
-989820
-990116
-990476
-990714
-990984
-991349
-991704
-991981
-992150
-992527
-992836
-993091
-993392
-993740
-993955
-994287
-994465
-994719
-994818
-995215
-995420
-995598
-995770
-995946
-996084
-996264
-996316
-996362
-996371
-996325
-995969
-996080
-995793
-995204
-995041
-994734
-994354
-993636
-992823
-992315
-991386
-990550
-989547
-988495
-987329
-986253
-985011
-983828
-982421
-981028
-979670
-978376
-976970
-975556
-974117
-972837
-971347
-969949
-968493
-967108
-965764
-963024
-961853
-960548
-959271
-958040
-957003
-955816
-954715
-953514
-952569
-951535
-950508
-949675
-948765
-947851
-947089
-946152
-945596
-944820
-944144
-943526
-942919
-942428
-941916
-941352
-940929
-940419
-940066
-939807
-939465
-939155
-938875
-938596
-938441
-938290
-938142
-938094
-937936
-937789
-937740
-937711
-937727
-937681
-937708
-937784
-937728
-937859
-937866
-937824
-937816
-938063
-938104
-938220
-938397
-938534
-938922
-939008
-939169
-939405
-939728
-939866
-940138
-940365
-940683
-940851
-941125
-941438
-941689
-941906
-942265
-942492
-943225
-943259
-943402
-943629
-943846
-944242
-944530
-944939
-945145
-945482
-945913
-946352
-946852
-947347
-947757
-948207
-948740
-949367
-949867
-950487
-950953
-951482
-951997
-952705
-953214
-953738
-954210
-954738
-955387
-955869
-956338
-956853
-957338
-957762
-958286
-958606
-959364
-959825
-960303
-960692
-961045
-961514
-961871
-962332
-962703
-963215
-963568
-963756
-964175
-964558
-964751
-965198
-965442
-965657
-965929
-966244
-966337
-966271
-966768
-966977
-967116
-967208
-967295
-967480
-967456
-967667
-967764
-967844
-967524
-967844
-968002
-968062
-968048
-968211
-968281
-968322
-968391
-968633
-968648
-968725
-968714
-968812
-968928
-969031
-968996
-969164
-969079
-969212
-969213
-969316
-969274
-969265
-969310
-969383
-969312
-969468
-969518
-969629
-969602
-969774
-969711
-969742
-969767
-969836
-969936
-970108
-970604
-970375
-970350
-970494
-970679
-970843
-970876
-971045
-971226
-971353
-971473
-971659
-971944
-972007
-972154
-972334
-972636
-972674
-972950
-973029
-973067
-973348
-973578
-973626
-973795
-973932
-974222
-974457
-974645
-974869
-975038
-975144
-975516
-975754
-975874
-976183
-976051
-976475
-976798
-977085
-977296
-977614
-977772
-978101
-978318
-978463
-978791
-979105
-979224
-979358
-979702
-979876
-980191
-980325
-980715
-980871
-981136
-981354
-981567
-981782
-981994
-982259
-982480
-982777
-983063
-983275
-983530
-983917
-984090
-984459
-984733
-984804
-985093
-985336
-986269
-986133
-986323
-986401
-986608
-986884
-987017
-987324
-987574
-987809
-987974
-988287
-988546
-988882
-989173
-989431
-989738
-990003
-990206
-990523
-990827
-991103
-991297
-991667
-991846
-992127
-992478
-992714
-992958
-993317
-993699
-994031
-994298
-994400
-994693
-994989
-995277
-995361
-995686
-995992
-996104
-996377
-996599
-996693
-996845
-997077
-997212
-997381
-997572
-997738
-997793
-997920
-998090
-998145
-998108
-998167
-998041
-997870
-997615
-997241
-996908
-996586
-996051
-995312
-994682
-993859
-993018
-992110
-990997
-989907
-988741
-987487
-986162
-984774
-983371
-981988
-980456
-978919
-977535
-975949
-974432
-972913
-971365
-969772
-967914
-966568
-965142
-963746
-962237
-960705
-959310
-957968
-956531
-955247
-953887
-952699
-951583
-950281
-949240
-948225
-947169
-945968
-945262
-944477
-943661
-942917
-941977
-941411
-940956
-940341
-939677
-939056
-938594
-938004
-937490
-937155
-936625
-936236
-935792
-935533
-935152
-934772
-934497
-934300
-934078
-933877
-933848
-933703
-933521
-933568
-933578
-933477
-933414
-933569
-933534
-933694
-933701
-933732
-933802
-933838
-933940
-933985
-934028
-934120
-934315
-934351
-934394
-934536
-934611
-934775
-934934
-934956
-935119
-935234
-935377
-935701
-935802
-936018
-936313
-936460
-936805
-936945
-937226
-937478
-937728
-938093
-938323
-938588
-938981
-939250
-939595
-939825
-940305
-940658
-941041
-941404
-941810
-942206
-942577
-943108
-943482
-944061
-944456
-944908
-945433
-945873
-946420
-946854
-947325
-947852
-948394
-948868
-949439
-949849
-950302
-950934
-951363
-951930
-952416
-952903
-953369
-953746
-954261
-954811
-955279
-956053
-957067
-957417
-957820
-958090
-958392
-958777
-959076
-959334
-959590
-959721
-960018
-960262
-960632
-960982
-961080
-961347
-961651
-961892
-961929
-962105
-962316
-962531
-962567
-962844
-962998
-963013
-963056
-963247
-963368
-963418
-963323
-963316
-963473
-963503
-963576
-963659
-963480
-963500
-963441
-963511
-963365
-963470
-963538
-963623
-963742
-963816
-963881
-963937
-964368
-964128
-964123
-964021
-964262
-964327
-964399
-964903
-964705
-964730
-964785
-964773
-964889
-964843
-965068
-965112
-965293
-965496
-965630
-965470
-965721
-965916
-966074
-966239
-966380
-966511
-966739
-966829
-967024
-967229
-967359
-967626
-967703
-968036
-968153
-968376
-968640
-968852
-969047
-969189
-969207
-969479
-969791
-969996
-970135
-970404
-970532
-970724
-971030
-971144
-971317
-971590
-971798
-972076
-972207
-972416
-972681
-972873
-973122
-973399
-973701
-973887
-974143
-974572
-974716
-974968
-975168
-975474
-975787
-975976
-976378
-976543
-976884
-977198
-977377
-977635
-977989
-978233
-978477
-978665
-978819
-979050
-979359
-979611
-979814
-980049
-980259
-980435
-980670
-980830
-981082
-981394
-981610
-981926
-982084
-982501
-982667
-982936
-983094
-983349
-983580
-983756
-984096
-984243
-984401
-984748
-985009
-985201
-985561
-985795
-986056
-986283
-986491
-986935
-987126
-987316
-987792
-987982
-988274
-988482
-988795
-988990
-989202
-989764
-989733
-989988
-990183
-990329
-990403
-990490
-990727
-990768
-990863
-991093
-991122
-991329
-991494
-991462
-991645
-991589
-991543
-991984
-991594
-991400
-991177
-990894
-990488
-989993
-989334
-988610
-987894
-987150
-986317
-985261
-984202
-983086
-981815
-980561
-979400
-977863
-976506
-975066
-973737
-972371
-970882
-969480
-968060
-966524
-965205
-963583
-962302
-960787
-959510
-957796
-956650
-955347
-954105
-952750
-951501
-950212
-948925
-946707
-945668
-944563
-943634
-942481
-941516
-940683
-939816
-939099
-938252
-937553
-936823
-936211
-935591
-935002
-934480
-933865
-933540
-933048
-932578
-932346
-931957
-931724
-931468
-931226
-931105
-930969
-930819
-930739
-930557
-930518
-930390
-930268
-930260
-930287
-930213
-930170
-930268
-930254
-930219
-930257
-930439
-930441
-930444
-930549
-930572
-930641
-930663
-930869
-930930
-931154
-931306
-931320
-931391
-931596
-931753
-931927
-932117
-932444
-932700
-933019
-933476
-933749
-934071
-934284
-934953
-935340
-935680
-936264
-936589
-937320
-937491
-937757
-938202
-938583
-938926
-939362
-939807
-940231
-940668
-941033
-941659
-942045
-942457
-942932
-943429
-943834
-944295
-944761
-945265
-945797
-946231
-946460
-947166
-947634
-948119
-948602
-949088
-949447
-949929
-950416
-950856
-951300
-951644
-951907
-952278
-952572
-953061
-953357
-953675
-954062
-954442
-954715
-955099
-955299
-955650
-956016
-956425
-956739
-957212
-957394
-957698
-957859
-957993
-958192
-958356
-958342
-958509
-958620
-958618
-958659
-958739
-958776
-958820
-958862
-958831
-958823
-958888
-958989
-959097
-958970
-959042
-959114
-959237
-959212
-959413
-959441
-959482
-959687
-959855
-959993
-960254
-960334
-960475
-960612
-960773
-960905
-961200
-961290
-961534
-961550
-961802
-961871
-961997
-962132
-962230
-962415
-962328
-962542
-962617
-962674
-963482
-963168
-963148
-963239
-963370
-963477
-963675
-963847
-963941
-964099
-964334
-964310
-964640
-964881
-965138
-965349
-965441
-965637
-966396
-966365
-966433
-966569
-966846
-967036
-967325
-967539
-967725
-967894
-968069
-968291
-968491
-968853
-969147
-969466
-969593
-969821
-970073
-970218
-970568
-970836
-971109
-971343
-971468
-971815
-972107
-972422
-972708
-972895
-973189
-973462
-973757
-973992
-974247
-974415
-974656
-975009
-975175
-975502
-976532
-975963
-976111
-976526
-976643
-976896
-977318
-977437
-978161
-978074
-978323
-978536
-978907
-979241
-979419
-979800
-980064
-980417
-980644
-980986
-981230
-981588
-981903
-982134
-982276
-982550
-982859
-983213
-983403
-983804
-984130
-984272
-984647
-984993
-985199
-985525
-985841
-986102
-986565
-987645
-987426
-987586
-987858
-988180
-989193
-988929
-989046
-989184
-989497
-989839
-990117
-990270
-990492
-990618
-990923
-991105
-991370
-991472
-991564
-991741
-991977
-992109
-992314
-992412
-992566
-992723
-992958
-993100
-993182
-993154
-993237
-993082
-993048
-992853
-992654
-992458
-991728
-991533
-990981
-990261
-989519
-988750
-987856
-986803
-985793
-984545
-983406
-982111
-980670
-979201
-977882
-976284
-974799
-973418
-971849
-970395
-968892
-967308
-964437
-962947
-961405
-959808
-958599
-957279
-956091
-954747
-953571
-952283
-951204
-949998
-948871
-947727
-946827
-945852
-944927
-944156
-943191
-942547
-941785
-940993
-940310
-939710
-938911
-938325
-937781
-937328
-936717
-936397
-936054
-935526
-935144
-934896
-934702
-934419
-934053
-933978
-933735
-933644
-933512
-933318
-933221
-933188
-933104
-933088
-933051
-933040
-933072
-933106
-933063
-933156
-933145
-933358
-933361
-933535
-934456
-934011
-933940
-933941
-934141
-934333
-934511
-934668
-934847
-934946
-935125
-935446
-935707
-935918
-936119
-936333
-936642
-936700
-937002
-937144
-937179
-937705
-937977
-938290
-938533
-939001
-939231
-939616
-939966
-940309
-940610
-940979
-941551
-941946
-942276
-942865
-943309
-943792
-944370
-944865
-945256
-945847
-946331
-946801
-947429
-948018
-948456
-948938
-949334
-949960
-950223
-950979
-951627
-952100
-952572
-953184
-953601
-954096
-954512
-954999
-955508
-955903
-956059
-956601
-957024
-957472
-957910
-958306
-958703
-959098
-959428
-959731
-960028
-960333
-960705
-961082
-961235
-961537
-961768
-962000
-962340
-962604
-962770
-962877
-963043
-963219
-963274
-963414
-963480
-963563
-963752
-963878
-963877
-963985
-963975
-963984
-964113
-964255
-964267
-964462
-964414
-964520
-964690
-964860
-964869
-964922
-965118
-965143
-965291
-965299
-965286
-965418
-965430
-965371
-965387
-965490
-965627
-965578
-965592
-965632
-965674
-965750
-965813
-965824
-965854
-965942
-966210
-966349
-966463
-966669
-966716
-966772
-966941
-967021
-967179
-967354
-967592
-967819
-968061
-968192
-968411
-968431
-968681
-968788
-969056
-969121
-969263
-969435
-969681
-969861
-970090
-970284
-970319
-970583
-970578
-970823
-971034
-971243
-971416
-971688
-971950
-972142
-972426
-972635
-972867
-973036
-974055
-974396
-974521
-974798
-974982
-975269
-975449
-975613
-975829
-976061
-976235
-976423
-976684
-976977
-977107
-977368
-977608
-977858
-978057
-978386
-978616
-978904
-979206
-979461
-979779
-979968
-980350
-980669
-980941
-981147
-981409
-981701
-981913
-982153
-983475
-983201
-983314
-983441
-983715
-983961
-984406
-984567
-984911
-985236
-985576
-985942
-987134
-986786
-986891
-987138
-987482
-987771
-988007
-988299
-988597
-988976
-989102
-989439
-989835
-990074
-990334
-990642
-990850
-991153
-991426
-991541
-991768
-992104
-992300
-992587
-992718
-992953
-992960
-993493
-993839
-993902
-994089
-994131
-994165
-994211
-994266
-994291
-994071
-994034
-993729
-993345
-993010
-992710
-992133
-991527
-990809
-989971
-989234
-988308
-987384
-986284
-985284
-984064
-982810
-981472
-980246
-978852
-977436
-975982
-974585
-973210
-971724
-970278
-968857
-967479
-965988
-964666
-963203
-961773
-960577
-959311
-958093
-956754
-955633
-954175
-953187
-952131
-951081
-950047
-949162
-948175
-947289
-946295
-945457
-944784
-944023
-943357
-942626
-942090
-941590
-941054
-940403
-940038
-939568
-939172
-938713
-938457
-938094
-937797
-937582
-937354
-937196
-937080
-937006
-936871
-936665
-936655
-936609
-936595
-936468
-936392
-936480
-936561
-936609
-936751
-936715
-936932
-936895
-937070
-937294
-937273
-937467
-937646
-937889
-938220
-938254
-938582
-938734
-938975
-939410
-939739
-939943
-940124
-940521
-940769
-941140
-941418
-941642
-942045
-942324
-942737
-942980
-943411
-944204
-944116
-944499
-944910
-945178
-945692
-945906
-946440
-946919
-947224
-947801
-948237
-948679
-949197
-949645
-950094
-950745
-951222
-951825
-952480
-952945
-953457
-954044
-954776
-955332
-955946
-956449
-957149
-957676
-958244
-958730
-959222
-959725
-960383
-960852
-961203
-961732
-962146
-962498
-962953
-963376
-963646
-963992
-964309
-964669
-964929
-965246
-965550
-965721
-966064
-966223
-966437
-966685
-966917
-967035
-967268
-967455
-967598
-967779
-967982
-967997
-968106
-968303
-968253
-968316
-968521
-968574
-968475
-968320
-968563
-968618
-968746
-968757
-968795
-969506
-968932
-968854
-968911
-968879
-968873
-969056
-969125
-969010
-969123
-969092
-969202
-969245
-969384
-969420
-969423
-969386
-969539
-969529
-969664
-969659
-969864
-969843
-969868
-969996
-970162
-970235
-970359
-970414
-970427
-970638
-970783
-970916
-970947
-971102
-971224
-971276
-971308
-971428
-971634
-971717
-971825
-972101
-972110
-972313
-972592
-972670
-972719
-972938
-973094
-973342
-973614
-973894
-974057
-974174
-974300
-974581
-974775
-975023
-975207
-975446
-975688
-975901
-976256
-976474
-976645
-977527
-977411
-977486
-977595
-977679
-977989
-978190
-978388
-978501
-978778
-978938
-979056
-979292
-979494
-979863
-980048
-980367
-980533
-980865
-981111
-980770
-981411
-981791
-982138
-982496
-982722
-983011
-983380
-983525
-983841
-984799
-984574
-984665
-984990
-985288
-985639
-985778
-986162
-986350
-986452
-986789
-987066
-987416
-987660
-987988
-988182
-988517
-988762
-989066
-989304
-989676
-989947
-990214
-990381
-990718
-991030
-991397
-991718
-992109
-992367
-992540
-992786
-993163
-993471
-993651
-993915
-994133
-994392
-995229
-995010
-995002
-995048
-995194
-995080
-995138
-995068
-995021
-994734
-994505
-994164
-993873
-993465
-992933
-992309
-991685
-990874
-990047
-989252
-988273
-986926
-986095
-985082
-983780
-982569
-981320
-979934
-978538
-977079
-975582
-974139
-972686
-971100
-969546
-968203
-966771
-965325
-963946
-962417
-961046
-959642
-958247
-957011
-956276
-954706
-953328
-952227
-950968
-949852
-948781
-947791
-946849
-945805
-944996
-944049
-943287
-942530
-941790
-941009
-940390
-939764
-939206
-938626
-938175
-937554
-937074
-936738
-936305
-935938
-935441
-935114
-934799
-934557
-934296
-934038
-933844
-933687
-933548
-933500
-933458
-933533
-933481
-933203
-933452
-933580
-933688
-933671
-933739
-933804
-933869
-934143
-934756
-934406
-934403
-934585
-934731
-934883
-934945
-935070
-935292
-935345
-935637
-935771
-935968
-936121
-936312
-936594
-936743
-937011
-937236
-937591
-937831
-938223
-938454
-938716
-938996
-939388
-939684
-940063
-940426
-940812
-942039
-941662
-941845
-942311
-942557
-943016
-943539
-943836
-944348
-944828
-945269
-945772
-946299
-946723
-947312
-947739
-948355
-948938
-949372
-949923
-950435
-951125
-951671
-952144
-952618
-953065
-953644
-954177
-954466
-955117
-955508
-955987
-956422
-956816
-957313
-957722
-958048
-958541
-958858
-959211
-959612
-960069
-960375
-960611
-961029
-961338
-961567
-961817
-962217
-962492
-962630
-962892
-963095
-963208
-963461
-963565
-963838
-964020
-964121
-964201
-964317
-964288
-964281
-964457
-964493
-964499
-964444
-964585
-964506
-964615
-964567
-964599
-964587
-964614
-964686
-964707
-964810
-964973
-964892
-965006
-965145
-965189
-965240
-965113
-965423
-965572
-965679
-965699
-965883
-965985
-966001
-966184
-966227
-966291
-966403
-966490
-966338
-966756
-966905
-966903
-967094
-967185
-967847
-967586
-967514
-967678
-967792
-967898
-967996
-968241
-968348
-968519
-968774
-968925
-969110
-969191
-969347
-969720
-969713
-969906
-970129
-970257
-970383
-970588
-970896
-971159
-971210
-971365
-971600
-971736
-971903
-972234
-972472
-972700
-972682
-973112
-973420
-973645
-973814
-973970
-974291
-974629
-974890
-975021
-975408
-975560
-975859
-976250
-976310
-976615
-976812
-977195
-977574
-977788
-978092
-978314
-978537
-978673
-978949
-979190
-979441
-979812
-979976
-980225
-980556
-980758
-981142
-981453
-981598
-981920
-982160
-982515
-982801
-983092
-983257
-983674
-983946
-984097
-984448
-984858
-985101
-985380
-985592
-986009
-986315
-986534
-986917
-987129
-987355
-987697
-987954
-988267
-988489
-988845
-988947
-989259
-989560
-989705
-989915
-990179
-990558
-990685
-990935
-991213
-991479
-991786
-991817
-992035
-992099
-992179
-992247
-992418
-992366
-992139
-991947
-991711
-991484
-991221
-990662
-990105
-989495
-988779
-987932
-987111
-986275
-985128
-984005
-982787
-981578
-980226
-979001
-977531
-976090
-974673
-973231
-971651
-970228
-968812
-967231
-965731
-964276
-962700
-961199
-959807
-958323
-957023
-955646
-954399
-952965
-951511
-950330
-949192
-948077
-946735
-945908
-944922
-943952
-943089
-942135
-941249
-940409
-939740
-938923
-938355
-937443
-936999
-936441
-935982
-935476
-934947
-934424
-934090
-933568
-933149
-932811
-932487
-932265
-931915
-931640
-931352
-931128
-930857
-930760
-930472
-931037
-930544
-930192
-930126
-929971
-930032
-929981
-930021
-930103
-930149
-930093
-930114
-930211
-930370
-930493
-930572
-930730
-930803
-930960
-931208
-931432
-931600
-931700
-931849
-932076
-932394
-932639
-932870
-932953
-933157
-933441
-933713
-933885
-934050
-934123
-934560
-934906
-935120
-935398
-935717
-936027
-936293
-936623
-936964
-937350
-937707
-937903
-938450
-938922
-939398
-939905
-940273
-940730
-941253
-941812
-942308
-942789
-943176
-943716
-944182
-944676
-945275
-945681
-946170
-946667
-947154
-947763
-948218
-948617
-949116
-949538
-950051
-950456
-950995
-951367
-951849
-952283
-952828
-953291
-953651
-953954
-954376
-954754
-955131
-955532
-955802
-956146
-956550
-956765
-957184
-957470
-957675
-958013
-958180
-958401
-958566
-958858
-958994
-959207
-959322
-959346
-959453
-959689
-959803
-959944
-960051
-960165
-960167
-960260
-960278
-960459
-960560
-960470
-960511
-960670
-960742
-960689
-960705
-960684
-960751
-960949
-960943
-960894
-961025
-961038
-961054
-961160
-961278
-961250
-961388
-961497
-961533
-961701
-961783
-961936
-961868
-961938
-962088
-962052
-962174
-962349
-962391
-962484
-962612
-962808
-962847
-962907
-962996
-963101
-963099
-963376
-963385
-963580
-963717
-963705
-963817
-963873
-964129
-964385
-964411
-964536
-964622
-964752
-964958
-965110
-965388
-965485
-965603
-965822
-965970
-966192
-966402
-966496
-966822
-966940
-966955
-967429
-967721
-967985
-968255
-968504
-968758
-968896
-969227
-969566
-969842
-970063
-970242
-970522
-970736
-970928
-971207
-971472
-971697
-971884
-972101
-972224
-972552
-972730
-972942
-973105
-973322
-973554
-973853
-974101
-974369
-974688
-975072
-975134
-975454
-975631
-975994
-976364
-976719
-976667
-977092
-977559
-977677
-978025
-978321
-978610
-978815
-979135
-979365
-979641
-979698
-980134
-980421
-980671
-981037
-981281
-981586
-981752
-981965
-982145
-982137
-982618
-983028
-983294
-983611
-983802
-984231
-984434
-984725
-984819
-985244
-985406
-985654
-985935
-986135
-986317
-986675
-986935
-987041
-987349
-987503
-987688
-987895
-988038
-988302
-988353
-988328
-988381
-988377
-988275
-988170
-988005
-987607
-986316
-985101
-984298
-983500
-982597
-981514
-980514
-979388
-978200
-976987
-975663
-974366
-973013
-971515
-970059
-968586
-967102
-965591
-964061
-962532
-961058
-959408
-958106
-956792
-955414
-954004
-952596
-951360
-950012
-943975
-942849
-932261
-928979
-927614
-927322
-927084
-926762
-926745
-926931
-926964
-927005
-927093
-927140
-927254
-927325
-927433
-927570
-927643
-927956
-928841
-928442
-928593
-928730
-928810
-928955
-929192
-929362
-929654
-929796
-929984
-930211
-930412
-930665
-930834
-931064
-931381
-931715
-931983
-932155
-932458
-932794
-933211
-933391
-933771
-934207
-934673
-935061
-935446
-935951
-936297
-936867
-937270
-937652
-938224
-938819
-939307
-939941
-940308
-940832
-941330
-941874
-942445
-942944
-943505
-943918
-944526
-945070
-945462
-945935
-946412
-946947
-948023
-948020
-948172
-948813
-949238
-949744
-950125
-950606
-951061
-951524
-951867
-952311
-952771
-953249
-953685
-953953
-954186
-954551
-954875
-955175
-955480
-955774
-956092
-956299
-956507
-956594
-956845
-957010
-957166
-957328
-957511
-957562
-957658
-957784
-957941
-957997
-957989
-958040
-958149
-958368
-958417
-958368
-958537
-958590
-958670
-958605
-958743
-958732
-958970
-959069
-958977
-959098
-959145
-959331
-959394
-959566
-959585
-959705
-959891
-959985
-960095
-960258
-960374
-960508
-960581
-960667
-960692
-960880
-960925
-961040
-961218
-961259
-961361
-961366
-961580
-961599
-961838
-961985
-962112
-962134
-962298
-962564
-962726
-962796
-963089
-963201
-963394
-963486
-963664
-963955
-964448
-964565
-964820
-965032
-965250
-965493
-965608
-965844
-966102
-966334
-966641
-966889
-967204
-967281
-967560
-967855
-968079
-968349
-968499
-968750
-969109
-969343
-969528
-969817
-970068
-970347
-970594
-970721
-970920
-971195
-971468
-971693
-971935
-972279
-972577
-972981
-973218
-973561
-973815
-974090
-974510
-974785
-975078
-975506
-975829
-976096
-976394
-976664
-976959
-977256
-977544
-977795
-978045
-978208
-978659
-978802
-979449
-980035
-980587
-980122
-980210
-980446
-980549
-980823
-981035
-981428
-981615
-981836
-982134
-982361
-982693
-983012
-983331
-983589
-983949
-984349
-984717
-985072
-985343
-985670
-985950
-986395
-986685
-986869
-987193
-987497
-987833
-988250
-988541
-988749
-989075
-989311
-989591
-989701
-990009
-990217
-990434
-990776
-990941
-991135
-991335
-991520
-991589
-991641
-991656
-991736
-991699
-991669
-991479
-991225
-990978
-990692
-990192
-989776
-989064
-988330
-988048
-987017
-985936
-984886
-983875
-982647
-981445
-980193
-978955
-977481
-976078
-974734
-973305
-971704
-970238
-968796
-967228
-965780
-964176
-962681
-961215
-959844
-958432
-957099
-955690
-954494
-953194
-951849
-950683
-949536
-948428
-947347
-946226
-945093
-944273
-943232
-942337
-941516
-940694
-939957
-939169
-938388
-937842
-937186
-936571
-935994
-935384
-934879
-934498
-934195
-933794
-933383
-933022
-932724
-932479
-932359
-932076
-931931
-931711
-931617
-931568
-931402
-931327
-931285
-931250
-931319
-931404
-931383
-931518
-931630
-931575
-931667
-931893
-931959
-932087
-932329
-932473
-932552
-932824
-932978
-933291
-933500
-933671
-933946
-934159
-934357
-934647
-934949
-935302
-935615
-935848
-936112
-936415
-936754
-937141
-937500
-938176
-938455
-938736
-939223
-939502
-940224
-940458
-941087
-941491
-942034
-942539
-943351
-943965
-944517
-944838
-945339
-945954
-946374
-946897
-947520
-947996
-948519
-949082
-949647
-950228
-950735
-951282
-951823
-952335
-952850
-953352
-953957
-954347
-954870
-955361
-955859
-956290
-956754
-957224
-957448
-957847
-958201
-958608
-958961
-959478
-959571
-959908
-960197
-960577
-960755
-960846
-961135
-961384
-961659
-961959
-962139
-962195
-962351
-962535
-962656
-962850
-962941
-963104
-963218
-963324
-963387
-963425
-963564
-963587
-963783
-963685
-963700
-963719
-963833
-963912
-963894
-964024
-963898
-963994
-964050
-964001
-964104
-964041
-964050
-964136
-964119
-964172
-964150
-964255
-964215
-964309
-964345
-964348
-964443
-964515
-964575
-964705
-964844
-964870
-964885
-965076
-965052
-965171
-965276
-965430
-965383
-965527
-965764
-965850
-965963
-966095
-966127
-966249
-966515
-966627
-966886
-966970
-967005
-967281
-967515
-967641
-967804
-968016
-968215
-968441
-968600
-968772
-969031
-969211
-969335
-969513
-969599
-969894
-969970
-970181
-970324
-970527
-970577
-970817
-971084
-971225
-971458
-971778
-971949
-972332
-972575
-972786
-973009
-973195
-973571
-973777
-974139
-974319
-974606
-974877
-975072
-975286
-975624
-975784
-975984
-976252
-976560
-976706
-976890
-977149
-977329
-977610
-977873
-978087
-978467
-978579
-978870
-979253
-979513
-979765
-979989
-980419
-980732
-981030
-981415
-981815
-981951
-982336
-982598
-983001
-983311
-983672
-983869
-984336
-984472
-984811
-985062
-985336
-985647
-985918
-986189
-986356
-986632
-986929
-987254
-987495
-987662
-987877
-988251
-988437
-988687
-988968
-989277
-989503
-989898
-990839
-990612
-990648
-990803
-990946
-991099
-991349
-991300
-991412
-991404
-991306
-991145
-990936
-990761
-990298
-989887
-989355
-988802
-988137
-987361
-986537
-985582
-984601
-983620
-982433
-981302
-980087
-978781
-977472
-976131
-974698
-973256
-971817
-970438
-969130
-967648
-966205
-964647
-963247
-961820
-960525
-959081
-957776
-956501
-955235
-954091
-952881
-951753
-950633
-949590
-948576
-947537
-946572
-945662
-944828
-943966
-943154
-942413
-941642
-940903
-940292
-939676
-939069
-938475
-937875
-937525
-937031
-936725
-936175
-935833
-935648
-935505
-935148
-934970
-934732
-934639
-934491
-934369
-934936
-934461
-934354
-934335
-934218
-934267
-934331
-934423
-934532
-934584
-934565
-934701
-934858
-934987
-935087
-935284
-935425
-935628
-935684
-935794
-935986
-936277
-936490
-936689
-936927
-937291
-937621
-937913
-938145
-938523
-938842
-939100
-939414
-939747
-940085
-940436
-940818
-941244
-941565
-941880
-942240
-942844
-943119
-943683
-944113
-944484
-944955
-946301
-946205
-946523
-947050
-947539
-948027
-948603
-949222
-949725
-950326
-951063
-951564
-952165
-952762
-953344
-953994
-954562
-954993
-955538
-956132
-956743
-957298
-957650
-958175
-958812
-959155
-959607
-960158
-960690
-961093
-961619
-962044
-962407
-962799
-963224
-963507
-963790
-964229
-964509
-964847
-965076
-965417
-965734
-965934
-966135
-966369
-966565
-966676
-966957
-967151
-967251
-967359
-967525
-967582
-967711
-967660
-967762
-967765
-967894
-967981
-968096
-968116
-968036
-968035
-968146
-968197
-968245
-968111
-968280
-968257
-968304
-968299
-968348
-968408
-968554
-968598
-968699
-968760
-968906
-968933
-969194
-969083
-969151
-969155
-969178
-969318
-969436
-969431
-969287
-969535
-969567
-969633
-969725
-969828
-969972
-970234
-970638
-970853
-970936
-971222
-971379
-971569
-971635
-971873
-972046
-972157
-972410
-972641
-972787
-972681
-973080
-973238
-973586
-973729
-973986
-974215
-974380
-974526
-974831
-974956
-975253
-975476
-975578
-975848
-975940
-976130
-976363
-976658
-976822
-977108
-977413
-977647
-977811
-978126
-978251
-978624
-978885
-979200
-979438
-979784
-979979
-980231
-980618
-980767
-981022
-981362
-981651
-981829
-982241
-982477
-982702
-982917
-983167
-983383
-983694
-983929
-984167
-984394
-984676
-984899
-985188
-985437
-985721
-986038
-986162
-986520
-986884
-987083
-987279
-987604
-988427
-988389
-988692
-988898
-989220
-989547
-989767
-990021
-990431
-990687
-990995
-991289
-991674
-991847
-992112
-992464
-992713
-992928
-993195
-993579
-993716
-994079
-994228
-994632
-994880
-994994
-995296
-995479
-995716
-995812
-995955
-996046
-996165
-996213
-996305
-996220
-996292
-996159
-995987
-995670
-995258
-994804
-994248
-993652
-992947
-992197
-991376
-990360
-989383
-988309
-987107
-985794
-984361
-983048
-981586
-980018
-978600
-977144
-975463
-973928
-972342
-970674
-969215
-967497
-965972
-964459
-962867
-961302
-959888
-958480
-957095
-955599
-954301
-953054
-951846
-950504
-949416
-948203
-947056
-946078
-945420
-944131
-943082
-942246
-941413
-940636
-939804
-939076
-938370
-937755
-937244
-936618
-936093
-935618
-935142
-934799
-934347
-934055
-933630
-933352
-933127
-932851
-932520
-932315
-932067
-932042
-931899
-931684
-931606
-931488
-931439
-931342
-931256
-931300
-931336
-931353
-931435
-931447
-931445
-931544
-931761
-931777
-931894
-931910
-932221
-932350
-932511
-932662
-932837
-933012
-933258
-933525
-933765
-933951
-934224
-934381
-934564
-934789
-935131
-935344
-935503
-935781
-936104
-936264
-936704
-936867
-937217
-937475
-937863
-938073
-938341
-938812
-939094
-939416
-939717
-940143
-940473
-941023
-941359
-941807
-942304
-943470
-943478
-943802
-944213
-944757
-945280
-945758
-946328
-946845
-947459
-947980
-948425
-948989
-949470
-949793
-950505
-951081
-951684
-952142
-952559
-953005
-953522
-953985
-954502
-954940
-955292
-955661
-956078
-956402
-956719
-957128
-957474
-957740
-958018
-958394
-958411
-958727
-959008
-959351
-959550
-959830
-960047
-960222
-960383
-960657
-960818
-960953
-961193
-961316
-961442
-961517
-961652
-961732
-961747
-961977
-962080
-962163
-962183
-962208
-962433
-962535
-962649
-962695
-962737
-962839
-962873
-962970
-963199
-963148
-963103
-963169
-963174
-963247
-963317
-963354
-963292
-963310
-963455
-963377
-963539
-963600
-963615
-963664
-963895
-964016
-964024
-964054
-964214
-964309
-964434
-964453
-964481
-964697
-964865
-964996
-965018
-965136
-965381
-965438
-965526
-965624
-965813
-966007
-966058
-966284
-966317
-966500
-966619
-966877
-967836
-967479
-967497
-967652
-967976
-968028
-968246
-968373
-968575
-968874
-969937
-969646
-969739
-969987
-970134
-970341
-970554
-970918
-971123
-971303
-971637
-971897
-972174
-972349
-972594
-972533
-972963
-973360
-973535
-973871
-974121
-974264
-974668
-974823
-975011
-975413
-975586
-975917
-976174
-976479
-976750
-976842
-977143
-977324
-977653
-977888
-978194
-978598
-978859
-979169
-979450
-979747
-979985
-980245
-980508
-980830
-981070
-981377
-982318
-982077
-982183
-982530
-982788
-983128
-983299
-983604
-983835
-984160
-984371
-984753
-984995
-985275
-985512
-985883
-986144
-986529
-986782
-987080
-987265
-987601
-987728
-988151
-988577
-988925
-989160
-989367
-989565
-989797
-990081
-990399
-990654
-990845
-990992
-991021
-991143
-991072
-991520
-991170
-990945
-990738
-990457
-990007
-989677
-989071
-988518
-987978
-987238
-986492
-985487
-984540
-983570
-982410
-981316
-980054
-978709
-977437
-975940
-974667
-973138
-971813
-970333
-968819
-967279
-965756
-964177
-962681
-961140
-959714
-958188
-956640
-955273
-953892
-952424
-951047
-949784
-948580
-947327
-946075
-944925
-943837
-942805
-941760
-940823
-939819
-938937
-938597
-937486
-936572
-935839
-935189
-934565
-933904
-933309
-932679
-932329
-931803
-931348
-930958
-930501
-930250
-930077
-929747
-929533
-929271
-929008
-928879
-928714
-928494
-928431
-928464
-928346
-928188
-928126
-928142
-928032
-928133
-928006
-928056
-928203
-928254
-928354
-928407
-928493
-928651
-928809
-928660
-929005
-929141
-929279
-929526
-929530
-929750
-929904
-930198
-930288
-930574
-930755
-930992
-931256
-931466
-931753
-931956
-933827
-934110
-934429
-934689
-934990
-935424
-935700
-936046
-936496
-936977
-937349
-937796
-938257
-938764
-939222
-939761
-940767
-940993
-941365
-941975
-942479
-943007
-943510
-943880
-944429
-945146
-945760
-946215
-946779
-947266
-947798
-948202
-948752
-948952
-949598
-950178
-950579
-951041
-951451
-951908
-952354
-952662
-953003
-953410
-953747
-953972
-954349
-954606
-954921
-955206
-955466
-955763
-955969
-956209
-956510
-956657
-956920
-957241
-957458
-957553
-957720
-957959
-958118
-958231
-958260
-958404
-958549
-958658
-958754
-958840
-958844
-958986
-958970
-959024
-959017
-959276
-959206
-959170
-959330
-959345
-959315
-959351
-959505
-959472
-959425
-959445
-959606
-959626
-959717
-959648
-959670
-959725
-959774
-959860
-959908
-959989
-960066
-960091
-960160
-960243
-960423
-960478
-960537
-960552
-960730
-960870
-960967
-961064
-961156
-961247
-961310
-961555
-961530
-961782
-961834
-962038
-962137
-962242
-962480
-962635
-962689
-962927
-963039
-963239
-964151
-963754
-963794
-964051
-964142
-964497
-964680
-964850
-965113
-965296
-965495
-965727
-965989
-966015
-966327
-966613
-966897
-967097
-967315
-967514
-967803
-968066
-968204
-968310
-968618
-968780
-969035
-969265
-969534
-969655
-969978
-970199
-970536
-970750
-970995
-971265
-971389
-971754
-972058
-972338
-972573
-972798
-973052
-973373
-974077
-974053
-974340
-974593
-974817
-975087
-975311
-975597
-975763
-976104
-976508
-976637
-976769
-977079
-977139
-977578
-977891
-978083
-978340
-978626
-978896
-979218
-979492
-979698
-979914
-980191
-980487
-980694
-981073
-981306
-981698
-982007
-982340
-982607
-982965
-983200
-983449
-983691
-984051
-984172
-984550
-984691
-985045
-985364
-985509
-985780
-986106
-986320
-986426
-986702
-986936
-987198
-987410
-987482
-987670
-987867
-988021
-988076
-987988
-988038
-987978
-987898
-987575
-987342
-987032
-986733
-986645
-985715
-984923
-984173
-983403
-982439
-981378
-980367
-979238
-978104
-976766
-975511
-974024
-972694
-971252
-969663
-968064
-966573
-964993
-963469
-961983
-960480
-958980
-957406
-956035
-954635
-953120
-951733
-950494
-949071
-947666
-946450
-945427
-944317
-942839
-941911
-941044
-940088
-939168
-938274
-937336
-936476
-935770
-934888
-934318
-933632
-932966
-932371
-931808
-931448
-930859
-930474
-930149
-929769
-929377
-928980
-928731
-928447
-928204
-927715
-927630
-927472
-927440
-927284
-927185
-927136
-927068
-926983
-926977
-927035
-926979
-926959
-926988
-927099
-927292
-927412
-927510
-927563
-927747
-927822
-927837
-928034
-928213
-928380
-928515
-928776
-929107
-929319
-929552
-929662
-929975
-930090
-930522
-930677
-930916
-931207
-932245
-931779
-932006
-932282
-932505
-932876
-933159
-933387
-933714
-933921
-934360
-934778
-935166
-935264
-935882
-936359
-936561
-937177
-937686
-938232
-938642
-939219
-939631
-940120
-940615
-941144
-941626
-942295
-942840
-943342
-943854
-944472
-945030
-945444
-946003
-947407
-947338
-947639
-948143
-948627
-949003
-949526
-950041
-950422
-950990
-951368
-951784
-952251
-952716
-953135
-953636
-953984
-954316
-954778
-954827
-955415
-955796
-956035
-956252
-956579
-956907
-957152
-957294
-957605
-957831
-957911
-958033
-958199
-958352
-958472
-958735
-958906
-959008
-959190
-959261
-959311
-959455
-959595
-959725
-959753
-959946
-960046
-959938
-960023
-960142
-960187
-960244
-960375
-960458
-960516
-960300
-960568
-960702
-960665
-960739
-960818
-960937
-961033
-960929
-961088
-961302
-961273
-961365
-961437
-961537
-961681
-961767
-961835
-961952
-962064
-962265
-962325
-962529
-962590
-962741
-962840
-963063
-963152
-963250
-963428
-963585
-963775
-963986
-964118
-964189
-964365
-964503
-964743
-964937
-965153
-965253
-965628
-965807
-965990
-966147
-966459
-966703
-966936
-967141
-967468
-967589
-967764
-968090
-968318
-968548
-968754
-969071
-969277
-969536
-969805
-970116
-970408
-970627
-970834
-971037
-971417
-971593
-971931
-972181
-972260
-972615
-972899
-973085
-973466
-973604
-973923
-974127
-974493
-974692
-974932
-974944
-975297
-975765
-976058
-976248
-976503
-976791
-977095
-977357
-977749
-977933
-978215
-978505
-978709
-979001
-979417
-979752
-979978
-980280
-980526
-980723
-981006
-980886
-981241
-981719
-982061
-982347
-982517
-982873
-983213
-983509
-983739
-984035
-984241
-984509
-984844
-985208
-985448
-985902
-986267
-986527
-986747
-987143
-988216
-988392
-987990
-989307
-989632
-989272
-989399
-989667
-989817
-990075
-990376
-990679
-990955
-991185
-991577
-992519
-992262
-992448
-992526
-992796
-993097
-993322
-993549
-993725
-993935
-994114
-994262
-994364
-994359
-994385
-994378
-994244
-994012
-993806
-993495
-992976
-992572
-991867
-991278
-990543
-989718
-988621
-987684
-986667
-985549
-984342
-983001
-981702
-980195
-978856
-977406
-975572
-974230
-972802
-971346
-969628
-967997
-966600
-965118
-963510
-962014
-960652
-959141
-957714
-956274
-955008
-953740
-952392
-951151
-950112
-948986
-947850
-946771
-945687
-944709
-943801
-942856
-942089
-941214
-940478
-939800
-939208
-938586
-937858
-937285
-936732
-936429
-935948
-935519
-935033
-934717
-934440
-934088
-933886
-933715
-933483
-933339
-933117
-933018
-932984
-932826
-932842
-932849
-932676
-932770
-932795
-932866
-932893
-933047
-933116
-933269
-933376
-933642
-933720
-933856
-934071
-934232
-934439
-934499
-934702
-934935
-935084
-935263
-935436
-935690
-935910
-936149
-936395
-936528
-936792
-937087
-937406
-937748
-937965
-938329
-938673
-938853
-939241
-939644
-940101
-940512
-940874
-941321
-941693
-942215
-942707
-943101
-943509
-944005
-944444
-944984
-945494
-946061
-946682
-947110
-947678
-948106
-948630
-949246
-949675
-950153
-950825
-951176
-951873
-952492
-952926
-953440
-953944
-954445
-954917
-955483
-955945
-956421
-956794
-957268
-957692
-958127
-958507
-958916
-959205
-959612
-960059
-960436
-960791
-961016
-961190
-961400
-961756
-961986
-962123
-962458
-962592
-962825
-963385
-963287
-963275
-963305
-963390
-963651
-964427
-964071
-963959
-964031
-964128
-964216
-964236
-964298
-964280
-964304
-964368
-964308
-964398
-964124
-964427
-964501
-964398
-964429
-964421
-964581
-964634
-964764
-964432
-964630
-964749
-964948
-964988
-964984
-965018
-965077
-965178
-965646
-965432
-965452
-965513
-965641
-965727
-965681
-965767
-965926
-965985
-966070
-966243
-966315
-966240
-966531
-966468
-966732
-966859
-967026
-967134
-967196
-967422
-967488
-967635
-967793
-968018
-968160
-968251
-968584
-968715
-968946
-969104
-969351
-969557
-969761
-969947
-970170
-970270
-970440
-970721
-971000
-971133
-971507
-971733
-972008
-972133
-972430
-972672
-972909
-973076
-973344
-973478
-973903
-974000
-974300
-974619
-974802
-975058
-975352
-975439
-975625
-975986
-976192
-976420
-976591
-977001
-977244
-977480
-977842
-978062
-978375
-978715
-979020
-979271
-979566
-979868
-980160
-980321
-980613
-980896
-981272
-981583
-981880
-982145
-982312
-982466
-982811
-983012
-983294
-983539
-983769
-984131
-984267
-984653
-984910
-985266
-985545
-985846
-986179
-986528
-986766
-987135
-987365
-987657
-988052
-988481
-988734
-989178
-989440
-989656
-989682
-990027
-990448
-990680
-990982
-991246
-991506
-991634
-991877
-992031
-992223
-992364
-992469
-992513
-992641
-992697
-992610
-992486
-992346
-992173
-992045
-991813
-991322
-990797
-990351
-989693
-988938
-988231
-987377
-986367
-985435
-984253
-983124
-981897
-980554
-979195
-977843
-976323
-974929
-973070
-971869
-970355
-968966
-967382
-965937
-964353
-962934
-961117
-959878
-958541
-957190
-955928
-954739
-953460
-952314
-951104
-949899
-948766
-947766
-946818
-945855
-944820
-944021
-942963
-942221
-941386
-940591
-939898
-939169
-938548
-938037
-937420
-936770
-936289
-935959
-935463
-935014
-934652
-934257
-933859
-933698
-933444
-933265
-933125
-932858
-932794
-932650
-932535
-932487
-932564
-932600
-932570
-932729
-932706
-932716
-932806
-932950
-933053
-933058
-933212
-933345
-933580
-933824
-933918
-934039
-934294
-934452
-934573
-934885
-934780
-935091
-935391
-936107
-936131
-936358
-936589
-936726
-937131
-937401
-937717
-938010
-938326
-938755
-939112
-939484
-939709
-940171
-940540
-940940
-941359
-941684
-942099
-942661
-943015
-943386
-943937
-944433
-944855
-945323
-945896
-946518
-946972
-947534
-947897
-948530
-949120
-949749
-950255
-950824
-951362
-951848
-952366
-953107
-953535
-954215
-954692
-955030
-955645
-956155
-956598
-957134
-957625
-957951
-958395
-958852
-959171
-959534
-960564
-960435
-960664
-960968
-961405
-961520
-961967
-962185
-962500
-962810
-962983
-963317
-963556
-963838
-963980
-964139
-964364
-964634
-964654
-964827
-964910
-964999
-965154
-965336
-965278
-965280
-965341
-965417
-965261
-965540
-965623
-965674
-965835
-965942
-966008
-966056
-966098
-966187
-966217
-966156
-966249
-966486
-966404
-966454
-966599
-966633
-966667
-966774
-966796
-966788
-966812
-966925
-966950
-967036
-967091
-967305
-967326
-967327
-967347
-967492
-967563
-967700
-967668
-967812
-967841
-968041
-968090
-968097
-968359
-968467
-968643
-968710
-968896
-969050
-969198
-969406
-969518
-969767
-969995
-970160
-970335
-970550
-970720
-971007
-971098
-971354
-971516
-971733
-971923
-972104
-972299
-972570
-972872
-973003
-973263
-973564
-973774
-974000
-974290
-974442
-974685
-974920
-975214
-975465
-975708
-975926
-976101
-976430
-976738
-976954
-977299
-977505
-977838
-978222
-978406
-978548
-978902
-979180
-979453
-979686
-979846
-980193
-980392
-980748
-981005
-981342
-981478
-981740
-982091
-982367
-982582
-982979
-983135
-983449
-983711
-984072
-984324
-984541
-984848
-985024
-985380
-985897
-986726
-987008
-987316
-987550
-987749
-988063
-988341
-988688
-988946
-989091
-989486
-989815
-989956
-990298
-990644
-990943
-991259
-991509
-991775
-992107
-992283
-992631
-992936
-993133
-993367
-993696
-993822
-994052
-994372
-994614
-994859
-994937
-994996
-995181
-995282
-995370
-995241
-995157
-995038
-994770
-994474
-994137
-993644
-993108
-992517
-991782
-990821
-989992
-988901
-987906
-986678
-985484
-984209
-982858
-981270
-979834
-978259
-976747
-975306
-973718
-972053
-970460
-968798
-967232
-965590
-963991
-962336
-960802
-959385
-957918
-956276
-954955
-953542
-952239
-950810
-949568
-948243
-947122
-946009
-944763
-943749
-942688
-941758
-940731
-939867
-939111
-938319
-937492
-936741
-936106
-935477
-934951
-934372
-933824
-933199
-932913
-932305
-931941
-931612
-931312
-930965
-930725
-930490
-930179
-929997
-929765
-929620
-929534
-929332
-929309
-929319
-929196
-929079
-929048
-929132
-929039
-929148
-929175
-929265
-929243
-929343
-929447
-929631
-929800
-929889
-930045
-930253
-930352
-930460
-930630
-930915
-931067
-931309
-931528
-931743
-931888
-932127
-932365
-932529
-932814
-933099
-933346
-933579
-933813
-933946
-934351
-934628
-934906
-935111
-935418
-935677
-936109
-936485
-936819
-937256
-937643
-938174
-938494
-938993
-939397
-939921
-940425
-940858
-941375
-942035
-942554
-943056
-943468
-944002
-944556
-945103
-945529
-946111
-946674
-947122
-947685
-948134
-948539
-949105
-949528
-950011
-950514
-950982
-951508
-951925
-952326
-952521
-953097
-953540
-954023
-954385
-955591
-955440
-955596
-955977
-956109
-956394
-956728
-956923
-957294
-957475
-957707
-957985
-958224
-958426
-958610
-958682
-958807
-959039
-959173
-959364
-959469
-959629
-959708
-959892
-959941
-960059
-960079
-960048
-960235
-960264
-960299
-960340
-960366
-960284
-960329
-960367
-960377
-960207
-960438
-960496
-961002
-960688
-960633
-960804
-960857
-960899
-960986
-960972
-961001
-961154
-961143
-961206
-961287
-961318
-961288
-961532
-962172
-961913
-962237
-962541
-962162
-962057
-962123
-962351
-962464
-962639
-962694
-962832
-962937
-963038
-963152
-963420
-963466
-963627
-963761
-963935
-964165
-964285
-964552
-964740
-964862
-965101
-965279
-965459
-965745
-965859
-966044
-966293
-966501
-966831
-966984
-967107
-967367
-967699
-967844
-967819
-968293
-968357
-968745
-968908
-969128
-969324
-969648
-969911
-970118
-970272
-970580
-970815
-971105
-971293
-971444
-971731
-972022
-972187
-972498
-972692
-972973
-973181
-973563
-973879
-974030
-974280
-974723
-975111
-975483
-975726
-976003
-976318
-976568
-977030
-977207
-977566
-977803
-978075
-978384
-978398
-978408
-978888
-979368
-979583
-979988
-980301
-980477
-980794
-981053
-981313
-981614
-981983
-982290
-982597
-982937
-983184
-983527
-983710
-984069
-984284
-984615
-984884
-985124
-985387
-985676
-985886
-986050
-986391
-986548
-986823
-987122
-987401
-987591
-987855
-988069
-988210
-988539
-988734
-988836
-988998
-989178
-989273
-989399
-989418
-989359
-989335
-989118
-988880
-988581
-988181
-987605
-987087
-986328
-985693
-984752
-983797
-983000
-981838
-980796
-979568
-978179
-976848
-975358
-973949
-972362
-970844
-969288
-967670
-966723
-964651
-962923
-961251
-959738
-958226
-956633
-955241
-953769
-952409
-951069
-949704
-948339
-947152
-945985
-944757
-943616
-942526
-941411
-940463
-939458
-938512
-937670
-936796
-935917
-934934
-934262
-933640
-933023
-932409
-931702
-931227
-930601
-930132
-929714
-929299
-928896
-928606
-928300
-927963
-927682
-927391
-927102
-926899
-926667
-926551
-926229
-926138
-926028
-925928
-925932
-925984
-925873
-925993
-926034
-926077
-926039
-926155
-926222
-926157
-926360
-926436
-926592
-926589
-926698
-926872
-927115
-927103
-927257
-927594
-927833
-927979
-928171
-928304
-928491
-928677
-929029
-929337
-929494
-929838
-930201
-930442
-930782
-931038
-931297
-931601
-931909
-932374
-932606
-933086
-933445
-933856
-934230
-934715
-935049
-935595
-936087
-936372
-936909
-937416
-938000
-938442
-938942
-939518
-939993
-940506
-940916
-941464
-941998
-942553
-943091
-943693
-944115
-944725
-945187
-945652
-946176
-946673
-947221
-947759
-948204
-948729
-949290
-949751
-950120
-950623
-951016
-951550
-951859
-952307
-952539
-953029
-953410
-953783
-954078
-954337
-954617
-954894
-955124
-955259
-955468
-955680
-955926
-956056
-956260
-956406
-956515
-956582
-956783
-956785
-957578
-957291
-957212
-957268
-957453
-957550
-957490
-957612
-957742
-957716
-957826
-957892
-957959
-958012
-957996
-958093
-958086
-958261
-958238
-958347
-958355
-958392
-958487
-958512
-958509
-958524
-958741
-958684
-958770
-958872
-958965
-958988
-959053
-959227
-959228
-959331
-959524
-959659
-959724
-959677
-959838
-960041
-960094
-960171
-960401
-960432
-960615
-960849
-960983
-961236
-962301
-961794
-961763
-961973
-962048
-962310
-962559
-963643
-963920
-964239
-964482
-964750
-964903
-965192
-965424
-965626
-965880
-966062
-966285
-966673
-966843
-967131
-967419
-967621
-967915
-967932
-968326
-968546
-968925
-969121
-969213
-970635
-970141
-970313
-970530
-970799
-971035
-971325
-971509
-971909
-972082
-972519
-972690
-973070
-973309
-973544
-973964
-974282
-974503
-974823
-975141
-975403
-975588
-975834
-976140
-976294
-976523
-976816
-977135
-977430
-977657
-978030
-978292
-978660
-978812
-979174
-979336
-979664
-980016
-980367
-980669
-980920
-981111
-981514
-981819
-982220
-982365
-982778
-983063
-983404
-983675
-983992
-984324
-984686
-984910
-985217
-985484
-985850
-986213
-986434
-986806
-987020
-987322
-987637
-987828
-987977
-988408
-988588
-988912
-989065
-989330
-989455
-989576
-989846
-989889
-990039
-990047
-990090
-989976
-989778
-989656
-989319
-988928
-988645
-988188
-987581
-986920
-986231
-985428
-984480
-983541
-982419
-981310
-980023
-978782
-977481
-976147
-974691
-973221
-971676
-970115
-968520
-967065
-965587
-963942
-962343
-960903
-959300
-957852
-956392
-954910
-953636
-952167
-950834
-950355
-948508
-947198
-945993
-944864
-943699
-942637
-941534
-940684
-939641
-938683
-937896
-937149
-936416
-935622
-934889
-934265
-933597
-933072
-932568
-932000
-931614
-931178
-930934
-930532
-930261
-929867
-929626
-929464
-929248
-929022
-928922
-928729
-928580
-928487
-928345
-928258
-928392
-928314
-928332
-928383
-928353
-928463
-928624
-928684
-928859
-929020
-929040
-929249
-929408
-929515
-929773
-929832
-929997
-930233
-930404
-930562
-930769
-930974
-931100
-931451
-931720
-931772
-932134
-932321
-932612
-932809
-933131
-933525
-933664
-933998
-934372
-934636
-934881
-935354
-935650
-936073
-936369
-936792
-937254
-937627
-937996
-938455
-938938
-939310
-939855
-940438
-940899
-941412
-941904
-942416
-942984
-943479
-943915
-944486
-945051
-945564
-946102
-946624
-947082
-947659
-948172
-948811
-949272
-949723
-950216
-950770
-951288
-951750
-952253
-952572
-953035
-953505
-953935
-954231
-954631
-954856
-955194
-955615
-955906
-956157
-956446
-956607
-956798
-957039
-957220
-957429
-957618
-957893
-957976
-958142
-958255
-958414
-958704
-958711
-958899
-959046
-959059
-959227
-959143
-959439
-959460
-959581
-959698
-959641
-959629
-959754
-959728
-959763
-959736
-959830
-959847
-959996
-959914
-960027
-960094
-960063
-960147
-960215
-960214
-960280
-960329
-960421
-960476
-960526
-960674
-960735
-960829
-960875
-961126
-961325
-961178
-961268
-961219
-961361
-961455
-961759
-961830
-962095
-962203
-962258
-962303
-962293
-962367
-962394
-962402
-962415
-962620
-962676
-962847
-963098
-963297
-963536
-963853
-964152
-964378
-964493
-964787
-965090
-965299
-965500
-965752
-966016
-966275
-966601
-966929
-967165
-967488
-968333
-968204
-968478
-968645
-968895
-969147
-969378
-969588
-969900
-970047
-970178
-970490
-970614
-970781
-970775
-971013
-971011
-971118
-971335
-971488
-971595
-971681
-971803
-971955
-971980
-972014
-972234
-972394
-972550
-972735
-973087
-973128
-973354
-973663
-973940
-974238
-974411
-974691
-974988
-975358
-975766
-976040
-976437
-976705
-976991
-977517
-977808
-978214
-978604
-978907
-979233
-979595
-979909
-979945
-980446
-980759
-980998
-981107
-981265
-981494
-981649
-981847
-982141
-982388
-982421
-982399
-982709
-982891
-983073
-983168
-983337
-983543
-983813
-984068
-984267
-984448
-984596
-984738
-984665
-984920
-985092
-985154
-985174
-985101
-984953
-984888
-984583
-984241
-983980
-983490
-982869
-982237
-981534
-980788
-979950
-979057
-977994
-976920
-975721
-974437
-973252
-971928
-970618
-968969
-967697
-966343
-964861
-963219
-961790
-960358
-958918
-957491
-956102
-954746
-953426
-951956
-950777
-949421
-948350
-947209
-946137
-944928
-943903
-942986
-942074
-941020
-940124
-939879
-938653
-937897
-937067
-936365
-935634
-934953
-934378
-933879
-933178
-932609
-932275
-931699
-931357
-930899
-930549
-930220
-929952
-929636
-929317
-929010
-928873
-928741
-928456
-928298
-928342
-928365
-928286
-928211
-928219
-928139
-928237
-928343
-928367
-928390
-928428
-928592
-928668
-928850
-929118
-929279
-929434
-929470
-929712
-929928
-930077
-930421
-930632
-930781
-931112
-931365
-931576
-931936
-932129
-932407
-932730
-933052
-933337
-933667
-934024
-934288
-934602
-935034
-935476
-935883
-936221
-936396
-937057
-937508
-937894
-938364
-938919
-939419
-939929
-940521
-941127
-941753
-942262
-942757
-943291
-943819
-944369
-944875
-945520
-945964
-946525
-947027
-947468
-948001
-948460
-949131
-949662
-950197
-950787
-951319
-951891
-952441
-952988
-953446
-953890
-954285
-954733
-955006
-955422
-955884
-956227
-956370
-956715
-957058
-957311
-957567
-957798
-958065
-958191
-958319
-958603
-958731
-958944
-959187
-959298
-959418
-959541
-959784
-959771
-959966
-960070
-960209
-960322
-960380
-960480
-960538
-960692
-960676
-960671
-960738
-960776
-960777
-960884
-961019
-961089
-960977
-961069
-961088
-961116
-961199
-961224
-961280
-961225
-961305
-961335
-961429
-961512
-961458
-961636
-961595
-961698
-961751
-961833
-961952
-962030
-961978
-962197
-962331
-962368
-962399
-962529
-962683
-962802
-962941
-962974
-963078
-963294
-963425
-963392
-963460
-963408
-963662
-963849
-963954
-964010
-964092
-964294
-964323
-964413
-964605
-964657
-964913
-965060
-965280
-965432
-965549
-965681
-965876
-966088
-966326
-966417
-966662
-966975
-967116
-967341
-967486
-967803
-967911
-968200
-968497
-968746
-968998
-969201
-969454
-969615
-970453
-970242
-970468
-970626
-970781
-971004
-971316
-971578
-971734
-971960
-972344
-972560
-972860
-973095
-973435
-973705
-973992
-974359
-974671
-975045
-975353
-975661
-975985
-976299
-976522
-976852
-977278
-977568
-977906
-978115
-978390
-978678
-979078
-979244
-979494
-979817
-980055
-980314
-980575
-980964
-981189
-981391
-981733
-981898
-982175
-982492
-982688
-983002
-983211
-983370
-983794
-983932
-984328
-984486
-984694
-985020
-985220
-985497
-985765
-986043
-986215
-986421
-986510
-986702
-986753
-986649
-986702
-986178
-986422
-986311
-986032
-985752
-985415
-984978
-984350
-983596
-982905
-982043
-981208
-980441
-979137
-978092
-977069
-975832
-974603
-973143
-971820
-970421
-969067
-967452
-965960
-964324
-962777
-961341
-959846
-958133
-956562
-954988
-953514
-952030
-950571
-949191
-947824
-946318
-944951
-943618
-942248
-941206
-940769
-939227
-938007
-936868
-935867
-934915
-933922
-933053
-932279
-931480
-930642
-929970
-929293
-928530
-927911
-927322
-926745
-926214
-925761
-925320
-924899
-924482
-924045
-923649
-923433
-923137
-922945
-922656
-922424
-922161
-922063
-922428
-921942
-921748
-921682
-922286
-921640
-921471
-921420
-921587
-921606
-921524
-921326
-921743
-921755
-921974
-922148
-922347
-922361
-922593
-922745
-922840
-923043
-923295
-923422
-923562
-923921
-924006
-924181
-924290
-924497
-924739
-924909
-925186
-925516
-925727
-925986
-926222
-926558
-926671
-927029
-927366
-927616
-928002
-928289
-928663
-928990
-929502
-929856
-930252
-930606
-931076
-931613
-932037
-932441
-933016
-933472
-933908
-934370
-934953
-935486
-935784
-936292
-937023
-937551
-937963
-938449
-939010
-939623
-940001
-940510
-941130
-941624
-942164
-942642
-943083
-943483
-943967
-944401
-944798
-945175
-945496
-945776
-946247
-946530
-946957
-947315
-947629
-947933
-948132
-948296
-948613
-948795
-949162
-949009
-949436
-949644
-949831
-950129
-950348
-950510
-950627
-950818
-950999
-951064
-951136
-951329
-951456
-951509
-951470
-951546
-951606
-951737
-951899
-952027
-952116
-952245
-952201
-952378
-952362
-952439
-952341
-952357
-952431
-952585
-952626
-952693
-952645
-952663
-952844
-952883
-952932
-952920
-953036
-953146
-953172
-953310
-953482
-953446
-953511
-953637
-953708
-953806
-953857
-953920
-953999
-954180
-954284
-954521
-954580
-954657
-954469
-954774
-955056
-955153
-955325
-955425
-955492
-955536
-955718
-955941
-956106
-956184
-956576
-956763
-956874
-956980
-957345
-957397
-957608
-957840
-958090
-958279
-958545
-958731
-958704
-959028
-959368
-959702
-959912
-960179
-960106
-960551
-960912
-961177
-961414
-961561
-961813
-962135
-962437
-962536
-962881
-963008
-963249
-963544
-963846
-964109
-964325
-964618
-964851
-965129
-965320
-965667
-965943
-966261
-966633
-966885
-967115
-967388
-967626
-967948
-968078
-968341
-968618
-968958
-969362
-969623
-969861
-970143
-970415
-970737
-970989
-971312
-971575
-971835
-972139
-972418
-972689
-973020
-973191
-973550
-973820
-974001
-974309
-974504
-974765
-974973
-975294
-975610
-975790
-976095
-976356
-976632
-976851
-976923
-977161
-977320
-977289
-977432
-977499
-977536
-977575
-977616
-977434
-977299
-977063
-976817
-976448
-975885
-975437
-974843
-974139
-973299
-972525
-971560
-970498
-969314
-968092
-966795
-965528
-964245
-962875
-961463
-960032
-958592
-957143
-955822
-954289
-952816
-951401
-949890
-948336
-946966
-945580
-943988
-942675
-941256
-940037
-938662
-937512
-936279
-935065
-933884
-932766
-931764
-930688
-929525
-928623
-927783
-926853
-926081
-925272
-924568
-923797
-923076
-922601
-921979
-921468
-920977
-920518
-920052
-919575
-919249
-918909
-918615
-918224
-917937
-917703
-917444
-917302
-917049
-916928
-916814
-916702
-916492
-916518
-916464
-916424
-916344
-916300
-916390
-916378
-916291
-916452
-917300
-916952
-916936
-917024
-917034
-917217
-917448
-917467
-917693
-917921
-917953
-918178
-918440
-918483
-918669
-918884
-919143
-919419
-919535
-919761
-920138
-920405
-920681
-920837
-921041
-921345
-921659
-922125
-922373
-922633
-922965
-923324
-923804
-923956
-924442
-924874
-925344
-925658
-926235
-926769
-927180
-928154
-928290
-928438
-929138
-929710
-930162
-930620
-931137
-931680
-932232
-932655
-933145
-933652
-934100
-934525
-935144
-935531
-936198
-936629
-937170
-937675
-938177
-938670
-939228
-939848
-940224
-940801
-941258
-941557
-942194
-942571
-943133
-943298
-943944
-944335
-944697
-945026
-945237
-945575
-945770
-945939
-946348
-946483
-946754
-946875
-946974
-947245
-947293
-947454
-947662
-947695
-947844
-947874
-948126
-948137
-948201
-948215
-948421
-948659
-948692
-948778
-948860
-949051
-949150
-949215
-949285
-949500
-949508
-949589
-949730
-949859
-949983
-949911
-950108
-950113
-950244
-950405
-950420
-950426
-950558
-950686
-950734
-950724
-950815
-950933
-950974
-950969
-950944
-951060
-951294
-951399
-951478
-951491
-951698
-951737
-951892
-951920
-952068
-952396
-952526
-952592
-952801
-952964
-953162
-953264
-953461
-953655
-954607
-954345
-954442
-954644
-954882
-955037
-955194
-955560
-955852
-956114
-956311
-956622
-956816
-957101
-957309
-957458
-957781
-958060
-958225
-958524
-958696
-958950
-959260
-959625
-959809
-960049
-960353
-960562
-960756
-961091
-961445
-961723
-961852
-961952
-962473
-962674
-963049
-963366
-963645
-963769
-964144
-964307
-964645
-964983
-965226
-965383
-965581
-965805
-965886
-966376
-966643
-966963
-967249
-967415
-967710
-968006
-968309
-968707
-968847
-969182
-969423
-969761
-970068
-970342
-970527
-970886
-971154
-971464
-971758
-972025
-972346
-972593
-972829
-973159
-973491
-973766
-974014
-974236
-974585
-974939
-975150
-975414
-975679
-976030
-976354
-976595
-976824
-977146
-977450
-977551
-977774
-978082
-978196
-978476
-978688
-978690
-978775
-978967
-978912
-978822
-978560
-978257
-977911
-977550
-977050
-976376
-975627
-974995
-974021
-973180
-972261
-971132
-970056
-968766
-967441
-966132
-964733
-963378
-961974
-960427
-958969
-957445
-956066
-954547
-953090
-951620
-950068
-948728
-947307
-945818
-944533
-943096
-941696
-940481
-939129
-938008
-936852
-935726
-934505
-933540
-932529
-931495
-930473
-929620
-928791
-927893
-927222
-926503
-925870
-925132
-924549
-923871
-923318
-922813
-922361
-921992
-921489
-921147
-920797
-920571
-920288
-920073
-919779
-919577
-919342
-919252
-919133
-918936
-918856
-918835
-918806
-918757
-918716
-918556
-918697
-918733
-918757
-918737
-918822
-919062
-919259
-919342
-919473
-919655
-919579
-919793
-920047
-920228
-920505
-920784
-921053
-921283
-921482
-921746
-922046
-922170
-922507
-922630
-922919
-923207
-923476
-923832
-924182
-924367
-924742
-925000
-925323
-925691
-925932
-926306
-926856
-927222
-927589
-928117
-928543
-929123
-929607
-930070
-930658
-931207
-931717
-932416
-932974
-933503
-934046
-934646
-935136
-935713
-936194
-936757
-937331
-937928
-938354
-938924
-939373
-939931
-940539
-940996
-941453
-941998
-942434
-942780
-943322
-943814
-944171
-944675
-945026
-945561
-945896
-946271
-946698
-947101
-947659
-947846
-948154
-948405
-948697
-948924
-949175
-949342
-949682
-949869
-950094
-950119
-950322
-950543
-950699
-950882
-950965
-951102
-951075
-951176
-951348
-951520
-951595
-951632
-951707
-951883
-951902
-951917
-951928
-951952
-952068
-952025
-952138
-952621
-952460
-952406
-952317
-952283
-952379
-952411
-952373
-952442
-952517
-952494
-952405
-952531
-952494
-952614
-952747
-952467
-952745
-952743
-952822
-952844
-953050
-953186
-953363
-953488
-953513
-953662
-953713
-953841
-953984
-954052
-954235
-954314
-954512
-954508
-954639
-954705
-954776
-955051
-955214
-955266
-955368
-955435
-955750
-955794
-955807
-956066
-956311
-956436
-956568
-956725
-956885
-957107
-957251
-957434
-957626
-957981
-958158
-958360
-958426
-958624
-958778
-959037
-959281
-959448
-959715
-959958
-960148
-960291
-960527
-960746
-961107
-961450
-961697
-961975
-962308
-962487
-962705
-963061
-963332
-963684
-963974
-964271
-964573
-964892
-965161
-965413
-965833
-966187
-966511
-966592
-966948
-967354
-967578
-967842
-968252
-968467
-968718
-969051
-969426
-969550
-969863
-970314
-970497
-970815
-971138
-971302
-971768
-971939
-972327
-972649
-972809
-972976
-973246
-973592
-973798
-974053
-974236
-974517
-974717
-974955
-975176
-975323
-975200
-975575
-975689
-975681
-975509
-975697
-975534
-975478
-975270
-975042
-974733
-974051
-973821
-973326
-972774
-972043
-971349
-970385
-969419
-968542
-967336
-966259
-964997
-963751
-962451
-961261
-959807
-958470
-956922
-955591
-954179
-952686
-951228
-949812
-948417
-947066
-945557
-944238
-942854
-941597
-940312
-939104
-937947
-936793
-935549
-934561
-933478
-932497
-931555
-930701
-929849
-928899
-928154
-927313
-926602
-926051
-925335
-924738
-924229
-923774
-923225
-922820
-922417
-922095
-921717
-921432
-921223
-920974
-920804
-920505
-920438
-919732
-919744
-919661
-919697
-919799
-919702
-919772
-919948
-920001
-920112
-920300
-920290
-920494
-920542
-920805
-920951
-921117
-921406
-921564
-921781
-922725
-923106
-923391
-923641
-924019
-924298
-924543
-924887
-925166
-925628
-926056
-926350
-926725
-927099
-927625
-927958
-928444
-928778
-929788
-929901
-930360
-931214
-931386
-931714
-932218
-932705
-933169
-933739
-934285
-934812
-935494
-935938
-936540
-937185
-937649
-938227
-938834
-939383
-939925
-940533
-940964
-941521
-942060
-942503
-943117
-943566
-944208
-944668
-945099
-945625
-946079
-946547
-946928
-947252
-947660
-948081
-948444
-948765
-948948
-949346
-949611
-949777
-950071
-950366
-950563
-950775
-951046
-951177
-951245
-951478
-951626
-951788
-951880
-951918
-952055
-952200
-952275
-952340
-952446
-952321
-952366
-952536
-952485
-952578
-952645
-952746
-952782
-952823
-952847
-952919
-953004
-952998
-953022
-953188
-953062
-953141
-953186
-953245
-953308
-953239
-953278
-953371
-953528
-953431
-953475
-953667
-953795
-953893
-953867
-953956
-954008
-954018
-954080
-954267
-954361
-954510
-954377
-954706
-954844
-955001
-954980
-955112
-955314
-955496
-955658
-955877
-956087
-956114
-956197
-956535
-956621
-956895
-957101
-957286
-957507
-957685
-957718
-957901
-958086
-958285
-958480
-958720
-959035
-959275
-959510
-959675
-959792
-959974
-960218
-960475
-960779
-961050
-961243
-961506
-961849
-962026
-962183
-962454
-962764
-962948
-963184
-963486
-963795
-963970
-964184
-964622
-964834
-965075
-967222
-967475
-967828
-968036
-968360
-968787
-968934
-969164
-969367
-969656
-969956
-970179
-970483
-970866
-971134
-971328
-971734
-972008
-972273
-972572
-972861
-973153
-973489
-973791
-974100
-974350
-974601
-974920
-975126
-975511
-975796
-976142
-976343
-976611
-976877
-977025
-977264
-977637
-977813
-978025
-978153
-978395
-978495
-978605
-978599
-978498
-978425
-978450
-978667
-978124
-977670
-977341
-976806
-976256
-975499
-974877
-973922
-973152
-972164
-971212
-970040
-968784
-967478
-966241
-964875
-963375
-961892
-960445
-958959
-957381
-955693
-954154
-952519
-950959
-949436
-947768
-946265
-944876
-943300
-941925
-940519
-939065
-937852
-936490
-935138
-933978
-932836
-931693
-930525
-929516
-928450
-927460
-926614
-925700
-924883
-923993
-923230
-922576
-921886
-921302
-920758
-920065
-919611
-919108
-918566
-918075
-917772
-917280
-916916
-916648
-916305
-916068
-915765
-915612
-915306
-915103
-914976
-914898
-914670
-914996
-914678
-914356
-914317
-914287
-914232
-914346
-914440
-914360
-914348
-914493
-914618
-914751
-914849
-915707
-915283
-915128
-915351
-915501
-915661
-915701
-915937
-916161
-916333
-916569
-916682
-916933
-917049
-917324
-917481
-917862
-918018
-917950
-918495
-918773
-919047
-919284
-919617
-919856
-920082
-920379
-920568
-921119
-921517
-921825
-922099
-922615
-923037
-923414
-923897
-924347
-924780
-925253
-925766
-926215
-926662
-927297
-927713
-928194
-928743
-929259
-929793
-930374
-930862
-931449
-932050
-932571
-933000
-933460
-933959
-934467
-934933
-935414
-935938
-936356
-936741
-937235
-937706
-938034
-938491
-938947
-938973
-939651
-940053
-940409
-940692
-941142
-941310
-941672
-941984
-942124
-942503
-942840
-943047
-943247
-943453
-943689
-943773
-943958
-944006
-944164
-944296
-944457
-944509
-944712
-944707
-944809
-944933
-944985
-945021
-945143
-945239
-945264
-945390
-945349
-945437
-945518
-945490
-945593
-945715
-945727
-945836
-945885
-945836
-945855
-945902
-946015
-946016
-946136
-946221
-946282
-946368
-946392
-946394
-946471
-946486
-946578
-946645
-946678
-946868
-946791
-946928
-947107
-947208
-947329
-947443
-947546
-947714
-947747
-947941
-948073
-948203
-948284
-948518
-948610
-948681
-948863
-948918
-949065
-949230
-949351
-949639
-949771
-949993
-950193
-950405
-950566
-950824
-950980
-951031
-951420
-951590
-951893
-952106
-952281
-952510
-952686
-952874
-953257
-953403
-953610
-953983
-954271
-954476
-954710
-954961
-955220
-955392
-955647
-956007
-956284
-956627
-956790
-957076
-957306
-957624
-957936
-958094
-958341
-958733
-958966
-959368
-959625
-959956
-960123
-960359
-960679
-960979
-961395
-961577
-961857
-962125
-962496
-962663
-963016
-963224
-963514
-963685
-964102
-964277
-964568
-964862
-965177
-965402
-965696
-965842
-966107
-966505
-966826
-967002
-967235
-967544
-967695
-968058
-968390
-968597
-968885
-969145
-969466
-969719
-969925
-970032
-970396
-970562
-970483
-970722
-971006
-971165
-971304
-971245
-971157
-971130
-970968
-970717
-970502
-969941
-969528
-969105
-968527
-967928
-967095
-966244
-965319
-964399
-963163
-961844
-960612
-959570
-958259
-956911
-955610
-954198
-952758
-951326
-949689
-948254
-946742
-944865
-943533
-942143
-940681
-939078
-937724
-936426
-934994
-933577
-932331
-930966
-929656
-928455
-927306
-926142
-925097
-923986
-923093
-922092
-921096
-920262
-919415
-918691
-917883
-917222
-916593
-915971
-915261
-914688
-914236
-913674
-913258
-912727
-912326
-911985
-911600
-911309
-911065
-910719
-910509
-910314
-910132
-909977
-909721
-909695
-909477
-909355
-909286
-909261
-909163
-909131
-909197
-909011
-909027
-909132
-909144
-909139
-909325
-909427
-909478
-909622
-909861
-909947
-910138
-910272
-910361
-910570
-910833
-910913
-911157
-911482
-911611
-911808
-911968
-912226
-912367
-912606
-912906
-913143
-913398
-913562
-913869
-914096
-914360
-914618
-914955
-915363
-915730
-915955
-916358
-916689
-917034
-917520
-917991
-918409
-918798
-919245
-919831
-920208
-920668
-921210
-921826
-922407
-922870
-923403
-923919
-924151
-924833
-925455
-926022
-926469
-927112
-927475
-927892
-928539
-928986
-929500
-930008
-930411
-930956
-931501
-931914
-932384
-932672
-933118
-933528
-934056
-934311
-934773
-935187
-935611
-935919
-936134
-936490
-936850
-937079
-937314
-937534
-937840
-938161
-938373
-938618
-938768
-939020
-939168
-939349
-939431
-939586
-939810
-939922
-939978
-940095
-940012
-940349
-940455
-940579
-940721
-940839
-940904
-941027
-941032
-941164
-941245
-941306
-941468
-941458
-941316
-941506
-941550
-941635
-941709
-941724
-941717
-941878
-941872
-941955
-942174
-942249
-942317
-942436
-942461
-942672
-942781
-942771
-942938
-943012
-942933
-943022
-943251
-943425
-943283
-943608
-943703
-943808
-943944
-944021
-944196
-944285
-944399
-944563
-944752
-944987
-945165
-945297
-945929
-945914
-945865
-945964
-946110
-946436
-946658
-946776
-947009
-947167
-947419
-947591
-947738
-947958
-947886
-948342
-948550
-948792
-948974
-949360
-949488
-949811
-950020
-950267
-950340
-950593
-950819
-951105
-951303
-951594
-951868
-952155
-952365
-952606
-952825
-953089
-953385
-953551
-953991
-954191
-954415
-954659
-954596
-954989
-955468
-955869
-956002
-956253
-956604
-956889
-957097
-957434
-957698
-957980
-958189
-958533
-958819
-958914
-959147
-959421
-959663
-959850
-960126
-960612
-960748
-961158
-961447
-961524
-961895
-962087
-962422
-962700
-962915
-963198
-963965
-963943
-964105
-964402
-964671
-965030
-965357
-965673
-965903
-966264
-966610
-966958
-967308
-967597
-967777
-968092
-968417
-968711
-968962
-969204
-969298
-969476
-969685
-969761
-969752
-969796
-969759
-969641
-969464
-969244
-968789
-968457
-967910
-967464
-966887
-966135
-965453
-964608
-963646
-962710
-961519
-960494
-959279
-958062
-956765
-955319
-954042
-952528
-951036
-949514
-948070
-946593
-945110
-943577
-942115
-940632
-939371
-937823
-936377
-935218
-933717
-932499
-931228
-930010
-928870
-927731
-926523
-925467
-924421
-923333
-922204
-921304
-920353
-919505
-918770
-918031
-917219
-916619
-916034
-915354
-914797
-914215
-913746
-913431
-912965
-912627
-912342
-912070
-911844
-911702
-911469
-911451
-911248
-911143
-911123
-910900
-910824
-910883
-910839
-910704
-910681
-910972
-910649
-910592
-910683
-910630
-910667
-910585
-910708
-910680
-910811
-911003
-911185
-911303
-911386
-911521
-911642
-911793
-911968
-912312
-912513
-912778
-913033
-913195
-913562
-913858
-914177
-914373
-914774
-914964
-915287
-915547
-915809
-916117
-916386
-916730
-917110
-917363
-917830
-918214
-918556
-919023
-919423
-919776
-920219
-920685
-921180
-921632
-922298
-922833
-923298
-923780
-924414
-924834
-925495
-926084
-926619
-927153
-927679
-928275
-928851
-929382
-930011
-930597
-931152
-931706
-932171
-932564
-933248
-933815
-934298
-934746
-935316
-935704
-936085
-936564
-937151
-937494
-937635
-938318
-938757
-939167
-939377
-939776
-940138
-940414
-940589
-940940
-941065
-941276
-941523
-941702
-941992
-942109
-942264
-942435
-942600
-942579
-942754
-942960
-943001
-943175
-943288
-943304
-943549
-943638
-943451
-943721
-943648
-943816
-944002
-944115
-944092
-944213
-944227
-944240
-944384
-944303
-944272
-944342
-944368
-944489
-944504
-944423
-944537
-944653
-944595
-944709
-944854
-944960
-945080
-945158
-945221
-945360
-945444
-945638
-945733
-945789
-946036
-946159
-946177
-946427
-946453
-946548
-946783
-946972
-947059
-947250
-947373
-947383
-947543
-947680
-947812
-947857
-948207
-948276
-948428
-948611
-948848
-949069
-949183
-949071
-949447
-949778
-949950
-950190
-950381
-950623
-950836
-951025
-951247
-951402
-951713
-951925
-952225
-952405
-952574
-952844
-953173
-953339
-953660
-953832
-954126
-954327
-954646
-954832
-955016
-955292
-955625
-955844
-956046
-956225
-956582
-956705
-956965
-957308
-957604
-957799
-958059
-958421
-958578
-958893
-959109
-959455
-959704
-960010
-960271
-960533
-960894
-961116
-961344
-961679
-962024
-962268
-962581
-962763
-963149
-963411
-963778
-964070
-964167
-964573
-964925
-965257
-965744
-965980
-966200
-966481
-966866
-967122
-967386
-967709
-968073
-968410
-968717
-968998
-969340
-969584
-969871
-970212
-970563
-970823
-971069
-971310
-971508
-971689
-972572
-972687
-972916
-972984
-972860
-972958
-972883
-972771
-972576
-972304
-971996
-972040
-971266
-970678
-970046
-969310
-968511
-967481
-966562
-965545
-964554
-963380
-962208
-960927
-959604
-958237
-956713
-955213
-953818
-952221
-950763
-949182
-947678
-945953
-944622
-943159
-941487
-940234
-938879
-937495
-936217
-934876
-933513
-932376
-931139
-929937
-928906
-927787
-926855
-925807
-924836
-924045
-923154
-922341
-921509
-920662
-920076
-919469
-918875
-918348
-917769
-917361
-916905
-916208
-915946
-915680
-915303
-915066
-914789
-914704
-914530
-914150
-914052
-913952
-913885
-913692
-913721
-913640
-913555
-913522
-913612
-913668
-913709
-913784
-913897
-914063
-914124
-914233
-914468
-914580
-914812
-914994
-915226
-915387
-915605
-915939
-916162
-916451
-916734
-916884
-917214
-917485
-917680
-917969
-918182
-918556
-918830
-919040
-919410
-919668
-920115
-920394
-920780
-921145
-921638
-922006
-922484
-922923
-923390
-923739
-924260
-924765
-925227
-925692
-926221
-926759
-927153
-927867
-928389
-929429
-929604
-930057
-930585
-931135
-931792
-932310
-932950
-933626
-934231
-934608
-935260
-935836
-936365
-936929
-937534
-938036
-938603
-939183
-939724
-940185
-940584
-941058
-941504
-941918
-942355
-942634
-942960
-943369
-943626
-943968
-944137
-944384
-944719
-944655
-945139
-945386
-945566
-945882
-946031
-946121
-946292
-946435
-946548
-946581
-946764
-946924
-947088
-947108
-947081
-947124
-947207
-947190
-947297
-947256
-947246
-947375
-947339
-947620
-947566
-947506
-947439
-947468
-947879
-947890
-948041
-948697
-948224
-948144
-948058
-948235
-948078
-948306
-948433
-948459
-948479
-948614
-948568
-948633
-948686
-948808
-949022
-949059
-949145
-949258
-949379
-949522
-949699
-949789
-949948
-950123
-950326
-950582
-950658
-950749
-950990
-951035
-951298
-951401
-951586
-951767
-951888
-952003
-952202
-952341
-952468
-952540
-952917
-953001
-953155
-953273
-953465
-953640
-953911
-954225
-954353
-954548
-954848
-954988
-955205
-955605
-955729
-956088
-956316
-956544
-956822
-956953
-957158
-957575
-957776
-958155
-958226
-958600
-958828
-959202
-959466
-959709
-959954
-960220
-960460
-960804
-961091
-961367
-961805
-962247
-962417
-962643
-962727
-963243
-963548
-963866
-964290
-964658
-964896
-965214
-965519
-965715
-966115
-966294
-966542
-966800
-967085
-967429
-967713
-967594
-968036
-968156
-968579
-968856
-969053
-969279
-969568
-969741
-969921
-970025
-970120
-970369
-970583
-970765
-970913
-970988
-971019
-971186
-971214
-971284
-971318
-971369
-971279
-971112
-970880
-970665
-970491
-970090
-969598
-969026
-968350
-967708
-966912
-965691
-964923
-963924
-962811
-961772
-960458
-959213
-957824
-956438
-955025
-953513
-952030
-950611
-949058
-947522
-946048
-944588
-943131
-941618
-940268
-938731
-937336
-936003
-934729
-933339
-932058
-930770
-929568
-928492
-927274
-926205
-925088
-924130
-923128
-922320
-921443
-920568
-919716
-918984
-918261
-917690
-917001
-916413
-915905
-915321
-914799
-914343
-914041
-913699
-913291
-912932
-912789
-912514
-912304
-912065
-911927
-911667
-911548
-911475
-911421
-911406
-911485
-911467
-911410
-911317
-911377
-911448
-911557
-911575
-911630
-911783
-911903
-912037
-912188
-912354
-912415
-912314
-912550
-912844
-913123
-913250
-913434
-913636
-913846
-914145
-914376
-914528
-914825
-915108
-915353
-915544
-915922
-916098
-916509
-916786
-917115
-917460
-917782
-918101
-918433
-918867
-919265
-919587
-919983
-920396
-920816
-921267
-921685
-922129
-922632
-923247
-923746
-924235
-924405
-925079
-925692
-926012
-926693
-927268
-927749
-928304
-928801
-929370
-929874
-930386
-930876
-931365
-931960
-932412
-933042
-933413
-933859
-934278
-934780
-935258
-935654
-936043
-936441
-936966
-937343
-937744
-938192
-938498
-938791
-939267
-939531
-939947
-940177
-940522
-940812
-941053
-941334
-941596
-941774
-941964
-942230
-942361
-942670
-942779
-942880
-942972
-943252
-943373
-943420
-943540
-943701
-944314
-944099
-944057
-944156
-944275
-944398
-944405
-944424
-944407
-944463
-944473
-944619
-944719
-944743
-944790
-944872
-944945
-944982
-945128
-945186
-945207
-945367
-945366
-945543
-945550
-945571
-945642
-945740
-945826
-945897
-946073
-946016
-946066
-946229
-946247
-946359
-946394
-946522
-946506
-946588
-946653
-946742
-946833
-946975
-947209
-947306
-947328
-947396
-947686
-947800
-947875
-947976
-948143
-948283
-948438
-949282
-948933
-949011
-949184
-949336
-949446
-949686
-949771
-950049
-950212
-950333
-950490
-950696
-950938
-951120
-951477
-951780
-951859
-952162
-952323
-952559
-952801
-953105
-953282
-953564
-953961
-954028
-954442
-954624
-954882
-955061
-955306
-955637
-955930
-956213
-956509
-956781
-956987
-957263
-957476
-957741
-957996
-958200
-958497
-958735
-959050
-959352
-959584
-959864
-960133
-960514
-960854
-961168
-961326
-961751
-962075
-962345
-962622
-962899
-963209
-963456
-963787
-964102
-964375
-964752
-965085
-965475
-965687
-965965
-966339
-966517
-966768
-967036
-967343
-967569
-967941
-968024
-968311
-968618
-968822
-969022
-969266
-969562
-969641
-969851
-970006
-970162
-970242
-970386
-970305
-970300
-970200
-970091
-969795
-969426
-969116
-968731
-968161
-967494
-966819
-965997
-965098
-964255
-963113
-962011
-960898
-959659
-958442
-957098
-955785
-954375
-952790
-951448
-949867
-948512
-946768
-945349
-943779
-942269
-940751
-939282
-937727
-936199
-934810
-933465
-932073
-930812
-929454
-928215
-926981
-925848
-924719
-923752
-922614
-921627
-920591
-919742
-918908
-918185
-917352
-916694
-915921
-915213
-914535
-913972
-913534
-913014
-912548
-912060
-911694
-911399
-910907
-910617
-910330
-910137
-909823
-909721
-909485
-909222
-909097
-909023
-908933
-908847
-908690
-908709
-908672
-908762
-908818
-908695
-908869
-909011
-909309
-909462
-909593
-909618
-909717
-910054
-910120
-910244
-910441
-910793
-910891
-910997
-911283
-911505
-911727
-911879
-912152
-912441
-912769
-913088
-913318
-913737
-914080
-914409
-914708
-915033
-915347
-915782
-916079
-916553
-916930
-917394
-917690
-918111
-918509
-919028
-919409
-919755
-920209
-920712
-921163
-921723
-922200
-922750
-923268
-923784
-924333
-924827
-925314
-925976
-926464
-926992
-927446
-928082
-928580
-928973
-929441
-929926
-930470
-931059
-931412
-931845
-932327
-932702
-933136
-933520
-934013
-934432
-934741
-935111
-935438
-935799
-936242
-936518
-936875
-937231
-937490
-937776
-938008
-938408
-938563
-938827
-939075
-939264
-939367
-939466
-939655
-939879
-940004
-940085
-940102
-940283
-940322
-940370
-940520
-940431
-940503
-940473
-940663
-940768
-940772
-940765
-940759
-940894
-940964
-941074
-940941
-941100
-941055
-941245
-941260
-941321
-941279
-941402
-941289
-941420
-941468
-941413
-941442
-941549
-941617
-941586
-941657
-941853
-941944
-942010
-942083
-942064
-942203
-942196
-942368
-942392
-942546
-942716
-942807
-942960
-943063
-943242
-943303
-943594
-943681
-943808
-944037
-944159
-944456
-944507
-944662
-944924
-945014
-945196
-945298
-945550
-945672
-945900
-946095
-946368
-946601
-946781
-946973
-947175
-947349
-947659
-947921
-947987
-948235
-948603
-948812
-949081
-949330
-949315
-949641
-949846
-950145
-950409
-950669
-950862
-951151
-951457
-951787
-952081
-952321
-952479
-952811
-953113
-953358
-953584
-953732
-954067
-954296
-954670
-954917
-955103
-955361
-955780
-955998
-956246
-956612
-956834
-957073
-957264
-957593
-958034
-958186
-958431
-958690
-959028
-959199
-959522
-959777
-960031
-960329
-960568
-960915
-961167
-961440
-961689
-962004
-962203
-962447
-962774
-963081
-963473
-963777
-963937
-964230
-964534
-964771
-965081
-965225
-965568
-965945
-966208
-966549
-966795
-966984
-967335
-967567
-967767
-967935
-968219
-968255
-968397
-968388
-968303
-968309
-968401
-968053
-967824
-967573
-967083
-966662
-966054
-965482
-964711
-964020
-963060
-962104
-961202
-960007
-958918
-957676
-956428
-955211
-953701
-952299
-950929
-949357
-947845
-946427
-944803
-943237
-941734
-940277
-938683
-937211
-935812
-934293
-932867
-931578
-930214
-928845
-927589
-926402
-925271
-924124
-923098
-922028
-921012
-920122
-919144
-918382
-917437
-916658
-915785
-915158
-914486
-913863
-913277
-912686
-912226
-911795
-911372
-910842
-910410
-909992
-909793
-909435
-909329
-909083
-908721
-908506
-908411
-908237
-908195
-908134
-908041
-907907
-907902
-907936
-907927
-907849
-908030
-908102
-908159
-908097
-908254
-908298
-908510
-908571
-908765
-908838
-908945
-909256
-909460
-909536
-909860
-910034
-910342
-910348
-910685
-910852
-911089
-911377
-911590
-911868
-912096
-912526
-912775
-913113
-913409
-913720
-913931
-914244
-914669
-915046
-915314
-915491
-916008
-916388
-916775
-917273
-917636
-918010
-918429
-918929
-919390
-919953
-920446
-920923
-921501
-921959
-922459
-922989
-923527
-924079
-924766
-925259
-925864
-926465
-926969
-928081
-928134
-928594
-929040
-929646
-930253
-930711
-931152
-931629
-932228
-932656
-933071
-933531
-933998
-934459
-935056
-935452
-935754
-936121
-936516
-936718
-937094
-937408
-937854
-938079
-938388
-938579
-938966
-939209
-939390
-939632
-939863
-939914
-940105
-940413
-940549
-940594
-940615
-940769
-940994
-940880
-941046
-941142
-941411
-941521
-941579
-941564
-941629
-941571
-941655
-941633
-941680
-941739
-941794
-941861
-941914
-942115
-942151
-942202
-942186
-942433
-942406
-942484
-942643
-942789
-942776
-942808
-942924
-943093
-943081
-943142
-943301
-943460
-943424
-943607
-943704
-943773
-943894
-944018
-944144
-944368
-944470
-944599
-944713
-944899
-944982
-945123
-945248
-945366
-945494
-945696
-945782
-945911
-946392
-946449
-946515
-946731
-946879
-947076
-947347
-947519
-947637
-947865
-948133
-948515
-948715
-948952
-949127
-949337
-949674
-949821
-950044
-950337
-950552
-950784
-951034
-951190
-951494
-951689
-952013
-952163
-952448
-952604
-952795
-953114
-953334
-953552
-953833
-954130
-954449
-954766
-955098
-955855
-955714
-955868
-956150
-956390
-956592
-956945
-957187
-957417
-957783
-958065
-958288
-958440
-958732
-958946
-959352
-959567
-959856
-960127
-960509
-960728
-961017
-961399
-961614
-961826
-962250
-962606
-962877
-963155
-963496
-963749
-964055
-964110
-964617
-964948
-965318
-965686
-966066
-966204
-966496
-966823
-967146
-967482
-967770
-968198
-968396
-968829
-969042
-969342
-969803
-970068
-970443
-970741
-970924
-971279
-971398
-971721
-972026
-972130
-972229
-972330
-972602
-972729
-972656
-972609
-972516
-972420
-972127
-971857
-971487
-971048
-970613
-970113
-969376
-968577
-967719
-966787
-965815
-964764
-963503
-962335
-961042
-959726
-958406
-956867
-955495
-954020
-952394
-950886
-949306
-947833
-946312
-944788
-943276
-941755
-940232
-938973
-937495
-936196
-934855
-933625
-932410
-931199
-930053
-928916
-927920
-926556
-925761
-924794
-923911
-923008
-922152
-921290
-920700
-919937
-919295
-918540
-918027
-917391
-916820
-916405
-915959
-915655
-915273
-914836
-914538
-914261
-914089
-913826
-913660
-913528
-913294
-913175
-913049
-912939
-913043
-912982
-912764
-913063
-913027
-913079
-913228
-913359
-913339
-913436
-913609
-913834
-913942
-914028
-914220
-914383
-914587
-914828
-914929
-915200
-915494
-915804
-915990
-916288
-916575
-916760
-917008
-917273
-917595
-917889
-918061
-918472
-918701
-918984
-919351
-919614
-920017
-920338
-920788
-921054
-921538
-921876
-922250
-922681
-923243
-923675
-924277
-924801
-925293
-925757
-926422
-927066
-927597
-928087
-928613
-929274
-929633
-930236
-930812
-931342
-931965
-932467
-933097
-933557
-934126
-934590
-935204
-935622
-936177
-936699
-937244
-937717
-938065
-938420
-938908
-939250
-939770
-940024
-940334
-940683
-941169
-941469
-941822
-942177
-942308
-942594
-942880
-943143
-943408
-943480
-943625
-943897
-944020
-944222
-944261
-944434
-944474
-944516
-944595
-944674
-944648
-944777
-944821
-944911
-945613
-945207
-945040
-944933
-944972
-945027
-944969
-945141
-945050
-945135
-945132
-945157
-945182
-945162
-945199
-945197
-945272
-945395
-945439
-945334
-945554
-945389
-945418
-945508
-945616
-945611
-945580
-945787
-945834
-945931
-946033
-946041
-946109
-946184
-946203
-946244
-946425
-946498
-946536
-946638
-946883
-946893
-947375
-947464
-947507
-947647
-947816
-948015
-948234
-948331
-948405
-948680
-948845
-948930
-949078
-949364
-949497
-949730
-949938
-950224
-950396
-950556
-950832
-950991
-951273
-951332
-951633
-951909
-952198
-952322
-952639
-952931
-953084
-953407
-953634
-953922
-954181
-954431
-954757
-955023
-955259
-955603
-955905
-956123
-956360
-956696
-956988
-957194
-957412
-957722
-958030
-958345
-958539
-958903
-959174
-959443
-959646
-959906
-960155
-960444
-960422
-960940
-961172
-961521
-961859
-962161
-962481
-962473
-962948
-963396
-963674
-963898
-964310
-964536
-965033
-965229
-965540
-965785
-966213
-966439
-966829
-967132
-967317
-967632
-967979
-968067
-968424
-968817
-968801
-969295
-969730
-970012
-970010
-970465
-970761
-970965
-971209
-971374
-971948
-971710
-971761
-971768
-971681
-971608
-971456
-971257
-970880
-970539
-969947
-969360
-968825
-968093
-967184
-966381
-965409
-964310
-963253
-962197
-960817
-959509
-958093
-956737
-955342
-953831
-952378
-950965
-949394
-947914
-946578
-945021
-943559
-942176
-940812
-939436
-937985
-936699
-935494
-934156
-932851
-931694
-930617
-929429
-928225
-927229
-926246
-925252
-924318
-923498
-922541
-921795
-921086
-920372
-919587
-918829
-918339
-917814
-917225
-916844
-916268
-915871
-915591
-915136
-914755
-914499
-914303
-914132
-913844
-913696
-913511
-913431
-913317
-913154
-913046
-912924
-912888
-912865
-912938
-912868
-913005
-913055
-913091
-913312
-913326
-913555
-913655
-913888
-914073
-914248
-914394
-914640
-914834
-915132
-915325
-915388
-915712
-916087
-916284
-916584
-916706
-917067
-916989
-917437
-917837
-918111
-918482
-918851
-919154
-919430
-919631
-922014
-922453
-922798
-923248
-923748
-924236
-924745
-925277
-925832
-926371
-926853
-927378
-928002
-928629
-929219
-929747
-930190
-930752
-931323
-931642
-932355
-933034
-933535
-934148
-934627
-935294
-935785
-936209
-936483
-937103
-937745
-938179
-938548
-939073
-939608
-939984
-940460
-940670
-941057
-941394
-941723
-941998
-942324
-942740
-942810
-943100
-943013
-943457
-943690
-943917
-944149
-944179
-944439
-944473
-944687
-944843
-944897
-944900
-945110
-945290
-945389
-945361
-945479
-945539
-945641
-945672
-945729
-945911
-945920
-946049
-946074
-946102
-946127
-946176
-946180
-946239
-946317
-946299
-946485
-946423
-946461
-946551
-946583
-946545
-946697
-946710
-946781
-946755
-946819
-947046
-947097
-947165
-947103
-947210
-947338
-947418
-947516
-947628
-947714
-947840
-947969
-948111
-948147
-948189
-948427
-948535
-948816
-948955
-949119
-949227
-949341
-949526
-949726
-949858
-949870
-950202
-950453
-950498
-950751
-951005
-951103
-951333
-951460
-951709
-951766
-952062
-952169
-952408
-952561
-952915
-953106
-953321
-953581
-953857
-953932
-954223
-954575
-954427
-954887
-955270
-955486
-955768
-955988
-956328
-956515
-956752
-956961
-957210
-957519
-957872
-958179
-958417
-958808
-959127
-959369
-959649
-959951
-960165
-960365
-960728
-960947
-961170
-961576
-961860
-962776
-962448
-962688
-962695
-963005
-963357
-963452
-963736
-964091
-964423
-964645
-964977
-965213
-965579
-965887
-966151
-966547
-966764
-967083
-967451
-967666
-967994
-968218
-968525
-968895
-969190
-969564
-969791
-970043
-970417
-970672
-970884
-971202
-971513
-971735
-972056
-972289
-972582
-972780
-973106
-973282
-973489
-973476
-973606
-973664
-973710
-973733
-973607
-973614
-973356
-973143
-972847
-972327
-971785
-971274
-970543
-969851
-969067
-968151
-967171
-966090
-964860
-963629
-962269
-960984
-959591
-958133
-956640
-955128
-953489
-951756
-950256
-948671
-947088
-945411
-943793
-942157
-940701
-939193
-937650
-936206
-934758
-933392
-931961
-930650
-929315
-928061
-926874
-925749
-924816
-923682
-922647
-921710
-920870
-919928
-919043
-918178
-917577
-916850
-915928
-915391
-914819
-914298
-913787
-913319
-912946
-912480
-912189
-911738
-911369
-910962
-910715
-910510
-910321
-910008
-909780
-909632
-909534
-909395
-909247
-909231
-909050
-908928
-908916
-908937
-908900
-908870
-908858
-908968
-908883
-909021
-909039
-909060
-909173
-909305
-909514
-909554
-909783
-909875
-909992
-910285
-910291
-910619
-910793
-910971
-911132
-911419
-911554
-911838
-911975
-912329
-912609
-912789
-913065
-913452
-913622
-913854
-914065
-914375
-914757
-915064
-915517
-915851
-916137
-916584
-916945
-917332
-917749
-918145
-918639
-919165
-919596
-920101
-920536
-921034
-921558
-922044
-922635
-923159
-923737
-924254
-924802
-925258
-925803
-926328
-926800
-927444
-927964
-928482
-928923
-929484
-930064
-930540
-930965
-931452
-931941
-932954
-932971
-933240
-933626
-933861
-934216
-934567
-935032
-935236
-935564
-935874
-936287
-936486
-936816
-937082
-937364
-937620
-937810
-938101
-938285
-938356
-938522
-938757
-938883
-938980
-939140
-939437
-939573
-939548
-939829
-939875
-940016
-940480
-940327
-940246
-940278
-940387
-940538
-940549
-940521
-940434
-940692
-940718
-940750
-940725
-940848
-940914
-940838
-940929
-940968
-940874
-940922
-940870
-941015
-941063
-941038
-941103
-941167
-941299
-941261
-941387
-941556
-941663
-941628
-941788
-941869
-941946
-942099
-942154
-942323
-942461
-942526
-942771
-942919
-942931
-943178
-943221
-943293
-943474
-943547
-943667
-943961
-944122
-944314
-944669
-944645
-944666
-944774
-944905
-945117
-945339
-945642
-945843
-946032
-946233
-946425
-946595
-946905
-947064
-947403
-947609
-947757
-948015
-948450
-948525
-948795
-949127
-949352
-949693
-950018
-950228
-950557
-950679
-951010
-951246
-951599
-951571
-951925
-952306
-952442
-952740
-952946
-953283
-953598
-953791
-953937
-954209
-954542
-954709
-954897
-955235
-955543
-955731
-956022
-956183
-956511
-956612
-956878
-957249
-957525
-957805
-958090
-958273
-958653
-959038
-959239
-959554
-959897
-960315
-960517
-960902
-961107
-961370
-961733
-962174
-962336
-962718
-962937
-963226
-964229
-963994
-964193
-964428
-964604
-964819
-965157
-965570
-965723
-966116
-966285
-966570
-966948
-967071
-967285
-967497
-967772
-967992
-968116
-968103
-968254
-968320
-968111
-968253
-968206
-968216
-968060
-967724
-967375
-966974
-966458
-965906
-965273
-964417
-963658
-962695
-961731
-960535
-959466
-958272
-956968
-955580
-954296
-952870
-951450
-949852
-948231
-946792
-945226
-943693
-942159
-940684
-939039
-937598
-936069
-934621
-933205
-931856
-930549
-929255
-927949
-926652
-925416
-924319
-923122
-922042
-920949
-919884
-919073
-918152
-917349
-916447
-915735
-914947
-914215
-913607
-912917
-912302
-911809
-911269
-910766
-910357
-909799
-909494
-909141
-908598
-908362
-908186
-907607
-907579
-907586
-907363
-907218
-907129
-907076
-906991
-906825
-906918
-906874
-906854
-906804
-906807
-906889
-906970
-907062
-907186
-907284
-907350
-907347
-907460
-907599
-907842
-907921
-908148
-908298
-908469
-908648
-908862
-909074
-909291
-909604
-909709
-909818
-910205
-910426
-910570
-910949
-911232
-911482
-911719
-912050
-912198
-912602
-912874
-913207
-913506
-913821
-914267
-914741
-915068
-915515
-916017
-916402
-916861
-916995
-917612
-918303
-918773
-919260
-919717
-920349
-920925
-921326
-921987
-922543
-923118
-923635
-924220
-924731
-925199
-925800
-926430
-927002
-927459
-928063
-928646
-929192
-929705
-930199
-930654
-931066
-931437
-931858
-932305
-932800
-933315
-933635
-933979
-934367
-934875
-935323
-935641
-935895
-936195
-936619
-936892
-937271
-937567
-937708
-937980
-938294
-938479
-938843
-938942
-939193
-939363
-939498
-939658
-939721
-939971
-940096
-940306
-940375
-940433
-940548
-940646
-940666
-940776
-940827
-940926
-941014
-941087
-941151
-941279
-941340
-941313
-941335
-941430
-941510
-941525
-941653
-941764
-941801
-941578
-941753
-941894
-942073
-942185
-942222
-942320
-942381
-942591
-942733
-942830
-942814
-942986
-943108
-943227
-943292
-943386
-943546
-943654
-943795
-944079
-944266
-944331
-944512
-944733
-944804
-944983
-945109
-945239
-945529
-945745
-946352
-946179
-946254
-946535
-946720
-946928
-947009
-947322
-947433
-947771
-947897
-948051
-948248
-948477
-948715
-948949
-949224
-949426
-949567
-949835
-949927
-950247
-950425
-950782
-950938
-951229
-951492
-951696
-951845
-952216
-952226
-952731
-953049
-953290
-953524
-953750
-954001
-954318
-954685
-954978
-955132
-955325
-955583
-955759
-956082
-956388
-956628
-956972
-956960
-957381
-957673
-957957
-958256
-958649
-958943
-959057
-959411
-959827
-960156
-960383
-960629
-960980
-961313
-961585
-961852
-962208
-962507
-962868
-963064
-963480
-963798
-964040
-964324
-964735
-964964
-965252
-965689
-965988
-966187
-966524
-966642
-967007
-967301
-967740
-967997
-968306
-968643
-968931
-969215
-969479
-969744
-969971
-970222
-970506
-970864
-971007
-971242
-971343
-971573
-971589
-971667
-971689
-971734
-971642
-971513
-971249
-971027
-970578
-970079
-969637
-968953
-968280
-967212
-966399
-965365
-964437
-963304
-962109
-960851
-959596
-958255
-956827
-955420
-953850
-952396
-950776
-949229
-947679
-946300
-944843
-943211
-941645
-940254
-938739
-937428
-936067
-934664
-933251
-931981
-930743
-924284
-922515
-921581
-921482
-920167
-919323
-918477
-917900
-917202
-916649
-916085
-915582
-915149
-914728
-914283
-913955
-913547
-913348
-913443
-912909
-912614
-912393
-912310
-912213
-912041
-911966
-911799
-911695
-911745
-911672
-911707
-911675
-911685
-911756
-911746
-912000
-912056
-912156
-912238
-912482
-912567
-912732
-912922
-913140
-913414
-913582
-913909
-914066
-914251
-914521
-914724
-914902
-915139
-915426
-915740
-915950
-916168
-916455
-916716
-917576
-917450
-917598
-917712
-918120
-918493
-918839
-919156
-919535
-919827
-920186
-920380
-920940
-921385
-921993
-922364
-922930
-923394
-923953
-924336
-924973
-925491
-926265
-926758
-927238
-927783
-928311
-928789
-929258
-929948
-930540
-931114
-931600
-931946
-932470
-932975
-933384
-933919
-934522
-934828
-935355
-935742
-936135
-936507
-936880
-937439
-937785
-938037
-938392
-938744
-939162
-939500
-939686
-939952
-940271
-940543
-940736
-941018
-941227
-941293
-941518
-941702
-941919
-942109
-942219
-942313
-942367
-942458
-942553
-942595
-942618
-942751
-942840
-942901
-942920
-942911
-943110
-943021
-943131
-943147
-943149
-943163
-943259
-943223
-943286
-943242
-943274
-943348
-943400
-943328
-943337
-943380
-943528
-943450
-943489
-943520
-943630
-943639
-943658
-943669
-943724
-943804
-943929
-944036
-944218
-944312
-944251
-944363
-944419
-944631
-944808
-944900
-945047
-945062
-945232
-945332
-945535
-945668
-945770
-945912
-945973
-946278
-946435
-946457
-946760
-946909
-947191
-947286
-947495
-947708
-947948
-948189
-948376
-948676
-948792
-949002
-949264
-949508
-949653
-949846
-949989
-950223
-950405
-950726
-950974
-951286
-951429
-951721
-951914
-952173
-952462
-952633
-952635
-953102
-953452
-953666
-953957
-954247
-954478
-955082
-955090
-955306
-955532
-955932
-956127
-956349
-956719
-956971
-957275
-957396
-957726
-958019
-958301
-958671
-958901
-959153
-959352
-959653
-959951
-960221
-960603
-960950
-961126
-961371
-961732
-961979
-962408
-962623
-962947
-963238
-963545
-963845
-964145
-964478
-964823
-965252
-965476
-965667
-965981
-966103
-966667
-966900
-967157
-967419
-967655
-967985
-968321
-968504
-968698
-968937
-969212
-969284
-969474
-969543
-969651
-969663
-969587
-969539
-969438
-969320
-969068
-968725
-968235
-967684
-967096
-966458
-965723
-964964
-964034
-963140
-962008
-960930
-959755
-958472
-957202
-955997
-954583
-953141
-951719
-950121
-948738
-947243
-945784
-944296
-942856
-941427
-939914
-938482
-937199
-935716
-934925
-933239
-931858
-930601
-929250
-928193
-927231
-926262
-925147
-924162
-923223
-922381
-921454
-920609
-919886
-919153
-918577
-917882
-917069
-916590
-916040
-915547
-914960
-914520
-914141
-913841
-913458
-913164
-912807
-912630
-912517
-912359
-912088
-911951
-911906
-911775
-911725
-911799
-911616
-911607
-911683
-912529
-911965
-911907
-911804
-911919
-911983
-912021
-912328
-912454
-912652
-912666
-912900
-913078
-913212
-913244
-913634
-913769
-914131
-914400
-914611
-914760
-915061
-915300
-915528
-915645
-916073
-916463
-916719
-916976
-917288
-917623
-917930
-918355
-918565
-918897
-919193
-919564
-919994
-920427
-920887
-921340
-921816
-922303
-922767
-923274
-923834
-924344
-924877
-925145
-925767
-926389
-927050
-927555
-928192
-928786
-929195
-929835
-930112
-930797
-931370
-931955
-932469
-933680
-933640
-934033
-934632
-935035
-935593
-936059
-936382
-936921
-937380
-937772
-938176
-938506
-938924
-939194
-939490
-939991
-940231
-940502
-940916
-941188
-941515
-941642
-941978
-942203
-942310
-942654
-942865
-942960
-943226
-943364
-943330
-943480
-943575
-943746
-943880
-943943
-944054
-944148
-944190
-944185
-944289
-944348
-944392
-944262
-944341
-944398
-944426
-944567
-944576
-944626
-944636
-944704
-944764
-944907
-944889
-944989
-944977
-945079
-945139
-945156
-945245
-945276
-945291
-945297
-945379
-945457
-945701
-945665
-945785
-945766
-945920
-946007
-946162
-946270
-946341
-946441
-946562
-946653
-946839
-947057
-947222
-947293
-947512
-947603
-947867
-947989
-948164
-948364
-948494
-948695
-948960
-949080
-949326
-949579
-949657
-949786
-950028
-950242
-950309
-950612
-950697
-950983
-951128
-951406
-951535
-951679
-951990
-952174
-952524
-952749
-953014
-953251
-953478
-953650
-954052
-954174
-954484
-954764
-955080
-955330
-955642
-955864
-956052
-956291
-956630
-956830
-957058
-957393
-957644
-957983
-958161
-958373
-958661
-958852
-959092
-959293
-959607
-959898
-960151
-960518
-960683
-961052
-961267
-961490
-961703
-962097
-962244
-962548
-962829
-963170
-963444
-963731
-963937
-964243
-964535
-964871
-965101
-965328
-965578
-966034
-966257
-966537
-966815
-967180
-967468
-967665
-967957
-968367
-968730
-968935
-969215
-969531
-969776
-970037
-970274
-970401
-970719
-970982
-971329
-971524
-971629
-971849
-971960
-972263
-972230
-972398
-972482
-972303
-972202
-972167
-972002
-971767
-971353
-970977
-970574
-970030
-969250
-968607
-967659
-966750
-965729
-964643
-963558
-962308
-961015
-959701
-958150
-956751
-955114
-953580
-952092
-950432
-948891
-947190
-945588
-944045
-942357
-940717
-939201
-937670
-936297
-934790
-933335
-932060
-930649
-929300
-928800
-927154
-925777
-924527
-923419
-922487
-921387
-920411
-919515
-918650
-917700
-916768
-916124
-915422
-914882
-914295
-913611
-913017
-912561
-912043
-911552
-911028
-911058
-910347
-909852
-909575
-909378
-909067
-908897
-908530
-908368
-908285
-908126
-907855
-907857
-907820
-907760
-907566
-907431
-907222
-907402
-907539
-907560
-907685
-907595
-907755
-907836
-907908
-907901
-908236
-908361
-908463
-908689
-908869
-908936
-909147
-909339
-909534
-909693
-909917
-910053
-910229
-910260
-910818
-911025
-911328
-911490
-911684
-911951
-912230
-912389
-912690
-912983
-913342
-913643
-913940
-914302
-914555
-914919
-915229
-915693
-916043
-916564
-916944
-917461
-917844
-918402
-918752
-919164
-919621
-919912
-920681
-921170
-921692
-922169
-922876
-923397
-923864
-924398
-925077
-925512
-926059
-926656
-927067
-927692
-928120
-928576
-929015
-929562
-930038
-930539
-931046
-931371
-931800
-932236
-932732
-933088
-933425
-933758
-934075
-934475
-934889
-935209
-935361
-935716
-935849
-936015
-936445
-936586
-936939
-937143
-937360
-937449
-937645
-937885
-938000
-938234
-938432
-938527
-938424
-938684
-938766
-938972
-939018
-939200
-939163
-939315
-939328
-939456
-939505
-939690
-939749
-939794
-939776
-939810
-939825
-939577
-939834
-939889
-939947
-940000
-940029
-940111
-940143
-940267
-940308
-940429
-940336
-940971
-940670
-940588
-940587
-940656
-940724
-940819
-940975
-941027
-941055
-941168
-941286
-941509
-941687
-941690
-941805
-941970
-942096
-942317
-942365
-942614
-942762
-942935
-943042
-942957
-943199
-943481
-943722
-943781
-944105
-944183
-944372
-944624
-944769
-945030
-945151
-945440
-945606
-945886
-946014
-946207
-946565
-946794
-946972
-947271
-948104
-947880
-947977
-948280
-948384
-948698
-949037
-949149
-949389
-949604
-949838
-950147
-950470
-950799
-950887
-951223
-951168
-951578
-951916
-952182
-952500
-952719
-952934
-953164
-953414
-953651
-954430
-954323
-954574
-954813
-955117
-955342
-955532
-955817
-956196
-956494
-956673
-956947
-957265
-957480
-957900
-958062
-958288
-958642
-958978
-959244
-959510
-959837
-960072
-960280
-960457
-960730
-961085
-961365
-961507
-961833
-962128
-962364
-962547
-962797
-963132
-963358
-963709
-963875
-964256
-964597
-964769
-964984
-965151
-965537
-965627
-965784
-965995
-966204
-966457
-966679
-966656
-966756
-966841
-966920
-966746
-966649
-966468
-966258
-965936
-965471
-964896
-964412
-963746
-962941
-962133
-961224
-960386
-959227
-958121
-956896
-955747
-954430
-952977
-951575
-950224
-948641
-947044
-945618
-944210
-942572
-941181
-939905
-938196
-936725
-935163
-933760
-932266
-931032
-929619
-927966
-926871
-925679
-924533
-923428
-922308
-921430
-920278
-919305
-918352
-917507
-916639
-915806
-915024
-914359
-913719
-912940
-912258
-911839
-910986
-910680
-910177
-909666
-909372
-908855
-908521
-908129
-907819
-907565
-907219
-907035
-906852
-906743
-906581
-906344
-906206
-906089
-905978
-905929
-906008
-906056
-906033
-905989
-906102
-906073
-906013
-906227
-906450
-906479
-906677
-906872
-906950
-907175
-907334
-907491
-907567
-907874
-908110
-908199
-908058
-908437
-908739
-908984
-909249
-909412
-909658
-909922
-910305
-910528
-910920
-911096
-911418
-911668
-912026
-912371
-912641
-913016
-913302
-913669
-913938
-914443
-914846
-915111
-915511
-915969
-916481
-916987
-917377
-917959
-918477
-918995
-919559
-919938
-920394
-921005
-921661
-922122
-922723
-923317
-923778
-924360
-924894
-925534
-926022
-926690
-927098
-927661
-928229
-928694
-929158
-929664
-930305
-930639
-931070
-931542
-931921
-932407
-932872
-933312
-933729
-934230
-934584
-934846
-935271
-935662
-935955
-936200
-936591
-936793
-937125
-937285
-937748
-937851
-938082
-938373
-938577
-938808
-938996
-939017
-939256
-939352
-939496
-939719
-939700
-939789
-939833
-939905
-940144
-940572
-940319
-940310
-940358
-940326
-940467
-940553
-940625
-940679
-940772
-940850
-940802
-940793
-940875
-940979
-940844
-941000
-941137
-941231
-941359
-941471
-941472
-941626
-941815
-941884
-941830
-941932
-941979
-942264
-942355
-942409
-942510
-942699
-942832
-942830
-943008
-943092
-943271
-943413
-943375
-943613
-943864
-944044
-944240
-944477
-944727
-944866
-945106
-945253
-945431
-945791
-945953
-946168
-946257
-946585
-946667
-946821
-947008
-947197
-947232
-947614
-947484
-947833
-948248
-948432
-948552
-948846
-948942
-949246
-949422
-949684
-949890
-950102
-950379
-950553
-950723
-951041
-951448
-951674
-951893
-951974
-952390
-952678
-952877
-953116
-953355
-953658
-953936
-954272
-954515
-954744
-955114
-955332
-955575
-955866
-956087
-957432
-957044
-957232
-957473
-957714
-957937
-958084
-958426
-958696
-958885
-959313
-959494
-959828
-960051
-960258
-960585
-960817
-961132
-961342
-961721
-962022
-962252
-962501
-962826
-963105
-963429
-963726
-964181
-964427
-964727
-965103
-965437
-965703
-966017
-966358
-966676
-966821
-967270
-967549
-967793
-967953
-968218
-968452
-968687
-968904
-969124
-969279
-969428
-969595
-969700
-969903
-970007
-970095
-970140
-970136
-970211
-970043
-969749
-969467
-969257
-968740
-967998
-967697
-967559
-966290
-965383
-964331
-963266
-962197
-960992
-959783
-958380
-957184
-955672
-954215
-952657
-951236
-949736
-948283
-946768
-945186
-943772
-942232
-940830
-939223
-937821
-936490
-935080
-933671
-932331
-931045
-929626
-928559
-927493
-926304
-925314
-924348
-923374
-922468
-921420
-920546
-919729
-918986
-918257
-917596
-916844
-916158
-915296
-915013
-914567
-913963
-913511
-913133
-912756
-912419
-912223
-911840
-911679
-911413
-911229
-910884
-910807
-910589
-910389
-910319
-910230
-910176
-910158
-910048
-910060
-910153
-910209
-910174
-910323
-910408
-910596
-910550
-910822
-911025
-911108
-911302
-911373
-911583
-911746
-911893
-912187
-912352
-912600
-912846
-913226
-913165
-913504
-913836
-914078
-914421
-914713
-915081
-915254
-915593
-915889
-916146
-916482
-916668
-917022
-917409
-917676
-918048
-918416
-918739
-919254
-919648
-920130
-920585
-920999
-921458
-921913
-922470
-923045
-923564
-924000
-924527
-925282
-925757
-926350
-926912
-927276
-927905
-928725
-929198
-929782
-930288
-930899
-931467
-932018
-932542
-933002
-933599
-933942
-934560
-935088
-935434
-936002
-936410
-936783
-937202
-937529
-937952
-938360
-938723
-938891
-939297
-939536
-939730
-940058
-940297
-940512
-940714
-940987
-941177
-941385
-941475
-941447
-941725
-941832
-942004
-941988
-941921
-941965
-942027
-942132
-942221
-942186
-942155
-942231
-942261
-942306
-942353
-942453
-942584
-942557
-942644
-942621
-942654
-942637
-942596
-942656
-942691
-942839
-942792
-942871
-942849
-942803
-942768
-942771
-942765
-942793
-942829
-942921
-943852
-943258
-943125
-943118
-943104
-943325
-943176
-943289
-943451
-943526
-943645
-943698
-943868
-944038
-944112
-944188
-944353
-944529
-944480
-944654
-944894
-944929
-945078
-945268
-945392
-945542
-945691
-945847
-945980
-946203
-946428
-946637
-946844
-947133
-947270
-947475
-947714
-947824
-948087
-948144
-948431
-948632
-948824
-949040
-949164
-949440
-949691
-949812
-950001
-950187
-950487
-950698
-950827
-951237
-951366
-951675
-952743
-952404
-952480
-952674
-953013
-953051
-953354
-953682
-953897
-954020
-954404
-954588
-954875
-955082
-955313
-955556
-955856
-956151
-956302
-956623
-956925
-957172
-957454
-957697
-957970
-958203
-958535
-958798
-959199
-959467
-959659
-959891
-960255
-960528
-960918
-961220
-961535
-961767
-962096
-962505
-962799
-963067
-963306
-963606
-963994
-964323
-964683
-964833
-965065
-965500
-965781
-965966
-966222
-966438
-966672
-966860
-967100
-967085
-967269
-967347
-967274
-967332
-967221
-967148
-967079
-966797
-966508
-966154
-965750
-965296
-964727
-964073
-963397
-962493
-961635
-960650
-959678
-958554
-957383
-956199
-954878
-953612
-952362
-950866
-949504
-948102
-946739
-945307
-943934
-942378
-940994
-939583
-938060
-936632
-935276
-933911
-932633
-931386
-930175
-928827
-927632
-926421
-925393
-924379
-923300
-922246
-921377
-920498
-919558
-918724
-917971
-917362
-916776
-916097
-915534
-914868
-914341
-914013
-913556
-913186
-912678
-912397
-912068
-911692
-911536
-911284
-911049
-910966
-910731
-910570
-910500
-910502
-910489
-910153
-910197
-910184
-910253
-910318
-910261
-910400
-910503
-910642
-910793
-911012
-911129
-911110
-911427
-911496
-911637
-911958
-912094
-912226
-912629
-912788
-912972
-913226
-913515
-913672
-913871
-913975
-914303
-914998
-915015
-915178
-915520
-915785
-915759
-916285
-916629
-916992
-917535
-917945
-918886
-918875
-919174
-919643
-920046
-920574
-921059
-921545
-922036
-922438
-923713
-923790
-924245
-924602
-925250
-925657
-926144
-926928
-927421
-927956
-928555
-929189
-929754
-930277
-930708
-931307
-931946
-932462
-932757
-933370
-933927
-934424
-934979
-935491
-936014
-936306
-936759
-937160
-937523
-937980
-938238
-938640
-939036
-939296
-939535
-939909
-940135
-940399
-940504
-940807
-941003
-941164
-941478
-941518
-941636
-941922
-941997
-942197
-942305
-942464
-942584
-942681
-942868
-942822
-942823
-942891
-942981
-942964
-942845
-943129
-943072
-943246
-943133
-943318
-943337
-943329
-943415
-943465
-943500
-943578
-943406
-943599
-943541
-943596
-943662
-943669
-943533
-943752
-943699
-943722
-943894
-943891
-943890
-944080
-944069
-944155
-944295
-944270
-944424
-944481
-944604
-944600
-944826
-944888
-945058
-945174
-945366
-945435
-945584
-945691
-945874
-946147
-946140
-946435
-946550
-946691
-946934
-946995
-947040
-947285
-947364
-947575
-947778
-947842
-948103
-948195
-948368
-948484
-948641
-948865
-949096
-949329
-949478
-949705
-950005
-950157
-950409
-950547
-950770
-951043
-951304
-951541
-951778
-952108
-952368
-952668
-952877
-953137
-953386
-953661
-953767
-954077
-954280
-954493
-954870
-955173
-955266
-955477
-955773
-956056
-956272
-956496
-956769
-957105
-957347
-957686
-957888
-958204
-958455
-958815
-958982
-959114
-959384
-959731
-960103
-960179
-960420
-960779
-961103
-961365
-961672
-961976
-962140
-962326
-962577
-962881
-963162
-963488
-963754
-964063
-964281
-964242
-964840
-965111
-966075
-965750
-966039
-966322
-966475
-966700
-967027
-967250
-967535
-967736
-968013
-968317
-968656
-968909
-969020
-969182
-970207
-969815
-969917
-969963
-970067
-970115
-970108
-969925
-969745
-969530
-969257
-968962
-968486
-968075
-967535
-966858
-965829
-965069
-964062
-963152
-962040
-960807
-959516
-958236
-956773
-955287
-953906
-952261
-950633
-948986
-947489
-945968
-945070
-942976
-941114
-939473
-937984
-936514
-934914
-933481
-931977
-930583
-929138
-928663
-926944
-925568
-924336
-923045
-922006
-920946
-919905
-918879
-917847
-916996
-916089
-915290
-914425
-913524
-912918
-912374
-911632
-910988
-910442
-909988
-909406
-908958
-908590
-908211
-907835
-907547
-907292
-906935
-906711
-906491
-906321
-906109
-905987
-905849
-905840
-905645
-905571
-905545
-905580
-905461
-905410
-905485
-905449
-905624
-905646
-905689
-906388
-906033
-906026
-906046
-906121
-906253
-906450
-906545
-906661
-906941
-907113
-907215
-907376
-907612
-907845
-907976
-908291
-908610
-908771
-908889
-909058
-909296
-909517
-909852
-910115
-910360
-910719
-910926
-911122
-911393
-911776
-912044
-912441
-912713
-913130
-913556
-913899
-914389
-914790
-915303
-915818
-916153
-916620
-917075
-917573
-918151
-918671
-919119
-919783
-920323
-920842
-921348
-921820
-922298
-922830
-923403
-923972
-924460
-925002
-925375
-925967
-926505
-927050
-927398
-927835
-928253
-928566
-928968
-929534
-929951
-930237
-930692
-930939
-931272
-931762
-932070
-932370
-932850
-933079
-933424
-933618
-933900
-934227
-934439
-934676
-934926
-935083
-935434
-935508
-935635
-935883
-935921
-936088
-936168
-936325
