PPG
-1111600
-1111631
-1111797
-1111912
-1111988
-1112071
-1112262
-1112188
-1112352
-1112514
-1112671
-1112677
-1112671
-1112819
-1112881
-1113061
-1112967
-1112993
-1113155
-1113427
-1113515
-1113379
-1113472
-1113467
-1113529
-1113643
-1113666
-1113563
-1113841
-1113858
-1113966
-1114007
-1113926
-1113885
-1113981
-1113895
-1113955
-1113970
-1114052
-1114104
-1114053
-1114107
-1113963
-1113969
-1114139
-1114107
-1114103
-1114115
-1114103
-1114058
-1114172
-1114125
-1114192
-1114189
-1114300
-1114303
-1114311
-1114473
-1114463
-1114507
-1114697
-1114584
-1114729
-1114860
-1114971
-1114561
-1114907
-1114883
-1114916
-1115176
-1115271
-1115239
-1115252
-1115426
-1115375
-1115377
-1115394
-1115470
-1115610
-1115720
-1115535
-1115689
-1115735
-1115901
-1115850
-1115864
-1115973
-1115969
-1116032
-1116112
-1116169
-1116032
-1116081
-1116203
-1116274
-1116272
-1116182
-1116177
-1116305
-1116401
-1116403
-1116402
-1116391
-1116392
-1116337
-1116393
-1116540
-1116639
-1116681
-1116567
-1116636
-1116605
-1116600
-1116558
-1116676
-1116653
-1116750
-1116754
-1116810
-1116878
-1116903
-1117099
-1117214
-1117172
-1117100
-1117109
-1117198
-1117393
-1117418
-1117431
-1117449
-1117621
-1117595
-1117403
-1117386
-1117451
-1117617
-1117657
-1117522
-1117573
-1117647
-1117762
-1117855
-1117839
-1117836
-1117855
-1117867
-1117918
-1117995
-1118171
-1118214
-1118311
-1118371
-1118402
-1118451
-1118642
-1118766
-1118918
-1118810
-1118882
-1118988
-1119192
-1119170
-1119114
-1119093
-1119184
-1119277
-1119375
-1119325
-1119258
-1119396
-1119445
-1119547
-1119400
-1119518
-1119556
-1119717
-1119685
-1119649
-1119577
-1119861
-1119838
-1119983
-1120019
-1119985
-1120278
-1120401
-1120454
-1120500
-1120487
-1120483
-1120551
-1120706
-1120699
-1120675
-1120689
-1120980
-1120979
-1120970
-1121003
-1121104
-1121251
-1121391
-1121331
-1121296
-1121371
-1121435
-1121461
-1121549
-1121690
-1121800
-1121768
-1121997
-1121845
-1121857
-1122022
-1122086
-1122271
-1122261
-1122057
-1122340
-1122608
-1122666
-1122678
-1122693
-1122888
-1122974
-1123036
-1123106
-1123214
-1123234
-1123318
-1123425
-1123565
-1123636
-1123734
-1123902
-1124000
-1123928
-1124083
-1123915
-1124034
-1124154
-1124131
-1124184
-1124488
-1124334
-1124360
-1124301
-1124162
-1124276
-1124482
-1124473
-1124551
-1124464
-1124458
-1124579
-1124735
-1124635
-1124814
-1124869
-1124945
-1125055
-1125027
-1125239
-1125323
-1125403
-1125474
-1125531
-1125501
-1125658
-1125712
-1125807
-1125928
-1125880
-1126153
-1126267
-1126309
-1126290
-1126440
-1126678
-1126847
-1126957
-1126929
-1126896
-1127089
-1127219
-1127265
-1127333
-1127249
-1127483
-1127646
-1127631
-1127645
-1127648
-1127829
-1127962
-1127973
-1127979
-1128145
-1128131
-1128380
-1128481
-1128470
-1128419
-1128503
-1128756
-1128849
-1128772
-1128764
-1128924
-1129185
-1129284
-1129123
-1129236
-1129372
-1129611
-1129624
-1129664
-1129728
-1129790
-1129764
-1129800
-1130059
-1130092
-1130198
-1130273
-1130193
-1130237
-1130340
-1130330
-1130493
-1130718
-1130728
-1130659
-1130744
-1130886
-1130908
-1130933
-1130860
-1130962
-1131043
-1130980
-1130944
-1130784
-1130744
-1130709
-1130579
-1130460
-1130132
-1130027
-1129927
-1129765
-1129409
-1129156
-1128868
-1128788
-1128695
-1128135
-1127974
-1127851
-1127644
-1127342
-1126921
-1126765
-1126477
-1126419
-1126221
-1125858
-1125597
-1125488
-1125232
-1125143
-1124848
-1124766
-1124615
-1124591
-1124599
-1124479
-1124388
-1124310
-1124197
-1124256
-1124302
-1124162
-1124159
-1124243
-1124236
-1124192
-1124386
-1124456
-1124515
-1124545
-1124710
-1124717
-1124924
-1125162
-1125084
-1125246
-1125293
-1125502
-1125698
-1125681
-1125644
-1125822
-1125999
-1126110
-1126172
-1126224
-1126459
-1126673
-1126786
-1126803
-1126795
-1126938
-1127186
-1127391
-1127383
-1127306
-1127440
-1127668
-1127633
-1127793
-1127751
-1127810
-1128032
-1128150
-1128112
-1128178
-1128163
-1128260
-1128275
-1128291
-1128460
-1128997
-1128782
-1128694
-1128644
-1128550
-1128860
-1128976
-1129036
-1128976
-1129076
-1129171
-1129256
-1129395
-1129288
-1129398
-1129666
-1129714
-1129747
-1129650
-1129779
-1129977
-1129978
-1129996
-1129968
-1130172
-1130341
-1130444
-1130441
-1130483
-1130613
-1130785
-1130804
-1130872
-1130852
-1130841
-1131019
-1131133
-1130953
-1130993
-1131103
-1131329
-1131258
-1131190
-1131424
-1131563
-1131529
-1131619
-1131506
-1131597
-1131712
-1131828
-1131823
-1131654
-1131848
-1131926
-1131883
-1131902
-1131920
-1131972
-1132037
-1132107
-1132068
-1132033
-1132098
-1132280
-1132270
-1132391
-1132314
-1132410
-1132382
-1132474
-1132329
-1132485
-1132552
-1132629
-1132813
-1132733
-1132786
-1132956
-1133063
-1133177
-1133182
-1133022
-1133101
-1133195
-1133284
-1133149
-1133269
-1133479
-1133741
-1133809
-1133902
-1133813
-1134009
-1134012
-1134190
-1134216
-1134268
-1134299
-1134419
-1134636
-1134584
-1134786
-1134830
-1135052
-1134805
-1135080
-1135108
-1135169
-1135221
-1135438
-1135546
-1135428
-1135658
-1135732
-1135780
-1135906
-1135835
-1135908
-1136069
-1136214
-1136197
-1136142
-1136343
-1136494
-1136574
-1136649
-1136687
-1136679
-1136806
-1136999
-1137053
-1137126
-1137103
-1137308
-1137406
-1137434
-1137387
-1137543
-1137666
-1137643
-1137674
-1137693
-1137792
-1137997
-1138094
-1138171
-1138097
-1138261
-1138294
-1138392
-1138464
-1138559
-1138713
-1138726
-1138747
-1138632
-1138654
-1138628
-1138944
-1139088
-1139294
-1139283
-1139294
-1139351
-1139455
-1139557
-1139560
-1139767
-1139760
-1139807
-1139884
-1139888
-1139952
-1140114
-1140215
-1140339
-1140314
-1140478
-1140629
-1140636
-1140699
-1140742
-1140784
-1140698
-1140885
-1141050
-1141119
-1141287
-1141219
-1141301
-1141295
-1141450
-1141675
-1141636
-1141788
-1141887
-1141796
-1141550
-1141924
-1142165
-1142120
-1142217
-1142272
-1142374
-1142400
-1142549
-1142527
-1142693
-1142731
-1142832
-1142979
-1142914
-1143120
-1143175
-1143284
-1143294
-1143444
-1143438
-1143588
-1143637
-1143631
-1143717
-1143926
-1144042
-1144054
-1144129
-1144020
-1144140
-1144233
-1144459
-1144377
-1144429
-1144707
-1144685
-1144836
-1144693
-1144796
-1144991
-1145113
-1145016
-1145086
-1145176
-1145244
-1145306
-1145326
-1145351
-1145549
-1145657
-1145693
-1145785
-1145802
-1145769
-1145976
-1146073
-1146134
-1146120
-1146058
-1146112
-1146353
-1146293
-1146330
-1146450
-1146526
-1146551
-1146700
-1146840
-1146800
-1146972
-1147066
-1147028
-1147160
-1147309
-1147387
-1147339
-1147371
-1147450
-1147466
-1147891
-1147900
-1147849
-1147821
-1147880
-1148027
-1148140
-1148143
-1148243
-1148252
-1148379
-1148480
-1148599
-1148649
-1148806
-1148786
-1148957
-1148828
-1148903
-1149039
-1149131
-1149181
-1149326
-1149271
-1149352
-1149367
-1149432
-1149608
-1149702
-1149566
-1149682
-1149780
-1149815
-1149791
-1149616
-1149696
-1149568
-1149651
-1149483
-1149291
-1149109
-1148924
-1148825
-1148582
-1148286
-1148181
-1147931
-1147536
-1147170
-1146955
-1146753
-1146460
-1146032
-1145759
-1145435
-1145220
-1144840
-1144579
-1144273
-1143940
-1143750
-1143557
-1143380
-1143155
-1142745
-1142729
-1142371
-1142296
-1142131
-1141860
-1141819
-1141796
-1141603
-1141626
-1141365
-1141413
-1141363
-1141442
-1141201
-1141172
-1141031
-1141288
-1141220
-1141199
-1141311
-1141340
-1141445
-1141439
-1141586
-1141554
-1141597
-1141767
-1141939
-1142027
-1142711
-1142400
-1142362
-1142398
-1142470
-1142396
-1142653
-1142745
-1142762
-1142741
-1142869
-1142961
-1143194
-1143261
-1143170
-1143166
-1143439
-1143455
-1143584
-1143629
-1143558
-1143722
-1143806
-1143862
-1143857
-1143893
-1143974
-1144076
-1143995
-1143981
-1143969
-1143910
-1144078
-1144093
-1144042
-1143981
-1144094
-1144042
-1144155
-1144047
-1144126
-1144218
-1144270
-1144220
-1144050
-1144180
-1144247
-1144145
-1144098
-1144154
-1144132
-1144220
-1144412
-1144395
-1144768
-1144575
-1144574
-1144714
-1144721
-1144613
-1144799
-1144914
-1144911
-1144931
-1145051
-1145032
-1145314
-1145389
-1145243
-1145334
-1145279
-1145603
-1145573
-1145602
-1145829
-1145735
-1145834
-1145926
-1146042
-1146242
-1146267
-1146338
-1146569
-1146635
-1146626
-1146846
-1146823
-1146865
-1146982
-1146898
-1146841
-1146946
-1147139
-1147177
-1147175
-1148001
-1147616
-1147461
-1147466
-1147341
-1147328
-1147413
-1147641
-1147359
-1147552
-1147478
-1147326
-1147641
-1147633
-1147730
-1147752
-1147868
-1147841
-1147910
-1147879
-1147831
-1148022
-1148125
-1148043
-1148033
-1148701
-1148244
-1148238
-1148277
-1148312
-1148335
-1148491
-1148434
-1148535
-1148457
-1148573
-1148721
-1148699
-1148744
-1148854
-1148924
-1148964
-1149082
-1149181
-1150029
-1149377
-1149395
-1149419
-1149531
-1149576
-1149610
-1149615
-1149796
-1149882
-1149914
-1149853
-1150026
-1150161
-1150287
-1150450
-1150584
-1150544
-1150735
-1150664
-1150777
-1150862
-1150912
-1150978
-1151100
-1151066
-1151168
-1151390
-1151324
-1151334
-1151347
-1151576
-1151723
-1151697
-1151629
-1151826
-1152008
-1151979
-1152023
-1152025
-1152055
-1152150
-1152187
-1152422
-1152405
-1152374
-1152475
-1152565
-1152549
-1152598
-1152647
-1152830
-1152764
-1152858
-1152909
-1152944
-1152915
-1152939
-1153114
-1153248
-1153231
-1153152
-1153223
-1153246
-1153345
-1153334
-1153403
-1153495
-1153516
-1153636
-1153641
-1153644
-1153747
-1153808
-1153824
-1153795
-1154023
-1154134
-1154175
-1154047
-1154115
-1154217
-1154288
-1154408
-1154411
-1154390
-1154605
-1154586
-1154597
-1154716
-1154739
-1154827
-1154913
-1154824
-1154911
-1155009
-1155120
-1155091
-1155088
-1155188
-1155330
-1155344
-1156305
-1155768
-1155510
-1155599
-1155549
-1155696
-1155688
-1155843
-1155820
-1155885
-1156022
-1155909
-1156027
-1155963
-1156114
-1156297
-1156220
-1156179
-1156241
-1156365
-1156559
-1156521
-1156485
-1156526
-1156708
-1156677
-1156769
-1156889
-1156876
-1157012
-1157034
-1156995
-1156946
-1157173
-1157272
-1157353
-1157298
-1157291
-1157393
-1157370
-1157434
-1157571
-1157691
-1157895
-1157937
-1158078
-1158112
-1158205
-1158162
-1158441
-1158470
-1158329
-1158374
-1158377
-1158435
-1158418
-1158575
-1158681
-1158695
-1158597
-1158846
-1158778
-1158872
-1158874
-1159036
-1159000
-1159134
-1159145
-1159074
-1159190
-1159334
-1159188
-1159247
-1159193
-1159487
-1159491
-1159454
-1159470
-1159496
-1159676
-1159683
-1159674
-1159772
-1159728
-1159809
-1159998
-1159808
-1159724
-1159819
-1159895
-1159793
-1159772
-1159665
-1159595
-1159484
-1159385
-1159053
-1159740
-1159058
-1158731
-1158477
-1158081
-1157725
-1157409
-1157176
-1156843
-1156509
-1156167
-1155948
-1155711
-1155530
-1155161
-1154856
-1154663
-1154323
-1154069
-1153676
-1153393
-1153211
-1152919
-1152552
-1152313
-1152028
-1151706
-1151621
-1151459
-1151169
-1151055
-1150706
-1150709
-1150613
-1150417
-1150203
-1150114
-1149974
-1149861
-1149895
-1149803
-1149763
-1149729
-1149668
-1149665
-1149571
-1149723
-1149717
-1149722
-1149818
-1149866
-1149848
-1149916
-1150074
-1150093
-1150026
-1150108
-1150317
-1150321
-1150263
-1150278
-1150262
-1150571
-1150660
-1150618
-1150646
-1150593
-1150691
-1150885
-1150792
-1150799
-1150969
-1150940
-1150917
-1150829
-1150883
-1150824
-1150971
-1150880
-1150885
-1150868
-1150922
-1150833
-1150797
-1150757
-1150660
-1150478
-1150722
-1150773
-1150758
-1150670
-1150652
-1150717
-1150661
-1150616
-1150514
-1150385
-1150466
-1150594
-1150609
-1150595
-1150685
-1150634
-1150833
-1150791
-1150747
-1150820
-1150774
-1150824
-1150843
-1150848
-1150835
-1151040
-1151151
-1151159
-1151170
-1151156
-1151420
-1151384
-1151425
-1151463
-1151562
-1151652
-1151833
-1151852
-1151876
-1152016
-1152077
-1152121
-1152281
-1152148
-1152352
-1152424
-1152547
-1152564
-1152614
-1152630
-1152790
-1152875
-1152839
-1152828
-1152805
-1153020
-1152700
-1153036
-1153072
-1153213
-1153244
-1153267
-1153028
-1153166
-1153286
-1153495
-1153455
-1153421
-1153410
-1153516
-1153461
-1153651
-1153664
-1153545
-1153535
-1153699
-1153840
-1153785
-1153637
-1153654
-1153795
-1153903
-1153957
-1153937
-1153839
-1153899
-1153893
-1153842
-1153864
-1153845
-1153747
-1153909
-1154036
-1154023
-1154127
-1154139
-1153977
-1154065
-1154033
-1153967
-1154151
-1154090
-1154030
-1154167
-1154112
-1154305
-1154289
-1154315
-1154380
-1154320
-1154488
-1154519
-1154470
-1154565
-1154546
-1154664
-1154832
-1154774
-1154825
-1154897
-1155026
-1155001
-1155080
-1155128
-1155049
-1155277
-1155327
-1155399
-1155427
-1155499
-1155475
-1155624
-1155706
-1155593
-1155669
-1155731
-1155789
-1155855
-1155911
-1155907
-1156077
-1156185
-1156237
-1156269
-1156438
-1156519
-1156515
-1156542
-1156616
-1156701
-1156774
-1156846
-1156968
-1157012
-1156901
-1157027
-1157166
-1157244
-1157353
-1157387
-1157616
-1157682
-1157622
-1157697
-1157598
-1157721
-1157889
-1157851
-1158007
-1158043
-1158241
-1158243
-1158299
-1158403
-1158487
-1158547
-1158570
-1158561
-1158666
-1158749
-1158825
-1158734
-1158855
-1158833
-1158842
-1158972
-1159086
-1159118
-1159176
-1159205
-1159364
-1159404
-1159363
-1159305
-1159546
-1159527
-1159560
-1159603
-1159673
-1159828
-1159783
-1159929
-1159910
-1160008
-1160009
-1160081
-1159984
-1160050
-1160108
-1160188
-1160237
-1160345
-1160202
-1160365
-1160444
-1160557
-1160441
-1160431
-1160595
-1160591
-1160679
-1160720
-1160653
-1160842
-1160868
-1160848
-1160913
-1161006
-1161078
-1161101
-1161165
-1161202
-1161167
-1161380
-1161437
-1161442
-1161428
-1161523
-1161636
-1161616
-1161782
-1161721
-1161798
-1161689
-1161905
-1161840
-1162050
-1162029
-1161967
-1162115
-1162077
-1162238
-1162273
-1162348
-1162442
-1162416
-1162495
-1162462
-1162595
-1162591
-1162609
-1162789
-1162676
-1162756
-1162898
-1162816
-1163012
-1163119
-1163190
-1163130
-1163238
-1163314
-1163389
-1163460
-1163709
-1163656
-1163603
-1163662
-1163748
-1163901
-1163952
-1164021
-1163905
-1163825
-1164082
-1164170
-1164277
-1164322
-1164332
-1164440
-1164546
-1164611
-1164546
-1164596
-1164631
-1164798
-1164757
-1164806
-1164663
-1164503
-1164721
-1164495
-1164381
-1165171
-1164499
-1164188
-1163913
-1163671
-1163566
-1163474
-1163185
-1162803
-1162609
-1162229
-1162132
-1161873
-1161597
-1161229
-1160959
-1160731
-1160477
-1160167
-1159863
-1159608
-1159224
-1158916
-1158620
-1158043
-1158095
-1157954
-1157728
-1157585
-1157275
-1157131
-1156978
-1156758
-1156635
-1156483
-1156422
-1156365
-1156204
-1156173
-1156032
-1156060
-1156044
-1156086
-1155995
-1156005
-1155945
-1156092
-1156108
-1156140
-1156032
-1156025
-1156143
-1156184
-1156143
-1156189
-1156294
-1156650
-1156638
-1156498
-1156542
-1156638
-1156752
-1156831
-1156880
-1157032
-1157011
-1157227
-1157262
-1157381
-1157445
-1157459
-1157159
-1157456
-1157614
-1157626
-1157653
-1157908
-1158011
-1157550
-1157825
-1157832
-1157982
-1157952
-1157871
-1157778
-1157854
-1157838
-1157874
-1157852
-1157837
-1157763
-1157897
-1157821
-1157742
-1157824
-1157845
-1157903
-1157773
-1157665
-1157552
-1157673
-1157786
-1157767
-1157761
-1157601
-1157693
-1157669
-1157773
-1157939
-1158555
-1158066
-1158117
-1158148
-1158092
-1158027
-1157972
-1158223
-1158281
-1158443
-1158378
-1158606
-1158753
-1158816
-1158732
-1158943
-1158804
-1158960
-1159044
-1159138
-1159017
-1159204
-1159383
-1159415
-1159555
-1159652
-1159841
-1159897
-1159645
-1159700
-1159785
-1159949
-1160038
-1160105
-1160208
-1160147
-1160188
-1160340
-1160299
-1160355
-1160340
-1160440
-1160474
-1160472
-1160500
-1160457
-1160560
-1160756
-1160752
-1160754
-1160668
-1160762
-1160899
-1160881
-1161049
-1161023
-1161066
-1161075
-1161082
-1161071
-1161040
-1161276
-1161235
-1161373
-1161326
-1161418
-1161406
-1161473
-1161405
-1161475
-1161413
-1161629
-1161646
-1161759
-1161618
-1161669
-1161651
-1161928
-1162055
-1161996
-1161948
-1162031
-1162183
-1162156
-1162207
-1162206
-1162309
-1162523
-1162461
-1162503
-1162431
-1162653
-1162766
-1162748
-1162827
-1162939
-1163029
-1163024
-1163221
-1163309
-1163133
-1163310
-1163341
-1163496
-1163523
-1163575
-1163636
-1163767
-1163753
-1163860
-1163923
-1164003
-1164150
-1164138
-1164266
-1164117
-1164322
-1164396
-1164513
-1164443
-1164455
-1164669
-1164715
-1164727
-1164688
-1164781
-1164946
-1164989
-1165015
-1165185
-1165033
-1165181
-1165369
-1165345
-1165448
-1165586
-1165481
-1165531
-1165663
-1165813
-1165858
-1165938
-1165646
-1166004
-1166090
-1166072
-1166315
-1166339
-1166392
-1166373
-1166388
-1166616
-1166705
-1166735
-1166770
-1166908
-1166945
-1167118
-1167260
-1167156
-1167233
-1167224
-1167386
-1167518
-1167397
-1167537
-1167660
-1167819
-1167885
-1167879
-1167948
-1167939
-1168003
-1168038
-1168047
-1168145
-1168278
-1168488
-1168334
-1168393
-1168604
-1168668
-1168698
-1168739
-1168874
-1168795
-1168983
-1168976
-1169065
-1169058
-1169199
-1169334
-1169363
-1169352
-1169485
-1169551
-1169655
-1169640
-1169719
-1169553
-1169710
-1169885
-1169982
-1170075
-1170134
-1170135
-1170345
-1170340
-1170444
-1170409
-1170552
-1170729
-1170741
-1170565
-1170799
-1170845
-1170993
-1171067
-1171826
-1171368
-1171212
-1171293
-1171434
-1171402
-1171562
-1171463
-1171689
-1171757
-1171844
-1171785
-1171956
-1172049
-1172088
-1172181
-1172248
-1172259
-1172408
-1172427
-1172484
-1172522
-1172506
-1172657
-1172741
-1172897
-1172867
-1172962
-1173123
-1173186
-1173191
-1173283
-1173327
-1173904
-1173451
-1173508
-1173362
-1173354
-1173440
-1173457
-1173433
-1173348
-1173273
-1173340
-1173211
-1173078
-1172891
-1172708
-1172736
-1172647
-1172330
-1172023
-1171844
-1171515
-1171371
-1171090
-1170772
-1170449
-1170292
-1169976
-1169646
-1169427
-1169195
-1168823
-1168532
-1168331
-1168126
-1167754
-1167601
-1167416
-1167284
-1166944
-1166731
-1166697
-1166423
-1166376
-1166179
-1165920
-1165884
-1165846
-1165775
-1165580
-1165495
-1166331
-1165806
-1165676
-1165400
-1165430
-1165467
-1165548
-1165494
-1165403
-1165593
-1165809
-1165731
-1165670
-1165789
-1166003
-1166058
-1166004
-1165603
-1165875
-1166097
-1166277
-1166362
-1166402
-1166440
-1166464
-1166547
-1166594
-1166471
-1166635
-1166807
-1166860
-1166978
-1167057
-1167156
-1167031
-1167066
-1167047
-1167119
-1167045
-1167109
-1167147
-1167197
-1167150
-1167152
-1167286
-1167236
-1167357
-1167298
-1167092
-1167213
-1167230
-1167305
-1167243
-1167258
-1167137
-1167195
-1167161
-1167123
-1167160
-1167137
-1167230
-1167262
-1167182
-1167337
-1167336
-1167451
-1167368
-1167323
-1167486
-1167601
-1167541
-1167690
-1167711
-1167641
-1167766
-1167907
-1167970
-1167826
-1167895
-1168106
-1168105
-1168192
-1168266
-1168185
-1168451
-1168536
-1168463
-1168484
-1168492
-1168629
-1168762
-1168683
-1168653
-1168691
-1168833
-1168927
-1168900
-1168806
-1168906
-1168979
-1169113
-1169076
-1169026
-1168973
-1169140
-1169094
-1169093
-1169078
-1168993
-1168978
-1169084
-1169109
-1169214
-1169050
-1169105
-1168929
-1169159
-1169263
-1169154
-1169334
-1169341
-1169171
-1169126
-1169256
-1169299
-1169369
-1169325
-1169218
-1169253
-1169252
-1169286
-1169187
-1169261
-1169442
-1169444
-1169371
-1169430
-1169412
-1169503
-1169459
-1169535
-1169587
-1169584
-1169609
-1169823
-1169702
-1169758
-1169737
-1169897
-1169965
-1169993
-1169938
-1170001
-1170188
-1170171
-1170200
-1170239
-1170306
-1170413
-1170515
-1170534
-1170604
-1170597
-1170599
-1170740
-1170881
-1170838
-1170859
-1170828
-1170968
-1170945
-1171022
-1171043
-1171232
-1171198
-1171195
-1171402
-1171414
-1171351
-1171446
-1171506
-1171473
-1171511
-1171619
-1171679
-1171582
-1171740
-1171756
-1171780
-1171802
-1171949
-1171960
-1171926
-1171997
-1172193
-1172077
-1172161
-1172264
-1172336
-1172342
-1172319
-1172317
-1172466
-1172512
-1172565
-1172623
-1172589
-1172624
-1172784
-1172700
-1172784
-1172520
-1172812
-1172981
-1172974
-1173050
-1173049
-1173132
-1173143
-1173111
-1173139
-1173169
-1173290
-1173194
-1173300
-1173380
-1173398
-1173428
-1173434
-1173485
-1173534
-1173486
-1173566
-1173731
-1173702
-1173722
-1173605
-1173528
-1173826
-1173861
-1173887
-1173810
-1173979
-1173958
-1174109
-1174093
-1174245
-1174403
-1174425
-1174399
-1174463
-1174596
-1174695
-1174661
-1174753
-1174722
-1174789
-1175007
-1175001
-1175066
-1174999
-1175053
-1175139
-1175225
-1175411
-1175306
-1175362
-1175543
-1175580
-1175597
-1175617
-1175699
-1175771
-1175734
-1175790
-1175907
-1175869
-1176041
-1176027
-1176068
-1176097
-1176217
-1176129
-1176335
-1175971
-1176194
-1176370
-1176368
-1176414
-1176482
-1176529
-1176494
-1176671
-1176635
-1176666
-1176652
-1176715
-1176818
-1176773
-1176658
-1176635
-1176520
-1176523
-1176461
-1176328
-1176333
-1176091
-1176064
-1175903
-1175733
-1175497
-1175252
-1175167
-1174802
-1174609
-1174174
-1173985
-1173763
-1173410
-1173055
-1172864
-1172473
-1172190
-1171930
-1171647
-1171383
-1171086
-1170985
-1170715
-1170444
-1170170
-1169799
-1169689
-1169505
-1169367
-1169176
-1168942
-1168840
-1168751
-1168601
-1168400
-1168366
-1168229
-1168170
-1168089
-1167931
-1167938
-1167957
-1167886
-1167916
-1167787
-1167809
-1167950
-1168081
-1167962
-1168005
-1167930
-1168118
-1168198
-1168130
-1168191
-1168099
-1168325
-1168373
-1168396
-1168312
-1168323
-1168448
-1168539
-1168556
-1168717
-1168543
-1168530
-1168631
-1168779
-1168766
-1168804
-1168888
-1168593
-1168842
-1168772
-1168795
-1168942
-1169012
-1168888
-1168881
-1168612
-1168857
-1168973
-1168824
-1168951
-1168977
-1168965
-1168919
-1168646
-1168698
-1168697
-1168783
-1168860
-1168875
-1168800
-1168709
-1168839
-1168827
-1168757
-1168696
-1168757
-1168891
-1168966
-1168942
-1168867
-1168850
-1168935
-1169077
-1169051
-1169110
-1168970
-1169156
-1169213
-1169297
-1169119
-1169199
-1169270
-1169406
-1169352
-1169412
-1169509
-1169448
-1169585
-1169730
-1169708
-1169604
-1169683
-1169747
-1169765
-1169636
-1169562
-1169733
-1169797
-1169818
-1169694
-1169676
-1169678
-1169670
-1169623
-1169714
-1169770
-1169785
-1169736
-1169629
-1169673
-1169708
-1169727
-1169659
-1169556
-1169638
-1169575
-1169681
-1169643
-1169526
-1169498
-1169488
-1169533
-1169497
-1169457
-1169443
-1169425
-1169574
-1169527
-1169507
-1169613
-1169657
-1169654
-1169555
-1169525
-1169540
-1169672
-1169811
-1169761
-1169651
-1169707
-1169904
-1169955
-1169961
-1170024
-1169987
-1169938
-1169964
-1170132
-1170071
-1170034
-1170258
-1170357
-1170331
-1170260
-1170274
-1170475
-1170597
-1170570
-1170440
-1170498
-1170540
-1171505
-1170909
-1170863
-1170816
-1170871
-1171040
-1171017
-1170979
-1170702
-1171018
-1171221
-1171212
-1171207
-1171111
-1171385
-1171435
-1171402
-1171353
-1171375
-1171635
-1171653
-1171515
-1171503
-1171706
-1171840
-1171870
-1171878
-1171815
-1171816
-1171984
-1172100
-1171933
-1171897
-1172393
-1172291
-1172179
-1172218
-1172189
-1172135
-1172334
-1172392
-1172314
-1172340
-1172383
-1172405
-1172567
-1172536
-1172593
-1172598
-1172558
-1172605
-1172665
-1172634
-1172655
-1172707
-1172904
-1173009
-1172983
-1172941
-1172938
-1173118
-1173061
-1173008
-1173064
-1173162
-1173383
-1173350
-1173374
-1173262
-1173461
-1173429
-1173443
-1173155
-1173422
-1173517
-1173730
-1173751
-1173749
-1173736
-1173769
-1173787
-1173760
-1173702
-1173871
-1173888
-1173862
-1173578
-1173867
-1174000
-1174213
-1174241
-1174309
-1174155
-1174321
-1174374
-1174468
-1174395
-1174344
-1174458
-1174661
-1174721
-1174588
-1174699
-1174737
-1174766
-1174703
-1174834
-1174917
-1174928
-1175010
-1174977
-1174971
-1174932
-1174996
-1175070
-1175154
-1175026
-1175084
-1175238
-1175350
-1175375
-1175254
-1175472
-1175456
-1175477
-1175528
-1175492
-1175666
-1175752
-1175735
-1175826
-1175759
-1175765
-1175998
-1176073
-1176150
-1176076
-1176080
-1176342
-1176268
-1176248
-1176405
-1176411
-1176546
-1176585
-1176528
-1176480
-1176527
-1176650
-1176751
-1176713
-1176753
-1176749
-1176900
-1176868
-1176890
-1176903
-1176813
-1176960
-1176988
-1176870
-1176598
-1176521
-1176664
-1176449
-1176296
-1176076
-1175964
-1175838
-1175617
-1175337
-1174978
-1174775
-1174561
-1174335
-1173973
-1173483
-1173206
-1173044
-1172648
-1172331
-1171954
-1171737
-1171337
-1171142
-1170709
-1170321
-1170103
-1170004
-1169772
-1169452
-1169199
-1168988
-1168672
-1168537
-1168277
-1168160
-1168006
-1167829
-1167564
-1167436
-1167282
-1167263
-1167224
-1167178
-1166860
-1166951
-1167090
-1167054
-1167618
-1167117
-1166865
-1166986
-1166956
-1167015
-1166968
-1166803
-1166817
-1167003
-1166939
-1166925
-1166907
-1166978
-1167061
-1166940
-1167060
-1167007
-1167000
-1167076
-1167184
-1167175
-1167080
-1167117
-1167170
-1167183
-1167026
-1166946
-1166912
-1166924
-1166888
-1166910
-1166884
-1166797
-1166675
-1166784
-1166580
-1166455
-1166472
-1166450
-1166445
-1166417
-1166350
-1166231
-1166292
-1166137
-1166064
-1166025
-1165920
-1165965
-1165808
-1165713
-1165693
-1165733
-1165695
-1165782
-1165662
-1165479
-1165502
-1165408
-1165486
-1165483
-1165372
-1165408
-1165368
-1165442
-1165340
-1165438
-1165433
-1165519
-1165501
-1165531
-1165574
-1165731
-1165663
-1165669
-1165759
-1165785
-1165837
-1165899
-1165914
-1166070
-1166087
-1166217
-1166200
-1166244
-1166313
-1166378
-1166485
-1166726
-1166575
-1166695
-1166790
-1166725
-1166735
-1166772
-1166813
-1166999
-1166981
-1167112
-1167012
-1167104
-1167153
-1167268
-1167052
-1167037
-1167096
-1167049
-1167041
-1167048
-1166976
-1167093
-1167030
-1167124
-1167059
-1167016
-1167062
-1167089
-1167059
-1167028
-1166993
-1166986
-1167007
-1166999
-1167019
-1166995
-1167007
-1167018
-1167012
-1166994
-1167033
-1167089
-1167058
-1167042
-1167123
-1167079
-1167024
-1166955
-1167208
-1167222
-1167120
-1167153
-1167303
-1167332
-1167391
-1167246
-1167332
-1167316
-1167555
-1167237
-1167397
-1167639
-1167646
-1167608
-1167846
-1167878
-1167800
-1167847
-1167990
-1168047
-1168022
-1168182
-1168310
-1168382
-1168412
-1168355
-1168513
-1168548
-1168715
-1168749
-1169005
-1168861
-1168910
-1169131
-1168894
-1169141
-1169262
-1169328
-1169390
-1169490
-1169527
-1169556
-1169724
-1169810
-1169829
-1169967
-1170049
-1170037
-1170199
-1170304
-1170244
-1170257
-1170374
-1170457
-1170459
-1170437
-1170598
-1170747
-1170728
-1170719
-1170877
-1171005
-1170940
-1171103
-1171238
-1171111
-1171157
-1171175
-1171335
-1171402
-1171278
-1171471
-1171512
-1172247
-1171698
-1171526
-1171458
-1171517
-1171671
-1171684
-1171559
-1171737
-1171828
-1171821
-1171815
-1171912
-1171937
-1171959
-1171997
-1171979
-1171943
-1171990
-1172072
-1172238
-1172321
-1172193
-1172143
-1172302
-1172442
-1172542
-1172467
-1172405
-1172550
-1172541
-1172548
-1172542
-1172701
-1172707
-1172930
-1172955
-1172963
-1172857
-1172936
-1173249
-1173193
-1173223
-1173259
-1173324
-1173478
-1173355
-1173345
-1173481
-1173502
-1173564
-1173573
-1173554
-1173601
-1173649
-1173797
-1173952
-1173857
-1173919
-1173832
-1173989
-1174135
-1174294
-1174276
-1174348
-1174450
-1174448
-1174407
-1174478
-1174460
-1174605
-1174768
-1174726
-1174840
-1174736
-1174987
-1174955
-1174914
-1174947
-1174964
-1175120
-1175175
-1175227
-1175286
-1175272
-1175360
-1175340
-1175276
-1175353
-1175525
-1175619
-1175684
-1175553
-1175539
-1175561
-1175547
-1175522
-1175466
-1175600
-1175631
-1175657
-1175600
-1175680
-1175772
-1175785
-1175855
-1175870
-1175972
-1175882
-1175867
-1175890
-1175898
-1175790
-1175740
-1175770
-1175712
-1175632
-1175478
-1175151
-1175135
-1175022
-1174910
-1174628
-1174369
-1174205
-1174194
-1173972
-1173562
-1173205
-1172999
-1172749
-1172550
-1172132
-1171786
-1172467
-1171514
-1171038
-1170806
-1170497
-1170126
-1170090
-1169711
-1169472
-1169123
-1168875
-1168737
-1168574
-1168343
-1168072
-1167958
-1167900
-1167737
-1167490
-1167460
-1167342
-1167186
-1167143
-1167130
-1166918
-1166917
-1166976
-1166807
-1166840
-1166750
-1166868
-1166813
-1166914
-1167006
-1166928
-1166924
-1166961
-1166980
-1166908
-1167008
-1167115
-1167203
-1167222
-1167279
-1167209
-1167279
-1167358
-1167431
-1167455
-1167477
-1167526
-1167552
-1167481
-1167401
-1167613
-1167685
-1167622
-1167680
-1167695
-1167606
-1167684
-1167701
-1167599
-1167653
-1168212
-1167833
-1167700
-1167663
-1167736
-1167758
-1167663
-1167545
-1167590
-1167476
-1167470
-1167590
-1167622
-1167480
-1167485
-1167524
-1167507
-1167513
-1167436
-1167443
-1167537
-1167575
-1167530
-1167594
-1167701
-1167670
-1167629
-1167641
-1167677
-1167717
-1167781
-1167869
-1167866
-1168000
-1168098
-1168210
-1168408
-1168330
-1168453
-1168552
-1168493
-1168631
-1168649
-1168602
-1168685
-1168699
-1168685
-1168652
-1168585
-1168683
-1168675
-1168697
-1168597
-1168689
-1168786
-1168716
-1168921
-1168894
-1168794
-1168767
-1168696
-1168846
-1168700
-1168535
-1168590
-1168731
-1168774
-1168613
-1168587
-1168661
-1168773
-1168664
-1168750
-1168657
-1168710
-1168722
-1168887
-1168821
-1168652
-1168782
-1168820
-1168835
-1168772
-1168838
-1168873
-1168915
-1168998
-1168965
-1169065
-1169050
-1169120
-1169175
-1169110
-1169157
-1169180
-1169280
-1169503
-1169550
-1169389
-1169527
-1169662
-1169647
-1169741
-1169626
-1169716
-1169841
-1169919
-1169951
-1169830
-1169885
-1170031
-1170155
-1170159
-1170067
-1170195
-1170274
-1170427
-1170361
-1170330
-1170355
-1170534
-1170600
-1170697
-1170513
-1170705
-1170545
-1170642
-1170747
-1170665
-1170851
-1170760
-1170934
-1170856
-1170988
-1171037
-1171023
-1171214
-1171138
-1171095
-1171272
-1171323
-1170969
-1171242
-1171260
-1171426
-1171603
-1171215
-1171488
-1171451
-1171560
-1171690
-1171723
-1171842
-1171812
-1171811
-1172023
-1172133
-1172068
-1171969
-1172101
-1172216
-1172340
-1172311
-1172206
-1172277
-1172270
-1172466
-1172498
-1172505
-1172440
-1172543
-1172712
-1172587
-1172567
-1172640
-1172840
-1172946
-1172865
-1172878
-1172839
-1172979
-1173127
-1173077
-1173108
-1173123
-1173145
-1173305
-1173314
-1173285
-1173286
-1173473
-1173552
-1173589
-1173441
-1173427
-1173454
-1173672
-1173659
-1173566
-1173705
-1173707
-1173853
-1173978
-1173774
-1173875
-1174041
-1174053
-1174113
-1174092
-1174207
-1174174
-1174298
-1174224
-1174105
-1174238
-1174460
-1174352
-1174388
-1174421
-1174548
-1174609
-1174642
-1174728
-1174727
-1174688
-1174818
-1174999
-1175006
-1174995
-1174941
-1175128
-1175174
-1175193
-1175172
-1175265
-1175442
-1175513
-1175528
-1175518
-1175543
-1175641
-1175801
-1175651
-1175617
-1175748
-1175883
-1176022
-1176005
-1176036
-1176145
-1176131
-1176139
-1176146
-1176239
-1176254
-1176288
-1176393
-1176514
-1176417
-1176372
-1176563
-1176503
-1176438
-1176449
-1176444
-1176311
-1176263
-1176075
-1175943
-1175781
-1175684
-1175469
-1175299
-1175122
-1174930
-1174593
-1174294
-1174152
-1173693
-1173441
-1173276
-1172894
-1172693
-1172332
-1172021
-1171683
-1171381
-1170982
-1170851
-1170541
-1170245
-1170107
-1169888
-1169586
-1169196
-1169211
-1168981
-1168664
-1168435
-1168406
-1168289
-1168142
-1168002
-1167657
-1167656
-1167593
-1167547
-1167508
-1167270
-1167145
-1167259
-1167276
-1167269
-1167134
-1167127
-1167190
-1167282
-1167290
-1167179
-1166865
-1167180
-1167242
-1167286
-1167270
-1167343
-1167351
-1167516
-1167048
-1167304
-1167606
-1167698
-1167816
-1167817
-1167751
-1167857
-1167953
-1167926
-1167878
-1167838
-1167867
-1167942
-1167879
-1168011
-1167877
-1167546
-1167904
-1167856
-1167652
-1167796
-1167489
-1167809
-1167839
-1167715
-1167762
-1167736
-1167597
-1167395
-1167473
-1167351
-1167378
-1167450
-1167409
-1167251
-1167222
-1167221
-1167306
-1167136
-1166930
-1166948
-1166997
-1167101
-1166957
-1166872
-1166944
-1167151
-1167060
-1167062
-1166958
-1167106
-1167177
-1167462
-1167275
-1167247
-1167307
-1167375
-1167502
-1167395
-1167375
-1167395
-1167542
-1167592
-1167632
-1167717
-1167842
-1168034
-1168188
-1168221
-1168256
-1168146
-1168356
-1168260
-1168410
-1168585
-1168594
-1168880
-1168861
-1168970
-1168807
-1168867
-1169174
-1169230
-1169175
-1169156
-1169185
-1169365
-1169366
-1169913
-1169478
-1169486
-1169436
-1169578
-1169598
-1169470
-1169526
-1169621
-1169747
-1169610
-1169425
-1169556
-1169659
-1169591
-1169202
-1169367
-1169592
-1169495
-1169592
-1169645
-1169518
-1169593
-1169674
-1169541
-1169526
-1169512
-1169524
-1169574
-1169570
-1169604
-1169679
-1169571
-1169619
-1169626
-1169676
-1169744
-1169767
-1169758
-1169785
-1169740
-1169791
-1169895
-1169892
-1170015
-1169866
-1169901
-1170035
-1170161
-1170057
-1170009
-1170038
-1170068
-1170348
-1170286
-1170234
-1170387
-1170547
-1170584
-1170587
-1170631
-1170704
-1170864
-1170699
-1170751
-1170645
-1170684
-1170761
-1170899
-1170977
-1171087
-1171073
-1171076
-1171229
-1171252
-1171903
-1171470
-1171499
-1171475
-1171462
-1171540
-1171585
-1171637
-1171656
-1171630
-1171588
-1171723
-1171879
-1171906
-1171913
-1171854
-1171985
-1172801
-1172400
-1172109
-1172009
-1172070
-1172088
-1172164
-1172212
-1172213
-1173396
-1172642
-1172487
-1172420
-1172439
-1172531
-1172490
-1172574
-1172649
-1172640
-1172726
-1172700
-1172715
-1172753
-1172825
-1172813
-1172911
-1172922
-1172868
-1172919
-1173037
-1173081
-1173087
-1173091
-1172893
-1173021
-1173163
-1173241
-1173321
-1173296
-1173328
-1173444
-1173536
-1173439
-1173533
-1173627
-1173695
-1173641
-1173724
-1173736
-1173765
-1173818
-1173928
-1173839
-1174029
-1174041
-1174197
-1174187
-1174237
-1174228
-1174229
-1174195
-1174328
-1174384
-1174500
-1174423
-1174485
-1174656
-1174669
-1174630
-1174777
-1174738
-1174794
-1174814
-1174811
-1175000
-1174985
-1174997
-1175062
-1175033
-1175048
-1175151
-1175262
-1175327
-1175240
-1175374
-1176110
-1175509
-1175466
-1175477
-1175486
-1175430
-1175487
-1175498
-1175476
-1175653
-1175659
-1175683
-1175764
-1175846
-1175820
-1175875
-1175872
-1175866
-1175959
-1175984
-1175967
-1175988
-1176057
-1176049
-1176054
-1176097
-1176088
-1176121
-1176045
-1175601
-1175802
-1175816
-1175580
-1175555
-1175361
-1175291
-1175149
-1174897
-1174620
-1175257
-1174619
-1174234
-1173904
-1173636
-1173392
-1173085
-1172874
-1172279
-1172224
-1172089
-1171891
-1171546
-1171246
-1170835
-1170649
-1170347
-1170211
-1169887
-1169620
-1169310
-1169245
-1169157
-1168872
-1168631
-1168484
-1168409
-1168225
-1168219
-1167943
-1167693
-1167764
-1167814
-1167655
-1167557
-1167479
-1167245
-1167465
-1167372
-1167350
-1167489
-1167450
-1167444
-1167380
-1167385
-1167523
-1167527
-1167520
-1167494
-1167593
-1167752
-1167876
-1167687
-1167733
-1167805
-1167936
-1167908
-1167803
-1167777
-1167845
-1168013
-1168100
-1168041
-1167929
-1168000
-1168099
-1168054
-1168048
-1168883
-1168177
-1168088
-1167907
-1167855
-1167804
-1167823
-1167878
-1167836
-1167795
-1167724
-1167838
-1167827
-1167746
-1167703
-1167554
-1167631
-1167636
-1167501
-1167592
-1167285
-1167552
-1167573
-1167440
-1167388
-1167375
-1167569
-1167610
-1167340
-1167509
-1168498
-1167837
-1167827
-1167639
-1167684
-1167918
-1167911
-1167905
-1167898
-1167860
-1167992
-1168215
-1168269
-1168255
-1168203
-1168161
-1168277
-1168348
-1168396
-1168500
-1168623
-1168627
-1168621
-1168602
-1168543
-1168803
-1168695
-1168651
-1168768
-1168743
-1168762
-1168854
-1168799
-1168772
-1169410
-1169124
-1168935
-1168709
-1168682
-1168777
-1168867
-1168777
-1168716
-1168773
-1169218
-1168941
-1168794
-1168644
-1168682
-1168580
-1168570
-1168666
-1168675
-1168500
-1168397
-1168599
-1168580
-1168479
-1168498
-1168436
-1168434
-1168574
-1168452
-1168446
-1168398
-1168555
-1168682
-1168580
-1168569
-1168480
-1168617
-1168691
-1168685
-1168721
-1168703
-1168812
-1168885
-1168816
-1168813
-1168845
-1168832
-1168968
-1168838
-1168911
-1168860
-1169089
-1169184
-1169114
-1169154
-1169190
-1169338
-1169466
-1169288
-1169344
-1169389
-1169270
-1169406
-1169451
-1169423
-1169625
-1169661
-1169660
-1169672
-1169748
-1169808
-1169835
-1169995
-1169943
-1170001
-1169831
-1170009
-1170154
-1170112
-1169997
-1170009
-1170114
-1170221
-1170233
-1170252
-1170324
-1170485
-1170465
-1170541
-1170616
-1170658
-1170744
-1170718
-1170839
-1170873
-1170740
-1170763
-1170937
-1170905
-1170865
-1171045
-1171121
-1171097
-1171197
-1171034
-1171173
-1171257
-1171333
-1171213
-1171249
-1171227
-1171396
-1171446
-1171457
-1171352
-1171393
-1171545
-1171609
-1171633
-1171621
-1171638
-1171632
-1171771
-1171761
-1171538
-1171517
-1171723
-1171725
-1171792
-1171656
-1171731
-1171858
-1171906
-1171971
-1171931
-1171993
-1171995
-1172136
-1172156
-1172186
-1172257
-1172227
-1172318
-1172385
-1172355
-1172356
-1172486
-1172483
-1172523
-1172436
-1172366
-1172621
-1172791
-1172788
-1172809
-1172752
-1172731
-1172959
-1173428
-1173089
-1173084
-1173176
-1173170
-1173212
-1173215
-1173294
-1173339
-1173223
-1173196
-1173278
-1173326
-1173459
-1173532
-1173539
-1173457
-1173614
-1173674
-1173804
-1173824
-1173803
-1173696
-1173930
-1174026
-1173876
-1173959
-1173963
-1174146
-1174283
-1174293
-1174152
-1174319
-1174419
-1174399
-1174435
-1174472
-1174439
-1174663
-1174648
-1174639
-1174749
-1174787
-1174832
-1174955
-1175068
-1175048
-1174949
-1175170
-1175134
-1175121
-1175047
-1175156
-1175352
-1175338
-1175265
-1175215
-1175354
-1175420
-1175411
-1175395
-1175320
-1175234
-1175080
-1174999
-1174794
-1174635
-1174599
-1174384
-1174297
-1174088
-1173724
-1173989
-1173424
-1173088
-1172790
-1172367
-1172194
-1171833
-1171513
-1171137
-1170890
-1170585
-1170645
-1170103
-1169652
-1170097
-1169363
-1169059
-1168796
-1168383
-1168205
-1168019
-1167720
-1167447
-1167204
-1167040
-1166987
-1166815
-1166433
-1166377
-1166301
-1166949
-1166414
-1166126
-1166011
-1165871
-1165974
-1165898
-1165849
-1165702
-1165653
-1165621
-1165751
-1165584
-1165486
-1165541
-1165699
-1165823
-1165678
-1165547
-1165675
-1165696
-1166465
-1165910
-1165564
-1165616
-1165625
-1165635
-1165625
-1165618
-1165493
-1165524
-1165332
-1165486
-1165485
-1165472
-1165454
-1165477
-1165419
-1165337
-1165239
-1165334
-1165332
-1165125
-1165024
-1164934
-1164909
-1164861
-1164767
-1164695
-1164639
-1164650
-1164569
-1164507
-1164283
-1164357
-1164282
-1164233
-1164100
-1164017
-1164073
-1164086
-1164064
-1163810
-1163822
-1163814
-1163874
-1163814
-1163577
-1163508
-1163528
-1163677
-1163614
-1163492
-1163578
-1163486
-1163608
-1163677
-1163537
-1163545
-1163672
-1163682
-1163654
-1163757
-1163555
-1163681
-1164737
-1164168
-1163886
-1164080
-1164154
-1164082
-1164200
-1164303
-1164321
-1164217
-1164418
-1164449
-1164490
-1164534
-1164520
-1164580
-1164816
-1164813
-1164724
-1164792
-1164966
-1164877
-1164869
-1164902
-1164923
-1165031
-1165132
-1165208
-1165082
-1165269
-1165321
-1165277
-1165286
-1165123
-1165290
-1165392
-1165255
-1165151
-1165249
-1165202
-1165302
-1165257
-1165314
-1165186
-1165277
-1165374
-1165459
-1165314
-1165135
-1165226
-1165268
-1165229
-1165315
-1165170
-1165178
-1164871
-1165213
-1165224
-1165140
-1165130
-1165326
-1165254
-1164911
-1165123
-1164869
-1165207
-1165326
-1165366
-1165325
-1165268
-1165308
-1165273
-1165292
-1165416
-1165407
-1166198
-1165800
-1165704
-1165644
-1165648
-1165732
-1165718
-1165700
-1165676
-1165719
-1165805
-1165882
-1166010
-1165936
-1166059
-1166119
-1166158
-1166233
-1166141
-1166348
-1166482
-1166421
-1166318
-1166472
-1166554
-1166680
-1166591
-1166503
-1166564
-1166669
-1166859
-1166880
-1166892
-1166909
-1166939
-1167047
-1167076
-1167037
-1167121
-1167249
-1167374
-1167345
-1167413
-1167429
-1167377
-1167565
-1167510
-1167544
-1167562
-1167536
-1167708
-1167833
-1167846
-1167738
-1167767
-1167834
-1167917
-1167648
-1167946
-1167938
-1168121
-1168132
-1168189
-1168150
-1168174
-1168243
-1168305
-1168328
-1168337
-1168477
-1168585
-1168625
-1168621
-1168579
-1168646
-1168614
-1168812
-1168778
-1168853
-1168836
-1169018
-1168962
-1168971
-1168974
-1169113
-1169188
-1169122
-1169188
-1169173
-1169212
-1169384
-1169441
-1169429
-1169359
-1169524
-1169516
-1169618
-1169756
-1169678
-1169802
-1169896
-1169561
-1169766
-1169975
-1169936
-1170171
-1170215
-1170228
-1170153
-1170251
-1170462
-1170576
-1170598
-1170529
-1170608
-1170687
-1170870
-1170737
-1170869
-1170984
-1170988
-1171040
-1171154
-1171211
-1171158
-1171343
-1171392
-1171367
-1171434
-1171474
-1171626
-1171580
-1171585
-1171881
-1171995
-1172088
-1172075
-1172123
-1172133
-1172268
-1172365
-1172383
-1172472
-1172506
-1172603
-1172679
-1172669
-1172605
-1172674
-1172685
-1172958
-1173127
-1173146
-1173021
-1173125
-1173197
-1173384
-1173402
-1173380
-1173526
-1173507
-1173529
-1173693
-1173741
-1173727
-1173778
-1173842
-1173922
-1173983
-1174045
-1174173
-1174288
-1174261
-1174131
-1174205
-1174351
-1174415
-1174424
-1174646
-1174763
-1174716
-1174828
-1174764
-1174907
-1175035
-1175073
-1175109
-1175125
-1175163
-1175292
-1175362
-1175380
-1175438
-1175395
-1175624
-1175681
-1175826
-1175712
-1175889
-1175996
-1175999
-1176079
-1176154
-1176214
-1176312
-1176195
-1176531
-1176573
-1176626
-1176517
-1176724
-1176778
-1176817
-1176892
-1176991
-1177050
-1177239
-1177179
-1177096
-1177346
-1177424
-1177443
-1177385
-1177552
-1177633
-1177748
-1177746
-1177742
-1177831
-1177946
-1178015
-1178201
-1178061
-1178110
-1178193
-1178467
-1178577
-1178416
-1178481
-1178617
-1178684
-1178802
-1178723
-1178765
-1178973
-1179079
-1179209
-1179243
-1179350
-1179335
-1179509
-1179424
-1179390
-1179535
-1179587
-1179716
-1179796
-1179773
-1179780
-1179903
-1180136
-1180133
-1180215
-1180290
-1180427
-1180483
-1180511
-1180607
-1180610
-1180699
-1180866
-1181012
-1180910
-1180927
-1180659
-1180951
-1181232
-1181209
-1181165
-1181083
-1181255
-1180893
-1180888
-1180991
-1180823
-1180817
-1180591
-1180346
-1180014
-1179811
-1179587
-1179349
-1179112
-1178853
-1178632
-1178338
-1177974
-1177517
-1177237
-1177012
-1176681
-1176401
-1175985
-1175544
-1175341
-1175086
-1174677
-1174296
-1174040
-1173741
-1173521
-1173247
-1173087
-1172843
-1172676
-1172607
-1172444
-1172236
-1172136
-1171941
-1171844
-1171699
-1171539
-1171586
-1171548
-1171506
-1171456
-1171282
-1171284
-1171233
-1171165
-1171260
-1171225
-1171233
-1171344
-1171470
-1171136
-1171402
-1171341
-1171412
-1171458
-1171468
-1171475
-1171572
-1171762
-1171748
-1171765
-1171729
-1171705
-1171940
-1171977
-1172102
-1172086
-1172147
-1172110
-1172029
-1172033
-1172040
-1172104
-1171976
-1171943
-1172011
-1171990
-1172066
-1172068
-1171955
-1171917
-1171790
-1171852
-1171625
-1171606
-1171624
-1171565
-1171573
-1171514
-1171468
-1171491
-1171425
-1171296
-1171302
-1171221
-1171875
-1172352
-1171498
-1171097
-1171104
-1171230
-1171053
-1171069
-1171156
-1171175
-1171207
-1171183
-1171135
-1171210
-1171167
-1171183
-1171297
-1171413
-1171355
-1171307
-1171420
-1171683
-1171704
-1171735
-1171770
-1171958
-1171997
-1172033
-1172011
-1172123
-1172355
-1172369
-1172377
-1172373
-1172463
-1172562
-1172658
-1172697
-1172861
-1172778
-1172931
-1172900
-1173135
-1173005
-1173172
-1173002
-1173320
-1173303
-1173261
-1173436
-1173411
-1173426
-1173407
-1173512
-1173490
-1173627
-1173661
-1173689
-1173581
-1173568
-1173628
-1173772
-1173787
-1173739
-1173555
-1173741
-1173846
-1173769
-1173746
-1173659
-1173721
-1173661
-1173825
-1173849
-1173792
-1173670
-1173730
-1173766
-1173719
-1173693
-1173854
-1173819
-1173924
-1173928
-1173963
-1174030
-1173949
-1174101
-1174084
-1173982
-1174045
-1174039
-1174164
-1174180
-1174263
-1174338
-1174441
-1174498
-1174441
-1174467
-1175402
-1174908
-1174643
-1174607
-1174682
-1174797
-1175001
-1174924
-1174912
-1174864
-1175051
-1175226
-1175305
-1175252
-1175230
-1175333
-1175497
-1175549
-1175494
-1175580
-1175782
-1175898
-1175773
-1175695
-1175870
-1175851
-1175932
-1176024
-1176125
-1176054
-1176182
-1176296
-1176320
-1176340
-1176354
-1176391
-1176552
-1176484
-1176593
-1176652
-1176826
-1176949
-1176935
-1176926
-1176973
-1177116
-1177150
-1177219
-1177070
-1177160
-1177261
-1177417
-1177454
-1177456
-1177510
-1177502
-1177633
-1177677
-1177587
-1177572
-1177695
-1177939
-1177911
-1178013
-1178071
-1178086
-1178102
-1178131
-1178203
-1178210
-1178273
-1178431
-1178440
-1178541
-1178535
-1178524
-1178556
-1178823
-1178803
-1178833
-1178992
-1179036
-1179063
-1179095
-1179088
-1179127
-1179309
-1179238
-1179282
-1179304
-1179497
-1179602
-1179708
-1179592
-1179540
-1179762
-1179881
-1179856
-1179764
-1179829
-1180040
-1180137
-1180189
-1180232
-1180347
-1180398
-1180353
-1180467
-1180556
-1180457
-1180514
-1180594
-1180653
-1180662
-1180754
-1180746
-1180971
-1180709
-1180900
-1180879
-1181158
-1181179
-1181288
-1181296
-1181359
-1181443
-1181615
-1181576
-1181554
-1181597
-1181842
-1181809
-1181812
-1181879
-1181982
-1182164
-1182151
-1182189
-1182092
-1182099
-1182122
-1181909
-1182178
-1182426
-1182337
-1182424
-1182655
-1182604
-1182518
-1182623
-1182891
-1183019
-1182878
-1183024
-1183227
-1183225
-1183034
-1183303
-1183499
-1183570
-1183558
-1183689
-1183740
-1183693
-1183719
-1183889
-1183983
-1183968
-1183973
-1184040
-1184095
-1184209
-1184308
-1184298
-1184447
-1184476
-1184582
-1184602
-1184658
-1184738
-1184632
-1184920
-1185015
-1185011
-1185033
-1185107
-1185285
-1185388
-1185402
-1185287
-1185442
-1185549
-1185590
-1185563
-1185709
-1185759
-1185824
-1185997
-1186075
-1185957
-1185923
-1186135
-1186281
-1186340
-1186389
-1186463
-1186424
-1186574
-1186753
-1186773
-1186599
-1186751
-1186817
-1186788
-1186692
-1186673
-1186792
-1186725
-1186767
-1186574
-1186421
-1186499
-1186357
-1186155
-1185863
-1185780
-1185505
-1185317
-1185077
-1184816
-1184509
-1184257
-1184082
-1183703
-1183377
-1183082
-1182963
-1182696
-1182265
-1181936
-1181695
-1181562
-1181364
-1180892
-1180700
-1180343
-1180159
-1180057
-1179882
-1179583
-1179330
-1179119
-1178982
-1178878
-1178565
-1178424
-1178568
-1178526
-1178415
-1178142
-1178048
-1178072
-1178007
-1178076
-1177749
-1177999
-1177848
-1178014
-1177920
-1177876
-1177878
-1178116
-1178146
-1178295
-1178216
-1178236
-1178375
-1178319
-1178330
-1178296
-1178337
-1178384
-1178461
-1178514
-1178537
-1178641
-1178637
-1178765
-1178652
-1178622
-1178599
-1178772
-1178739
-1178748
-1178745
-1178706
-1178938
-1178757
-1178819
-1178804
-1178700
-1178732
-1178763
-1178747
-1178605
-1178590
-1178602
-1178623
-1178657
-1178502
-1178514
-1178462
-1178472
-1178360
-1178278
-1178345
-1178445
-1178344
-1178254
-1178127
-1178057
-1178105
-1178206
-1178105
-1178017
-1178006
-1178222
-1178290
-1178246
-1178063
-1178108
-1178288
-1178380
-1178329
-1178354
-1178379
-1178397
-1178624
-1178723
-1178652
-1178631
-1178913
-1178950
-1179055
-1179131
-1179053
-1179243
-1179300
-1179424
-1179369
-1179426
-1179579
-1179671
-1179616
-1179758
-1179828
-1179923
-1180059
-1179984
-1180013
-1179979
-1180135
-1180266
-1180180
-1180216
-1180142
-1180316
-1180346
-1180402
-1180377
-1180272
-1180066
-1180444
-1180572
-1180515
-1180370
-1180586
-1180610
-1180595
-1180678
-1180548
-1180665
-1180654
-1180569
-1180619
-1180580
-1180682
-1180744
-1180761
-1180676
-1180675
-1180637
-1180795
-1180840
-1180929
-1180898
-1181763
-1181144
-1181038
-1180883
-1180907
-1181060
-1181200
-1181033
-1181680
-1181292
-1181190
-1181250
-1181345
-1181164
-1181230
-1181228
-1181402
-1181382
-1181522
-1181314
-1181549
-1181565
-1181682
-1181630
-1181697
-1181745
-1181943
-1182059
-1181951
-1181965
-1182038
-1182302
-1182312
-1182274
-1182427
-1182621
-1182603
-1182585
-1182480
-1182672
-1182733
-1182920
-1182955
-1183043
-1183084
-1183220
-1183261
-1183262
-1183277
-1183127
-1183388
-1183503
-1183529
-1183497
-1183571
-1183750
-1183793
-1183801
-1183770
-1183809
-1184888
-1184321
-1184270
-1184146
-1184178
-1184241
-1184464
-1184365
-1184488
-1184414
-1184670
-1184752
-1184841
-1184708
-1184906
-1184978
-1185047
-1185054
-1185081
-1185176
-1185242
-1185227
-1185265
-1185392
-1185487
-1185480
-1185525
-1185551
-1185685
-1185708
-1185864
-1185954
-1185815
-1185833
-1185978
-1186083
-1186169
-1186238
-1186784
-1186575
-1186455
-1186567
-1186499
-1186548
-1186608
-1186761
-1186933
-1186794
-1186920
-1186891
-1186965
-1187081
-1187197
-1187134
-1187255
-1187371
-1187386
-1187416
-1187405
-1187440
-1187523
-1187664
-1187621
-1187698
-1187747
-1187970
-1188098
-1187882
-1187908
-1188157
-1188128
-1188172
-1188235
-1188280
-1188325
-1188476
-1188515
-1188541
-1188627
-1188819
-1188755
-1188894
-1188955
-1189019
-1189100
-1189089
-1189086
-1189171
-1189286
-1189485
-1189531
-1189523
-1189582
-1189605
-1189657
-1189841
-1189826
-1189873
-1189929
-1189952
-1189692
-1190048
-1190234
-1190263
-1190242
-1190131
-1190490
-1190393
-1190366
-1190540
-1190639
-1190667
-1190629
-1190672
-1190851
-1190907
-1191032
-1190990
-1191107
-1191139
-1191152
-1191187
-1191260
-1191429
-1191458
-1191537
-1191619
-1191621
-1191563
-1191634
-1191657
-1191720
-1191735
-1191742
-1191955
-1192051
-1192062
-1192173
-1192225
-1192278
-1192353
-1192374
-1192506
-1193295
-1192806
-1192700
-1192715
-1192802
-1192731
-1192907
-1193081
-1193112
-1193041
-1193004
-1193176
-1193161
-1193143
-1193236
-1193414
-1193351
-1193320
-1193856
-1193632
-1193705
-1193779
-1193782
-1193816
-1193914
-1193906
-1193986
-1194248
-1194284
-1194239
-1194325
-1194484
-1194526
-1194736
-1194695
-1194602
-1194694
-1194903
-1195046
-1194921
-1194898
-1194916
-1195092
-1195343
-1195200
-1195327
-1195355
-1195383
-1195432
-1195493
-1195679
-1195761
-1195847
-1195857
-1195861
-1195833
-1196127
-1196396
-1196413
-1196184
-1195958
-1197347
-1196577
-1196461
-1196390
-1196545
-1196601
-1196633
-1196670
-1196567
-1196622
-1196492
-1196573
-1196507
-1196282
-1196163
-1195908
-1195774
-1195633
-1195251
-1195025
-1194819
-1194559
-1194018
-1193891
-1193656
-1193392
-1193097
-1192796
-1192436
-1192144
-1191892
-1191684
-1191088
-1190832
-1190531
-1190321
-1189990
-1189829
-1189723
-1189373
-1189197
-1189060
-1188940
-1188597
-1188420
-1188362
-1188307
-1188039
-1187914
-1187827
-1187805
-1187777
-1187369
-1187526
-1187420
-1187458
-1187503
-1187608
-1187502
-1187447
-1187662
-1187697
-1187523
-1187575
-1187602
-1187751
-1187853
-1187916
-1188004
-1188087
-1188127
-1187818
-1188067
-1188227
-1188347
-1188476
-1188550
-1188406
-1188530
-1188565
-1188632
-1188727
-1188693
-1188750
-1188769
-1188768
-1188746
-1188789
-1188733
-1188856
-1188881
-1188893
-1188798
-1188835
-1188898
-1188881
-1188802
-1188754
-1188700
-1188818
-1188758
-1188790
-1188802
-1188731
-1188748
-1188373
-1188603
-1188492
-1188546
-1188520
-1188494
-1188426
-1188291
-1188401
-1188378
-1188443
-1188509
-1188403
-1188307
-1188475
-1188558
-1188426
-1188471
-1188372
-1188403
-1188486
-1188571
-1188670
-1188701
-1188757
-1188834
-1188878
-1189042
-1189099
-1189071
-1189170
-1189110
-1189278
-1189476
-1189525
-1189532
-1189588
-1189706
-1189834
-1189753
-1189808
-1189882
-1190067
-1190036
-1190080
-1190177
-1190331
-1190300
-1190495
-1190585
-1190547
-1190431
-1190599
-1190696
-1190583
-1190556
-1190681
-1190751
-1190775
-1190880
-1190760
-1190668
-1191565
-1191043
-1190964
-1190998
-1190880
-1190870
-1190980
-1190851
-1190925
-1191057
-1191050
-1191159
-1191013
-1191639
-1192160
-1191397
-1191265
-1191040
-1191034
-1190732
-1190590
-1191605
-1191362
-1191215
-1191191
-1191222
-1191282
-1191208
-1191093
-1191158
-1191291
-1191346
-1191341
-1191315
-1191420
-1191430
-1191496
-1191512
-1191491
-1191472
-1191665
-1191711
-1191819
-1191757
-1191806
-1191913
-1192062
-1192066
-1191658
-1191976
-1192076
-1192130
-1192216
-1192347
-1192304
-1192425
-1192491
-1192517
-1192648
-1192720
-1192687
-1192822
-1192790
-1192731
-1192700
-1192921
-1193037
-1193088
-1193040
-1193122
-1193115
-1193225
-1193470
-1193415
-1193442
-1193484
-1194320
-1193853
-1193808
-1193729
-1193819
-1193859
-1193967
-1193859
-1194002
-1194111
-1194106
-1194764
-1194366
-1194249
-1194263
-1194362
-1194519
-1194452
-1194472
-1194584
-1194626
-1194753
-1194818
-1194760
-1194768
-1194832
-1194815
-1194853
-1194643
-1194847
-1195053
-1195096
-1195169
-1195154
-1195316
-1195405
-1195482
-1195587
-1195359
-1195508
-1195709
-1195617
-1195648
-1195596
-1195772
-1195825
-1195847
-1196683
-1196189
-1196108
-1196132
-1196074
-1196090
-1196192
-1196258
-1196301
-1196511
-1196437
-1196560
-1196565
-1196676
-1196662
-1196640
-1196699
-1196754
-1196850
-1196962
-1196821
-1196986
-1197139
-1197108
-1197237
-1197222
-1197181
-1197249
-1197405
-1197482
-1197463
-1197436
-1197558
-1197771
-1197733
-1197653
-1197706
-1197714
-1198005
-1198017
-1197921
-1197964
-1198210
-1198221
-1198344
-1198277
-1198388
-1198427
-1198438
-1198531
-1198460
-1198621
-1198699
-1198600
-1198653
-1198713
-1198775
-1198829
-1198977
-1199167
-1199024
-1198907
-1199114
-1199298
-1199343
-1199258
-1199432
-1199387
-1199409
-1199522
-1199548
-1199525
-1199597
-1199669
-1199807
-1199845
-1199898
-1199915
-1200032
-1199962
-1199807
-1199906
-1199993
-1200148
-1200201
-1200275
-1200274
-1200425
-1200371
-1200464
-1200555
-1200532
-1200678
-1200716
-1200723
-1200741
-1200702
-1200866
-1200954
-1201029
-1201037
-1201051
-1201184
-1201296
-1201361
-1201288
-1201384
-1201572
-1201683
-1201372
-1201571
-1201624
-1201718
-1201905
-1201943
-1201920
-1201924
-1201988
-1202170
-1202260
-1202131
-1202244
-1202347
-1202307
-1202387
-1202383
-1202389
-1202519
-1202676
-1202766
-1202690
-1202696
-1202839
-1203021
-1203126
-1202913
-1203096
-1203061
-1203170
-1203289
-1203338
-1203333
-1203354
-1203526
-1203586
-1203447
-1203525
-1203420
-1203560
-1203435
-1203291
-1202895
-1202974
-1203021
-1202883
-1202544
-1202357
-1202129
-1201965
-1201719
-1201429
-1201122
-1200845
-1200749
-1200281
-1199914
-1199724
-1199416
-1199175
-1198447
-1198356
-1198173
-1197911
-1197731
-1197314
-1197015
-1196755
-1196539
-1196312
-1196164
-1195890
-1195596
-1195555
-1195302
-1195153
-1194967
-1194922
-1194689
-1194616
-1194507
-1194461
-1194289
-1194471
-1194411
-1194412
-1194182
-1194076
-1194133
-1194355
-1194109
-1195128
-1194402
-1194287
-1194417
-1194414
-1194367
-1194387
-1194369
-1194608
-1194560
-1194532
-1194690
-1194704
-1194797
-1194911
-1194786
-1194907
-1194889
-1195146
-1195071
-1195120
-1195173
-1195356
-1195287
-1195263
-1195309
-1195251
-1195455
-1195388
-1195579
-1195494
-1195438
-1195470
-1195467
-1195440
-1195460
-1195514
-1195469
-1195430
-1195371
-1195322
-1195276
-1195445
-1195378
-1195334
-1195362
-1195270
-1195322
-1195337
-1195395
-1195268
-1195314
-1195344
-1195277
-1195165
-1195229
-1195268
-1195384
-1195281
-1195354
-1195337
-1195230
-1195332
-1195328
-1195370
-1195412
-1195488
-1195628
-1195659
-1195728
-1195800
-1195846
-1195956
-1195967
-1195976
-1195980
-1196081
-1196122
-1196200
-1196262
-1196196
-1196259
-1196313
-1196380
-1196581
-1196522
-1196618
-1196755
-1196818
-1196797
-1196623
-1196719
-1196846
-1196837
-1196874
-1197819
-1197166
-1197029
-1197048
-1196936
-1197008
-1196948
-1196994
-1196971
-1196972
-1197029
-1197178
-1197266
-1197022
-1197085
-1197083
-1197024
-1197074
-1197054
-1196992
-1197137
-1197079
-1197201
-1197106
-1197129
-1197145
-1197064
-1197211
-1197077
-1197158
-1197085
-1197201
-1197188
-1197180
-1197141
-1197289
-1197375
-1197481
-1197453
-1197304
-1197387
-1197570
-1197556
-1197471
-1197419
-1197498
-1197552
-1197603
-1197542
-1197546
-1197582
-1197822
-1197897
-1198037
-1197832
-1197899
-1198002
-1198185
-1198205
-1198319
-1198335
-1198343
-1198436
-1198460
-1198450
-1198652
-1198631
-1198652
-1198670
-1198749
-1198907
-1198924
-1198857
-1198799
-1198891
-1199155
-1199106
-1199064
-1199155
-1199349
-1199376
-1199445
-1199366
-1199794
-1199566
-1199644
-1199163
-1199495
-1199605
-1199690
-1199890
-1199738
-1199727
-1199819
-1199929
-1200099
-1200042
-1199986
-1200088
-1200145
-1200253
-1200207
-1200121
-1200310
-1200363
-1200449
-1200110
-1200343
-1200340
-1200452
-1200534
-1200576
-1200677
-1200745
-1200736
-1200935
-1200928
-1200862
-1200957
-1200947
-1201159
-1201007
-1201023
-1201040
-1201324
-1200973
-1201278
-1201283
-1201271
-1201508
-1201586
-1201455
-1201595
-1201568
-1201772
-1201778
-1201821
-1201717
-1201739
-1201909
-1201976
-1202060
-1201872
-1201908
-1202151
-1202311
-1202201
-1202166
-1202316
-1202313
-1202399
-1202406
-1202471
-1202499
-1202680
-1202754
-1202626
-1202648
-1202667
-1202697
-1202947
-1203019
-1203008
-1202900
-1202954
-1203081
-1203241
-1203103
-1203169
-1203353
-1203414
-1203527
-1203370
-1203332
-1203481
-1203691
-1203535
-1203555
-1203703
-1203747
-1203871
-1203812
-1203776
-1203940
-1204118
-1204228
-1204155
-1204229
-1204176
-1204319
-1204393
-1204245
-1204134
-1204261
-1204532
-1204653
-1204651
-1204669
-1204708
-1204579
-1204711
-1204736
-1204866
-1204496
-1204892
-1204972
-1205128
-1204982
-1205044
-1205272
-1205202
-1205126
-1205335
-1205189
-1205275
-1205394
-1205452
-1205380
-1205493
-1205606
-1205677
-1205829
-1205772
-1205830
-1206042
-1206081
-1207031
-1206393
-1206115
-1206236
-1206342
-1206430
-1206354
-1206347
-1206497
-1206548
-1206638
-1206686
-1206662
-1206354
-1206684
-1206815
-1206891
-1206743
-1206689
-1206933
-1207126
-1207152
-1207181
-1207300
-1207289
-1207390
-1207369
-1207484
-1207486
-1207656
-1207585
-1207475
-1207763
-1207773
-1207784
-1207884
-1207841
-1207759
-1208010
-1208062
-1208001
-1208133
-1208158
-1208104
-1208117
-1208037
-1207963
-1208077
-1208028
-1207844
-1207650
-1207448
-1207342
-1207183
-1206686
-1206574
-1206467
-1206367
-1206060
-1205821
-1205409
-1205099
-1204664
-1204578
-1204164
-1203926
-1203516
-1203174
-1202791
-1202608
-1202282
-1201822
-1201562
-1201361
-1201084
-1200833
-1200605
-1200336
-1200166
-1199930
-1199752
-1199507
-1199252
-1199189
-1199115
-1198813
-1198733
-1198633
-1198587
-1198632
-1198470
-1198223
-1198186
-1198174
-1198362
-1198363
-1198109
-1198242
-1198274
-1198343
-1198228
-1198294
-1198267
-1198250
-1198307
-1198496
-1198429
-1198610
-1198675
-1198691
-1198569
-1198580
-1198635
-1198714
-1198840
-1198682
-1199263
-1198926
-1198952
-1198896
-1198807
-1198809
-1198909
-1198974
-1199067
-1199003
-1198924
-1198958
-1199009
-1199110
-1199041
-1199574
-1199007
-1198900
-1198823
-1198735
-1198689
-1198871
-1198826
-1198800
-1198969
-1198670
-1198568
-1198633
-1198475
-1198491
-1198466
-1198527
-1198447
-1198422
-1198371
-1198227
-1198282
-1198198
-1198329
-1198057
-1198132
-1198235
-1198251
-1198262
-1198186
-1198165
-1198335
-1198330
-1198339
-1198420
-1198353
-1198493
-1198414
-1198574
-1198502
-1198660
-1198814
-1198944
-1198752
-1198852
-1198687
-1198762
-1199132
-1199059
-1199105
-1199106
-1199363
-1199392
-1199471
-1199369
-1199379
-1199483
-1199534
-1199615
-1199557
-1199495
-1199688
-1199892
-1199761
-1199757
-1199910
-1199865
-1199955
-1199928
-1199954
-1200016
-1200046
-1200154
-1200061
-1199948
-1199911
-1200102
-1200164
-1199979
-1199951
-1199955
-1199985
-1200114
-1200101
-1199981
-1199956
-1200087
-1200206
-1199942
-1199900
-1200009
-1199982
-1200080
-1200009
-1199864
-1200043
-1200045
-1200114
-1200185
-1200145
-1200050
-1200132
-1200184
-1200013
-1200025
-1200080
-1200208
-1200355
-1200094
-1199920
-1200050
-1200323
-1200387
-1200321
-1200279
-1200268
-1200387
-1200467
-1200440
-1200495
-1200622
-1200760
-1200729
-1200856
-1200771
-1200763
-1200969
-1201037
-1200998
-1200916
-1201136
-1201313
-1201333
-1201257
-1201165
-1201242
-1201390
-1201555
-1201419
-1201483
-1201566
-1201539
-1201623
-1201705
-1201605
-1201754
-1201858
-1201938
-1201835
-1201837
-1201943
-1202084
-1202160
-1202105
-1202128
-1202164
-1202123
-1202310
-1202301
-1202244
-1202224
-1202397
-1202404
-1202501
-1202528
-1202479
-1202712
-1202693
-1202744
-1202664
-1202737
-1202860
-1202884
-1202860
-1202974
-1202949
-1203187
-1203160
-1203172
-1203143
-1203215
-1203225
-1203423
-1203257
-1203235
-1203309
-1203559
-1203504
-1203498
-1203642
-1203552
-1203761
-1203728
-1203800
-1203691
-1203752
-1203954
-1203934
-1203955
-1203993
-1204068
-1204124
-1204155
-1204092
-1204074
-1204248
-1204452
-1204349
-1204459
-1204336
-1204436
-1204601
-1204736
-1204610
-1204619
-1204647
-1204759
-1204800
-1204750
-1204890
-1204829
-1205010
-1205064
-1205035
-1205120
-1205096
-1205273
-1205391
-1205344
-1205408
-1205370
-1205485
-1205630
-1205654
-1205587
-1205580
-1205562
-1205746
-1205836
-1205710
-1205975
-1205927
-1206016
-1206093
-1206031
-1206097
-1206222
-1206216
-1206297
-1206282
-1206397
-1206433
-1206458
-1206440
-1206612
-1206668
-1206701
-1206751
-1206745
-1206800
-1206937
-1206850
-1207052
-1206866
-1207020
-1207040
-1207036
-1207139
-1207071
-1207042
-1207252
-1207484
-1207506
-1207496
-1207521
-1207681
-1207586
-1207578
-1207777
-1207860
-1207807
-1207736
-1207719
-1207875
-1208050
-1208033
-1208125
-1208067
-1208231
-1208384
-1208268
-1208199
-1208278
-1208429
-1208454
-1208475
-1208582
-1208702
-1208594
-1208759
-1208831
-1208738
-1208844
-1208798
-1208963
-1209049
-1208987
-1208944
-1209061
-1209268
-1209411
-1209284
-1209400
-1209410
-1209494
-1209518
-1209611
-1209574
-1209631
-1209818
-1209908
-1209979
-1209875
-1210056
-1210025
-1210101
-1210062
-1210112
-1210272
-1210290
-1210345
-1210491
-1210510
-1210623
-1210672
-1210662
-1210568
-1210690
-1210678
-1211353
-1211006
-1210922
-1210824
-1210929
-1210869
-1210750
-1210665
-1210749
-1210537
-1210598
-1210304
-1210101
-1209956
-1209881
-1209621
-1209342
-1209208
-1208840
-1208673
-1208393
-1207940
-1207562
-1207354
-1207093
-1205501
-1204968
-1204573
-1204317
-1204026
-1203762
-1203560
-1203181
-1202900
-1202759
-1202657
-1202419
-1202244
-1202068
-1201831
-1201810
-1201665
-1201521
-1201307
-1201319
-1201337
-1201348
-1201091
-1200923
-1200948
-1200971
-1200989
-1201040
-1200931
-1200907
-1201009
-1201029
-1201105
-1201018
-1201134
-1201123
-1201253
-1201288
-1201196
-1201305
-1201477
-1201434
-1201288
-1201392
-1201597
-1201599
-1201575
-1201675
-1201682
-1201820
-1201860
-1201903
-1201907
-1201724
-1201728
-1201840
-1201836
-1201942
-1201879
-1201799
-1202010
-1202048
-1201951
-1201885
-1201837
-1201872
-1201952
-1201788
-1201695
-1201756
-1201735
-1201605
-1201594
-1201541
-1201461
-1201573
-1201525
-1201528
-1201412
-1201373
-1201417
-1201461
-1201224
-1201230
-1201286
-1201345
-1201383
-1201248
-1201154
-1201274
-1201185
-1201210
-1201211
-1201166
-1201125
-1201270
-1201264
-1201234
-1201212
-1201360
-1201599
-1201728
-1201634
-1201570
-1201790
-1201941
-1201936
-1201856
-1202638
-1202305
-1202255
-1202264
-1202229
-1202138
-1202283
-1202385
-1202371
-1202375
-1202460
-1202443
-1202531
-1202600
-1202625
-1202577
-1202648
-1202920
-1202899
-1202705
-1202773
-1202808
-1202878
-1202881
-1202928
-1202845
-1202876
-1202913
-1203049
-1203000
-1203009
-1203029
-1203086
-1203066
-1202904
-1202835
-1203019
-1203070
-1203030
-1203099
-1202951
-1202895
-1203071
-1203154
-1203011
-1202870
-1202934
-1203054
-1203105
-1203037
-1202861
-1203006
-1203149
-1203072
-1203010
-1202881
-1202937
-1203097
-1203192
-1203151
-1203122
-1203205
-1203168
-1203298
-1203191
-1203080
-1203307
-1203276
-1203419
-1203462
-1203336
-1203575
-1203665
-1203572
-1203632
-1203515
-1203520
-1203722
-1203781
-1203806
-1203766
-1203875
-1203942
-1204026
-1204080
-1203940
-1204016
-1204214
-1204244
-1204265
-1204375
-1204380
-1204359
-1204554
-1204507
-1204394
-1204532
-1204805
-1204699
-1204804
-1204749
-1204742
-1204878
-1204927
-1204879
-1204902
-1204930
-1205121
-1205098
-1205181
-1205053
-1205274
-1205366
-1205372
-1205414
-1205387
-1205322
-1205553
-1205476
-1205402
-1205426
-1205615
-1205617
-1205729
-1205634
-1205614
-1205736
-1205860
-1205835
-1205830
-1205893
-1205919
-1205957
-1206124
-1206136
-1206135
-1206230
-1206329
-1206273
-1206240
-1206320
-1206431
-1206572
-1206469
-1206557
-1206408
-1206554
-1206757
-1206722
-1206675
-1206592
-1206810
-1207005
-1206968
-1206873
-1206952
-1207076
-1207016
-1207048
-1207029
-1207080
-1207268
-1207330
-1207420
-1207237
-1207263
-1207376
-1207466
-1207700
-1207508
-1207607
-1207588
-1207765
-1207822
-1207806
-1207692
-1207876
-1207777
-1207854
-1207962
-1207917
-1207974
-1208199
-1208235
-1208123
-1208185
-1208418
-1208445
-1208426
-1208359
-1208443
-1208411
-1208561
-1208520
-1208452
-1208626
-1208635
-1208854
-1208983
-1208958
-1208943
-1208783
-1208943
-1209134
-1209101
-1208964
-1209179
-1209324
-1209241
-1209285
-1209234
-1209365
-1209226
-1209498
-1209432
-1209445
-1209502
-1209690
-1209727
-1209650
-1209763
-1209756
-1209927
-1209949
-1209834
-1209858
-1210043
-1210022
-1210267
-1210108
-1210092
-1210061
-1210306
-1210274
-1210393
-1210258
-1210510
-1210585
-1210654
-1210683
-1210703
-1210845
-1210781
-1210744
-1210896
-1210956
-1210918
-1210939
-1211051
-1211105
-1211230
-1211246
-1211329
-1211303
-1211159
-1211448
-1211561
-1211524
-1211594
-1211632
-1211674
-1211735
-1211866
-1211886
-1211750
-1211894
-1211907
-1212065
-1212167
-1212214
-1212244
-1212228
-1212209
-1212257
-1212384
-1212496
-1212602
-1212628
-1212605
-1212769
-1212860
-1212881
-1212721
-1212827
-1212993
-1213030
-1213013
-1212927
-1212986
-1213148
-1213171
-1213175
-1213044
-1213049
-1212984
-1212899
-1212824
-1212550
-1212567
-1212532
-1212310
-1212020
-1211783
-1211366
-1211304
-1211067
-1210841
-1210390
-1210023
-1209840
-1209647
-1209215
-1208984
-1208544
-1208209
-1207983
-1207744
-1207318
-1206991
-1206718
-1206474
-1206178
-1205988
-1205750
-1205389
-1205274
-1204973
-1204715
-1204571
-1204456
-1204200
-1204185
-1204004
-1203764
-1203705
-1203678
-1203648
-1203527
-1203403
-1203199
-1203328
-1203357
-1203350
-1203293
-1203194
-1203416
-1203448
-1203258
-1203216
-1203252
-1203474
-1203582
-1203437
-1203418
-1203641
-1203762
-1203752
-1203706
-1203769
-1203708
-1203852
-1203901
-1203940
-1203838
-1204092
-1204240
-1204109
-1204141
-1204204
-1204206
-1204212
-1204273
-1204046
-1204273
-1204323
-1204289
-1204458
-1204521
-1204324
-1204452
-1204435
-1204465
-1204410
-1204268
-1204273
-1204429
-1204333
-1204380
-1204187
-1204161
-1204260
-1204310
-1204234
-1204192
-1204255
-1204175
-1204109
-1203975
-1203985
-1204088
-1204152
-1203943
-1203944
-1203952
-1204029
-1204143
-1204094
-1204020
-1204035
-1204186
-1204070
-1204193
-1204237
-1204364
-1204343
-1204299
-1204393
-1204392
-1204541
-1204634
-1204621
-1204689
-1204792
-1204729
-1204888
-1204788
-1204942
-1204844
-1204937
-1205051
-1205204
-1205104
-1205197
-1205235
-1205300
-1205285
-1205308
-1205154
-1205281
-1205476
-1205496
-1205493
-1205482
-1205489
-1205648
-1205485
-1205492
-1205545
-1205523
-1205548
-1205640
-1205483
-1205420
-1205554
-1205607
-1205577
-1205518
-1205444
-1205421
-1205579
-1205500
-1205509
-1205439
-1205548
-1205524
-1205442
-1205360
-1205519
-1205535
-1205607
-1205548
-1205525
-1205469
-1205524
-1205623
-1205654
-1205670
-1205683
-1205664
-1205748
-1205707
-1205778
-1205713
-1205704
-1205852
-1205963
-1205911
-1205838
-1205930
-1206037
-1206167
-1206102
-1206045
-1206148
-1206226
-1206336
-1206369
-1206183
-1206410
-1206469
-1206455
-1206567
-1206681
-1206565
-1206621
-1206780
-1206781
-1206765
-1206877
-1206945
-1207076
-1207050
-1207001
-1206958
-1207125
-1207327
-1207303
-1207312
-1207457
-1207438
-1207406
-1207395
-1207397
-1207586
-1207625
-1207780
-1207657
-1207611
-1207793
-1207852
-1207766
-1207795
-1207813
-1208052
-1208117
-1208205
-1208162
-1208223
-1208106
-1208133
-1208360
-1208281
-1208237
-1208353
-1208544
-1208647
-1208565
-1208505
-1208559
-1208752
-1208717
-1208712
-1208857
-1208866
-1208921
-1208966
-1208869
-1208847
-1209109
-1209080
-1209154
-1209249
-1209154
-1209341
-1209435
-1209338
-1209276
-1209459
-1209405
-1209415
-1209399
-1209488
-1209761
-1209787
-1209778
-1209617
-1209774
-1209966
-1209978
-1210052
-1210124
-1210135
-1210108
-1210196
-1210967
-1210477
-1210201
-1210230
-1210436
-1210325
-1210490
-1210423
-1210579
-1210503
-1210632
-1210613
-1210514
-1210709
-1210703
-1211018
-1211090
-1211205
-1211321
-1211343
-1211326
-1211362
-1211325
-1211471
-1211578
-1211583
-1211388
-1211602
-1211748
-1211739
-1211640
-1211797
-1211864
-1211901
-1211857
-1211947
-1211952
-1211911
-1212105
-1212160
-1212231
-1212349
-1212254
-1212287
-1212344
-1212574
-1212479
-1212537
-1212721
-1212593
-1212561
-1212798
-1212905
-1213733
-1213291
-1212958
-1212883
-1213149
-1213060
-1213173
-1213133
-1213308
-1213407
-1213379
-1213503
-1213390
-1213492
-1213583
-1213580
-1213643
-1213618
-1213629
-1213765
-1213751
-1213895
-1213743
-1213909
-1214072
-1214077
-1214248
-1214155
-1214106
-1214229
-1214219
-1214328
-1214407
-1214347
-1214368
-1214537
-1214528
-1214673
-1214711
-1214812
-1214972
-1214879
-1214841
-1214858
-1214959
-1215178
-1215251
-1215128
-1215111
-1215389
-1215336
-1215320
-1215307
-1215495
-1215712
-1215692
-1215733
-1215741
-1215671
-1215887
-1215943
-1215894
-1216051
-1216055
-1216006
-1216229
-1216152
-1216178
-1216208
-1216241
-1216337
-1216268
-1216257
-1216388
-1216436
-1216481
-1216448
-1216222
-1216001
-1215869
-1215883
-1215675
-1215419
-1215353
-1215020
-1214792
-1214488
-1214134
-1213930
-1213594
-1213339
-1213137
-1212601
-1212232
-1212011
-1211753
-1211354
-1210966
-1210575
-1210448
-1210177
-1209689
-1209468
-1209121
-1208941
-1208668
-1208377
-1208125
-1207764
-1207579
-1207482
-1207326
-1206998
-1206765
-1206686
-1206511
-1206489
-1206310
-1206210
-1206253
-1206166
-1206119
-1205917
-1205770
-1205858
-1205967
-1205991
-1205820
-1205764
-1205848
-1205912
-1205860
-1205786
-1205867
-1205837
-1206057
-1206074
-1206696
-1206231
-1206204
-1206263
-1206205
-1206212
-1206123
-1206281
-1206366
-1206244
-1206205
-1206348
-1206347
-1206411
-1206491
-1206564
-1207565
-1206747
-1206413
-1206405
-1206404
-1206307
-1206498
-1206535
-1206483
-1206490
-1206305
-1206246
-1206257
-1206362
-1206338
-1206169
-1206085
-1206108
-1206156
-1206086
-1205914
-1206030
-1205986
-1205831
-1205663
-1205709
-1205736
-1205673
-1205670
-1205542
-1205587
-1205581
-1205597
-1205444
-1205384
-1205331
-1205444
-1205511
-1205501
-1205488
-1205372
-1205377
-1205484
-1205586
-1205401
-1205440
-1205648
-1205656
-1205734
-1205319
-1205512
-1205820
-1205987
-1205879
-1205937
-1206102
-1206153
-1206304
-1206286
-1206290
-1206207
-1206274
-1206409
-1206481
-1206561
-1206544
-1206548
-1206836
-1206851
-1206689
-1206721
-1206799
-1207031
-1206929
-1206939
-1206919
-1207089
-1207004
-1207036
-1206918
-1206902
-1207024
-1207133
-1207131
-1207108
-1207169
-1207262
-1207226
-1207163
-1207006
-1207065
-1207060
-1207104
-1206998
-1206927
-1206993
-1207066
-1207148
-1207155
-1207171
-1207162
-1207219
-1207147
-1207086
-1207104
-1207046
-1206807
-1207056
-1207120
-1207044
-1207019
-1207148
-1207229
-1207292
-1207196
-1207135
-1207129
-1207327
-1207376
-1207424
-1207335
-1207292
-1207416
-1207604
-1207435
-1207383
-1207603
-1207690
-1207598
-1207656
-1207567
-1207763
-1207784
-1207923
-1207910
-1207774
-1207901
-1208097
-1208030
-1208119
-1208152
-1208282
-1208221
-1208210
-1208221
-1208208
-1208519
-1208480
-1208564
-1208449
-1208425
-1208667
-1208804
-1208749
-1208685
-1208692
-1208743
-1208833
-1208904
-1208848
-1208997
-1209066
-1209028
-1209191
-1209103
-1209095
-1209298
-1209226
-1209202
-1209273
-1209209
-1209387
-1209566
-1209493
-1209302
-1209349
-1209433
-1209512
-1210411
-1209803
-1209805
-1209807
-1209921
-1209775
-1209828
-1209885
-1209905
-1210111
-1210068
-1210097
-1210040
-1210158
-1210236
-1210329
-1210341
-1210260
-1210396
-1210426
-1210451
-1210375
-1210514
-1210567
-1210597
-1210686
-1210507
-1210625
-1210831
-1210758
-1210840
-1210804
-1210905
-1210932
-1210870
-1211045
-1210954
-1211010
-1211072
-1211182
-1211209
-1211120
-1211256
-1211423
-1211494
-1211472
-1211397
-1211486
-1211527
-1211633
-1211691
-1211253
-1211533
-1211655
-1211767
-1211821
-1211838
-1211997
-1211953
-1212042
-1212137
-1212042
-1212057
-1212258
-1212406
-1212311
-1212414
-1212485
-1212530
-1212570
-1212416
-1212458
-1212560
-1212708
-1212676
-1212708
-1212739
-1212904
-1212995
-1212968
-1213096
-1213065
-1213215
-1213118
-1213244
-1213096
-1213303
-1213341
-1213273
-1213439
-1213325
-1213530
-1213522
-1213689
-1213655
-1213609
-1213796
-1213758
-1213850
-1213745
-1213751
-1213853
-1213965
-1213914
-1213971
-1214106
-1214101
-1214260
-1214154
-1214261
-1214385
-1214390
-1214415
-1214334
-1214319
-1214223
-1214621
-1215903
-1215107
-1214765
-1214919
-1214847
-1214969
-1214994
-1214840
-1214820
-1214972
-1215052
-1215196
-1215184
-1215209
-1215235
-1215383
-1215298
-1215218
-1215288
-1215367
-1215517
-1215526
-1215623
-1215722
-1215887
-1215819
-1215743
-1215766
-1215800
-1215990
-1216229
-1216056
-1215978
-1216153
-1216211
-1216354
-1216485
-1216370
-1216314
-1216618
-1216684
-1216756
-1216545
-1216602
-1216861
-1216903
-1216829
-1216818
-1216921
-1216987
-1217206
-1217091
-1217149
-1217215
-1217231
-1217417
-1217304
-1217248
-1217262
-1217334
-1217480
-1217353
-1217216
-1217282
-1217257
-1217066
-1216831
-1216700
-1216526
-1216423
-1216258
-1215972
-1215618
-1215469
-1215310
-1214986
-1214674
-1214294
-1213863
-1213609
-1213420
-1213017
-1212705
-1211893
-1211977
-1211780
-1211339
-1210949
-1210738
-1210550
-1210324
-1209890
-1209564
-1209131
-1209022
-1208801
-1208702
-1208341
-1208208
-1208035
-1207898
-1207867
-1207664
-1207418
-1207338
-1207425
-1207408
-1207234
-1207154
-1207063
-1207305
-1207020
-1206970
-1206919
-1207007
-1207062
-1206980
-1206801
-1206973
-1206990
-1207224
-1207231
-1207009
-1207028
-1207189
-1207109
-1207236
-1207132
-1207094
-1207308
-1207337
-1207421
-1207377
-1207318
-1207471
-1207540
-1207486
-1207497
-1207359
-1207527
-1207571
-1207487
-1207345
-1207504
-1207423
-1207491
-1207411
-1207298
-1207283
-1207334
-1207293
-1207173
-1207131
-1207253
-1207269
-1207229
-1207073
-1206960
-1207042
-1206873
-1206817
-1206751
-1206672
-1206648
-1206739
-1206595
-1206593
-1206446
-1206501
-1206372
-1206352
-1206350
-1206251
-1206205
-1206207
-1206280
-1206281
-1206306
-1206172
-1206297
-1206260
-1206279
-1206310
-1206263
-1206295
-1206428
-1206365
-1206426
-1206571
-1206582
-1206648
-1206612
-1206592
-1206597
-1206768
-1206903
-1206824
-1206805
-1206929
-1206994
-1207123
-1207027
-1206992
-1207163
-1207165
-1207351
-1207339
-1207342
-1207455
-1207462
-1207507
-1207496
-1207419
-1207430
-1207634
-1207726
-1207584
-1207507
-1207510
-1207539
-1207711
-1207717
-1207693
-1207608
-1207686
-1207753
-1207692
-1207661
-1207658
-1207734
-1207752
-1207604
-1207603
-1207585
-1207707
-1207728
-1207372
-1207467
-1207104
-1207532
-1207543
-1207433
-1207542
-1207453
-1207610
-1207482
-1207489
-1207523
-1207447
-1207589
-1207511
-1207578
-1207602
-1207610
-1207645
-1207660
-1207500
-1207509
-1207656
-1207722
-1207740
-1207575
-1207634
-1207704
-1207761
-1207880
-1207855
-1207784
-1207866
-1208031
-1207960
-1207879
-1208067
-1208104
-1208268
-1208174
-1208043
-1208281
-1208270
-1208302
-1208425
-1208105
-1208361
-1208430
-1208656
-1208652
-1208688
-1208603
-1208735
-1208717
-1208760
-1208766
-1208779
-1208938
-1209029
-1208978
-1208886
-1209760
-1209217
-1209136
-1209050
-1209181
-1209140
-1209267
-1209411
-1209368
-1209257
-1209420
-1209516
-1209471
-1209417
-1209561
-1209590
-1209649
-1209656
-1209568
-1209778
-1209777
-1209738
-1209763
-1209863
-1209880
-1209929
-1209911
-1209941
-1210042
-1210001
-1210096
-1209991
-1210096
-1210210
-1210262
-1210256
-1210303
-1210505
-1210386
-1210365
-1210416
-1210479
-1210635
-1210602
-1210539
-1210631
-1210643
-1210801
-1210709
-1210605
-1210656
-1210898
-1210755
-1210874
-1210931
-1210970
-1211015
-1211049
-1211029
-1211028
-1211135
-1211105
-1211323
-1211244
-1211281
-1211379
-1211506
-1211484
-1211429
-1211542
-1211418
-1211615
-1211739
-1211286
-1211625
-1211742
-1211735
-1211836
-1211800
-1211882
-1212055
-1212086
-1212003
-1212038
-1212145
-1212113
-1212150
-1212338
-1212389
-1212360
-1212311
-1212363
-1212466
-1212457
-1212439
-1212504
-1212629
-1212628
-1212747
-1212804
-1212720
-1212610
-1212794
-1212761
-1212860
-1212908
-1212742
-1212932
-1212997
-1213019
-1212973
-1213162
-1213387
-1213282
-1213410
-1213348
-1213572
-1213502
-1213435
-1213446
-1213581
-1213618
-1213736
-1213726
-1213834
-1213866
-1213848
-1213852
-1213951
-1214013
-1214065
-1214210
-1214164
-1214037
-1214120
-1214342
-1214346
-1214261
-1214271
-1214391
-1214441
-1214527
-1214348
-1214564
-1214611
-1214857
-1214835
-1214762
-1214760
-1214841
-1214885
-1214937
-1215008
-1215049
-1215216
-1215338
-1215408
-1215271
-1215351
-1215288
-1215407
-1215623
-1215619
-1215545
-1215624
-1215775
-1215934
-1215950
-1215798
-1215897
-1215867
-1215985
-1215959
-1216110
-1216027
-1216186
-1216243
-1216291
-1216232
-1216465
-1216500
-1216477
-1216423
-1216425
-1216638
-1216683
-1216617
-1216470
-1216599
-1216649
-1216514
-1216424
-1216233
-1216194
-1216088
-1216023
-1215743
-1215648
-1215308
-1215079
-1214825
-1214601
-1214385
-1213982
-1213719
-1213428
-1213002
-1212577
-1212192
-1211987
-1211694
-1211367
-1211115
-1210810
-1210490
-1210233
-1209921
-1209451
-1209202
-1208989
-1208742
-1208517
-1208233
-1207925
-1207633
-1207651
-1207500
-1207200
-1206948
-1206847
-1206902
-1206458
-1206294
-1206426
-1206411
-1206290
-1206419
-1206307
-1206040
-1206079
-1205987
-1206199
-1206115
-1206161
-1206090
-1206115
-1206131
-1206230
-1206101
-1206064
-1206923
-1206466
-1206429
-1206287
-1206327
-1206316
-1206543
-1206418
-1206582
-1206623
-1206499
-1206531
-1206482
-1206597
-1206530
-1206708
-1206582
-1206636
-1206501
-1206574
-1206702
-1206705
-1206670
-1206600
-1206557
-1206598
-1206550
-1206580
-1206529
-1206510
-1206497
-1206376
-1206301
-1206287
-1206354
-1206161
-1206240
-1206108
-1206021
-1205906
-1205944
-1205931
-1205934
-1205793
-1205777
-1205837
-1205733
-1205741
-1205593
-1205644
-1205778
-1205784
-1205585
-1205541
-1205613
-1205614
-1205751
-1205733
-1205606
-1205694
-1205884
-1205823
-1205864
-1205915
-1206015
-1205170
-1205786
-1206050
-1206063
-1206116
-1206230
-1206304
-1206225
-1206179
-1206216
-1206417
-1206376
-1206331
-1207609
-1206824
-1206706
-1206623
-1206673
-1206489
-1206581
-1206740
-1206719
-1206748
-1206751
-1206650
-1206832
-1206730
-1206709
-1207185
-1206866
-1207611
-1207036
-1206808
-1206585
-1206741
-1206661
-1206763
-1206613
-1206567
-1206612
-1206653
-1206680
-1206610
-1206592
-1206519
-1206540
-1206462
-1206230
-1206267
-1206382
-1206512
-1206566
-1206480
-1206493
-1206506
-1206462
-1206553
-1206253
-1206367
-1206563
-1206582
-1206665
-1206506
-1206486
-1206592
-1206657
-1206779
-1206740
-1206562
-1206695
-1206841
-1206700
-1206830
-1206777
-1206895
-1206915
-1207072
-1207391
-1207049
-1207019
-1207217
-1207175
-1207168
-1207096
-1207148
-1207427
-1207557
-1207547
-1207353
-1207462
-1207586
-1207715
-1207534
-1207669
-1207729
-1207743
-1207435
-1207620
-1207743
-1207817
-1207941
-1208113
-1208011
-1208050
-1208077
-1208218
-1208212
-1208224
-1208191
-1208222
-1208327
-1208462
-1208393
-1208490
-1208221
-1208500
-1208680
-1208560
-1208615
-1208558
-1208629
-1208801
-1208829
-1208700
-1208830
-1208973
-1208936
-1209704
-1208743
-1209018
-1209004
-1208975
-1209120
-1209284
-1209321
-1209193
-1209312
-1209403
-1209421
-1209368
-1209350
-1209364
-1209613
-1209579
-1209615
-1209545
-1209567
-1209584
-1209681
-1209612
-1209634
-1209751
-1209707
-1210961
-1210048
-1209863
-1209957
-1209887
-1210012
-1210057
-1210078
-1209971
-1210151
-1210097
-1211225
-1210331
-1210289
-1210197
-1210316
-1210300
-1210335
-1210272
-1210283
-1210408
-1210489
-1210319
-1210491
-1210453
-1210494
-1210622
-1210541
-1210567
-1210644
-1210689
-1210727
-1210697
-1210731
-1210909
-1211038
-1211665
-1211310
-1211034
-1211171
-1211123
-1211169
-1210998
-1211224
-1211348
-1211430
-1211329
-1211349
-1211492
-1211610
-1211523
-1211558
-1211591
-1211682
-1211755
-1211781
-1211797
-1211854
-1211970
-1211919
-1212055
-1212198
-1212156
-1212080
-1212203
-1212332
-1212203
-1212169
-1212206
-1212401
-1212509
-1212575
-1212612
-1212692
-1212757
-1212693
-1212734
-1212683
-1212660
-1212798
-1212754
-1212850
-1212843
-1212820
-1212997
-1213005
-1212899
-1212956
-1213056
-1213232
-1213237
-1213292
-1213244
-1213356
-1213521
-1213538
-1213629
-1213588
-1213599
-1213546
-1213822
-1213678
-1213640
-1213857
-1213900
-1213813
-1213531
-1213858
-1213890
-1214033
-1214184
-1214222
-1214102
-1214248
-1214335
-1214167
-1214294
-1214430
-1214462
-1214498
-1214555
-1215578
-1214953
-1214890
-1214804
-1215069
-1214978
-1214902
-1215012
-1215169
-1215227
-1215170
-1215102
-1215281
-1215396
-1215333
-1215322
-1215243
-1215376
-1216083
-1215598
-1215346
-1215082
-1215196
-1215081
-1215014
-1214838
-1214596
-1214551
-1214281
-1214093
-1213800
-1213451
-1213219
-1212877
-1212531
-1212325
-1211840
-1211532
-1211235
-1210951
-1210618
-1210051
-1209795
-1209540
-1209215
-1208918
-1208547
-1208377
-1208128
-1207814
-1207561
-1207234
-1206843
-1206705
-1206618
-1206290
-1206071
-1205879
-1205827
-1205657
-1205411
-1205227
-1205184
-1204978
-1204913
-1204718
-1204671
-1204619
-1204602
-1204593
-1204571
-1204437
-1204233
-1204465
-1204486
-1204558
-1205112
-1204762
-1204582
-1204367
-1204444
-1204388
-1204578
-1204575
-1204498
-1204517
-1204561
-1204559
-1204622
-1204638
-1204566
-1204701
-1204757
-1204751
-1204629
-1204787
-1204650
-1204633
-1204705
-1204758
-1204678
-1204584
-1204561
-1204688
-1204768
-1204783
-1204552
-1204667
-1204572
-1204537
-1204597
-1204373
-1204326
-1205355
-1204655
-1204359
-1204428
-1204187
-1204066
-1204079
-1203839
-1203734
-1203767
-1203691
-1203658
-1203619
-1203404
-1203496
-1203540
-1203427
-1203250
-1203173
-1203121
-1203072
-1203121
-1203022
-1203088
-1203074
-1203083
-1203262
-1203228
-1203199
-1203185
-1203149
-1203121
-1203139
-1203084
-1203169
-1203277
-1203373
-1203378
-1203303
-1203333
-1203330
-1203483
-1203458
-1203513
-1203640
-1203520
-1203672
-1203641
-1203636
-1203643
-1203840
-1203866
-1203806
-1203848
-1203726
-1203938
-1203863
-1203565
-1203763
-1203637
-1204148
-1203968
-1203599
-1203753
-1203917
-1204805
-1204245
-1203934
-1203761
-1203748
-1203737
-1203830
-1203740
-1203709
-1203654
-1203594
-1203658
-1203680
-1203558
-1203648
-1203700
-1203696
-1203695
-1203461
-1203646
-1203476
-1203625
-1203488
-1203504
-1203423
-1203476
-1203135
-1203368
-1203367
-1203424
-1203338
-1203471
-1204498
-1203618
-1203340
-1203413
-1203364
-1203432
-1203305
-1203274
-1203406
-1203492
-1203476
-1203515
-1203456
-1203509
-1203685
-1203565
-1203708
-1203627
-1203781
-1203844
-1203691
-1203522
-1203663
-1203800
-1203856
-1203699
-1203770
-1203756
-1204030
-1204132
-1203909
-1203874
-1203962
-1204186
-1204073
-1204061
-1204227
-1204313
-1204405
-1204485
-1204501
-1204430
-1204351
-1204514
-1204585
-1204503
-1204404
-1204430
-1204462
-1204568
-1204732
-1204438
-1204565
-1204616
-1204619
-1204643
-1204581
-1204709
-1204753
-1204822
-1204838
-1204692
-1204806
-1204826
-1204862
-1204711
-1204682
-1204672
-1204843
-1204887
-1204868
-1204715
-1204717
-1204846
-1204801
-1204823
-1204758
-1204759
-1204708
-1204868
-1204842
-1204535
-1204621
-1204894
-1204951
-1204883
-1204712
-1204771
-1204804
-1204805
-1204910
-1204868
-1204790
-1204898
-1204959
-1204849
-1204473
-1204769
-1204888
-1204912
-1204821
-1204880
-1204957
-1204971
-1205088
-1205064
-1205158
-1205084
-1205132
-1205194
-1205260
-1205192
-1205322
-1205384
-1205473
-1205512
-1205385
-1205444
-1205706
-1205756
-1205845
-1205688
-1205685
-1205892
-1206006
-1206059
-1205941
-1206045
-1206146
-1206288
-1206158
-1206203
-1206296
-1206433
-1206576
-1206514
-1206589
-1206752
-1206771
-1206739
-1206713
-1206732
-1206800
-1206927
-1207012
-1207092
-1206982
-1207037
-1207042
-1207269
-1207145
-1207182
-1207090
-1207095
-1207233
-1207090
-1206883
-1206893
-1206852
-1206906
-1206707
-1206378
-1206229
-1206102
-1206035
-1205802
-1205442
-1205251
-1204909
-1204852
-1204503
-1204183
-1203618
-1203577
-1203299
-1202997
-1202671
-1202403
-1202026
-1201738
-1201433
-1201202
-1200882
-1200590
-1200270
-1199954
-1199635
-1199393
-1199260
-1199138
-1198756
-1198475
-1198342
-1198282
-1197994
-1197902
-1197800
-1197683
-1197516
-1197458
-1197250
-1197199
-1196977
-1197019
-1197003
-1196910
-1196801
-1196823
-1196791
-1196635
-1196598
-1196505
-1196385
-1196458
-1196511
-1196559
-1196461
-1196309
-1196413
-1196394
-1196318
-1196845
-1196347
-1196291
-1196332
-1196324
-1196225
-1196189
-1196184
-1196079
-1196085
-1195937
-1195886
-1195897
-1195981
-1195863
-1195672
-1195706
-1195674
-1196373
-1195655
-1195348
-1195043
-1195065
-1195105
-1194975
-1194952
-1194847
-1194805
-1194835
-1194784
-1194540
-1194420
-1194404
-1194505
-1194405
-1194172
-1194060
-1194114
-1194146
-1194224
-1194003
-1193976
-1193867
-1193837
-1193812
-1193749
-1193780
-1193885
-1193923
-1193957
-1193789
-1193770
-1193837
-1193895
-1193983
-1193985
-1193976
-1193935
-1193989
-1194010
-1194939
-1194283
-1194243
-1194163
-1194313
-1194125
-1194184
-1194218
-1194376
-1194352
-1193939
-1194313
-1194367
-1194482
-1194548
-1194531
-1194487
-1194515
-1194621
-1194581
-1194519
-1194475
-1194576
-1194756
-1194788
-1194592
-1194572
-1194639
-1194648
-1194758
-1194755
-1194641
-1194542
-1194610
-1194710
-1194535
-1194555
-1194588
-1194540
-1194661
-1194577
-1194538
-1194625
-1194556
-1194554
-1194226
-1194480
-1194496
-1194549
-1194674
-1194487
-1194541
-1194636
-1194617
-1194581
-1194624
-1194711
-1194601
-1194786
-1194748
-1194846
-1194808
-1194914
-1194846
-1194839
-1194860
-1194774
-1194881
-1194945
-1194903
-1194863
-1194841
-1194891
-1194995
-1194963
-1194964
-1195055
-1195128
-1195034
-1195128
-1195142
-1195199
-1195241
-1195284
-1195840
-1195306
-1195170
-1195228
-1195263
-1195364
-1195381
-1195373
-1195504
-1195492
-1195601
-1195604
-1195557
-1195600
-1195626
-1195821
-1195667
-1195752
-1195869
-1195843
-1195973
-1195813
-1195916
-1195857
-1195947
-1195924
-1195900
-1195864
-1196023
-1196106
-1196157
-1196060
-1196123
-1196188
-1196280
-1196307
-1196372
-1196322
-1196286
-1196321
-1196396
-1196465
-1196316
-1196296
-1196396
-1196393
-1196439
-1196542
-1196576
-1196661
-1196698
-1196708
-1196605
-1196851
-1196814
-1196862
-1196775
-1196690
-1196754
-1196663
-1196776
-1196979
-1196964
-1197063
-1197130
-1197239
-1196992
-1197067
-1197802
-1197397
-1197422
-1197431
-1197432
-1197540
-1197676
-1197553
-1197628
-1197619
-1197625
-1197825
-1197885
-1197798
-1197883
-1198062
-1198081
-1198032
-1198009
-1198126
-1198099
-1198327
-1198450
-1198299
-1198280
-1198387
-1198473
-1198654
-1198695
-1198638
-1198635
-1198697
-1198889
-1198758
-1198705
-1198840
-1198918
-1199120
-1199070
-1199035
-1199060
-1199137
-1199203
-1199113
-1199262
-1199251
-1199404
-1199498
-1199551
-1199456
-1199436
-1199599
-1199695
-1199659
-1199755
-1199713
-1199780
-1199817
-1199823
-1199922
-1200025
-1200075
-1200049
-1200110
-1200053
-1200123
-1200250
-1200312
-1200457
-1200329
-1200337
-1200585
-1200534
-1200589
-1200502
-1200529
-1200749
-1200732
-1200645
-1200709
-1200802
-1201054
-1201034
-1200989
-1200937
-1201115
-1201109
-1201217
-1201237
-1201179
-1201238
-1201332
-1201484
-1201414
-1201394
-1201618
-1201577
-1201663
-1201795
-1201757
-1201741
-1201795
-1201819
-1201840
-1201887
-1201989
-1202102
-1202047
-1202197
-1202138
-1202123
-1202378
-1202440
-1202475
-1202492
-1202490
-1202637
-1202606
-1202680
-1202617
-1202672
-1202830
-1202925
-1202556
-1202748
-1203016
-1203112
-1203073
-1203118
-1203029
-1203017
-1203245
-1203208
-1203340
-1203347
-1203361
-1203448
-1203588
-1203602
-1203531
-1203643
-1203838
-1203831
-1203774
-1203934
-1204015
-1204045
-1204215
-1204275
-1204330
-1204291
-1204324
-1204390
-1204484
-1204416
-1204516
-1204721
-1204825
-1204752
-1204906
-1205001
-1205013
-1205149
-1205081
-1205187
-1205309
-1205057
-1205319
-1205344
-1205455
-1205392
-1205577
-1205493
-1205619
-1205694
-1205794
-1205735
-1205768
-1205665
-1205688
-1205577
-1205573
-1205640
-1205599
-1205550
-1205456
-1205331
-1205212
-1204857
-1204647
-1204382
-1204165
-1203923
-1203674
-1203352
-1203126
-1202679
-1202363
-1202019
-1201748
-1201373
-1201043
-1200743
-1200350
-1200039
-1199776
-1199464
-1199027
-1198630
-1198368
-1198218
-1197988
-1197580
-1197292
-1197008
-1196871
-1196581
-1196490
-1196181
-1196036
-1195921
-1195708
-1196605
-1195700
-1195342
-1195291
-1195151
-1195115
-1194897
-1194871
-1194955
-1194863
-1194887
-1194730
-1194776
-1194821
-1194939
-1194785
-1194731
-1194666
-1194735
-1194907
-1194867
-1194896
-1194837
-1194951
-1195046
-1195003
-1194874
-1195024
-1195050
-1195028
-1195018
-1195047
-1195118
-1195271
-1195172
-1195218
-1195121
-1195204
-1195171
-1195252
-1195270
-1195087
-1195086
-1195027
-1195030
-1195044
-1194998
-1194922
-1194882
-1194881
-1194838
-1194660
-1194654
-1194565
-1194499
-1194504
-1194448
-1194406
-1194438
-1194508
-1194291
-1194248
-1194158
-1194167
-1194089
-1193992
-1193847
-1193935
-1194014
-1193855
-1193920
-1193752
-1193775
-1193763
-1193868
-1193858
-1193696
-1193815
-1193791
-1193951
-1193880
-1193860
-1193874
-1193929
-1194148
-1194239
-1194129
-1194268
-1194245
-1194446
-1194366
-1194495
-1194497
-1194565
-1194575
-1194617
-1194662
-1194747
-1194896
-1194893
-1195871
-1195358
-1195214
-1195164
-1195178
-1195348
-1195373
-1195280
-1195355
-1195366
-1195496
-1195415
-1195399
-1195486
-1195508
-1195319
-1195428
-1195496
-1195526
-1195569
-1195627
-1195562
-1195703
-1195648
-1195584
-1195747
-1195740
-1195625
-1195712
-1195662
-1195651
-1195612
-1195515
-1195662
-1195635
-1195713
-1195634
-1195587
-1195665
-1195603
-1195730
-1195569
-1195573
-1195507
-1195686
-1195856
-1195819
-1195629
-1195649
-1195716
-1195737
-1195735
-1195741
-1195942
-1195809
-1195821
-1195826
-1196671
-1196204
-1196179
-1196245
-1196023
-1196082
-1196247
-1196217
-1196231
-1196217
-1196342
-1196326
-1196520
-1196533
-1196480
-1196570
-1196751
-1196789
-1196729
-1196843
-1196826
-1196832
-1196915
-1197047
-1197067
-1197120
-1197123
-1197289
-1197396
-1197295
-1197503
-1197538
-1197518
-1197693
-1197624
-1197765
-1197703
-1197919
-1197851
-1197881
-1197941
-1198038
-1198959
-1198374
-1198286
-1198275
-1198260
-1198311
-1198357
-1198455
-1198505
-1198567
-1198770
-1198600
-1198704
-1198688
-1198452
-1198683
-1198909
-1198862
-1198949
-1198998
-1199143
-1199166
-1199106
-1199313
-1199203
-1199271
-1199283
-1199393
-1199499
-1199548
-1199284
-1199660
-1199650
-1199745
-1199867
-1199801
-1199874
-1199860
-1199958
-1200091
-1200110
-1200068
-1200184
-1200163
-1200258
-1200285
-1200250
-1200396
-1200480
-1200514
-1200493
-1200467
-1200621
-1200691
-1200719
-1200804
-1200779
-1200862
-1200879
-1200949
-1201293
-1201110
-1201119
-1201159
-1201214
-1201205
-1201367
-1201311
-1201429
-1201405
-1201690
-1201669
-1201553
-1201518
-1201653
-1202140
-1201877
-1201957
-1201893
-1202079
-1202176
-1202166
-1202115
-1202299
-1202394
-1202416
-1202527
-1202568
-1202537
-1202722
-1202782
-1202867
-1202818
-1202866
-1203046
-1203152
-1203108
-1203210
-1203193
-1202903
-1203226
-1203387
-1203435
-1203443
-1203613
-1203732
-1203840
-1203750
-1203830
-1203858
-1204037
-1204076
-1204182
-1204087
-1204237
-1204318
-1204445
-1204312
-1204354
-1204478
-1204568
-1204579
-1204589
-1204694
-1204772
-1204789
-1204797
-1204967
-1205078
-1205133
-1205261
-1205280
-1205181
-1205219
-1205405
-1205525
-1205633
-1205628
-1205617
-1205751
-1205654
-1205309
-1205766
-1205865
-1206039
-1206023
-1206004
-1206162
-1206185
-1206297
-1206342
-1206305
-1206292
-1206427
-1207283
-1206828
-1206775
-1206634
-1206595
-1206669
-1206896
-1206973
-1207657
-1207094
-1207174
-1207144
-1207161
-1207390
-1207463
-1207496
-1207530
-1207637
-1207669
-1207780
-1207784
-1207952
-1207872
-1208003
-1208084
-1208206
-1208248
-1208409
-1208247
-1208457
-1208488
-1208513
-1208696
-1208662
-1208630
-1208760
-1208898
-1208918
-1208981
-1208775
-1208974
-1209135
-1209042
-1208991
-1208882
-1209005
-1208878
-1208899
-1208605
-1208473
-1208335
-1208299
-1208110
-1207883
-1207592
-1207282
-1207143
-1206841
-1206453
-1206318
-1206042
-1205701
-1205252
-1205099
-1204703
-1204325
-1204291
-1203999
-1203608
-1203205
-1202986
-1202399
-1202387
-1202135
-1201889
-1201692
-1201582
-1201424
-1201049
-1200784
-1200679
-1200528
-1200453
-1200194
-1200105
-1200032
-1200688
-1200144
-1199821
-1199673
-1199627
-1199710
-1199633
-1199474
-1199472
-1199617
-1199501
-1199525
-1199586
-1199531
-1199553
-1199734
-1199756
-1199768
-1199605
-1199542
-1199657
-1199813
-1199762
-1199769
-1199843
-1199934
-1199941
-1199985
-1199940
-1199981
-1199934
-1200076
-1199956
-1200050
-1200084
-1200058
-1200156
-1199975
-1199864
-1199881
-1200032
-1200070
-1200060
-1199961
-1199915
-1199957
-1199909
-1199837
-1199687
-1200855
-1200058
-1199709
-1199521
-1199418
-1199415
-1199462
-1199417
-1199289
-1199378
-1199246
-1199297
-1199337
-1199264
-1199298
-1199115
-1199076
-1199148
-1199023
-1199043
-1198914
-1199077
-1199075
-1198921
-1198987
-1198964
-1198942
-1198921
-1198893
-1199034
-1199053
-1199187
-1199194
-1199334
-1199451
-1199504
-1199519
-1199621
-1199661
-1199804
-1199825
-1199989
-1199918
-1200068
-1200187
-1200327
-1200282
-1200293
-1200386
-1200485
-1200615
-1201741
-1201038
-1200804
-1200995
-1200658
-1200907
-1200913
-1201132
-1201134
-1201357
-1201397
-1201380
-1201359
-1201381
-1201524
-1201616
-1201535
-1201554
-1201546
-1201703
-1201588
-1201646
-1201545
-1201650
-1201517
-1201534
-1201504
-1201576
-1201588
-1201587
-1201703
-1201529
-1201716
-1201649
-1201670
-1201618
-1201504
-1201653
-1201669
-1201775
-1201738
-1201611
-1201609
-1201649
-1201700
-1201729
-1201808
-1201758
-1201746
-1201815
-1201831
-1201848
-1201933
-1202062
-1202873
-1202135
-1202235
-1202125
-1202131
-1202202
-1202327
-1202382
-1202480
-1202454
-1202457
-1202549
-1202483
-1202458
-1202574
-1202697
-1202786
-1202835
-1202872
-1203084
-1203015
-1202988
-1202974
-1203157
-1203299
-1203270
-1203344
-1203378
-1203455
-1203498
-1203505
-1203627
-1203602
-1203708
-1203842
-1203952
-1203855
-1203849
-1203978
-1204029
-1204100
-1204223
-1204169
-1204179
-1204245
-1204356
-1204282
-1204356
-1204461
-1204491
-1204535
-1204691
-1204638
-1204586
-1204868
-1204908
-1204980
-1204864
-1205039
-1205066
-1205222
-1205137
-1205181
-1205281
-1205204
-1205299
-1205364
-1205476
-1205535
-1205614
-1205593
-1205649
-1205808
-1205861
-1205983
-1205917
-1205910
-1206024
-1205966
-1206029
-1206246
-1206370
-1206277
-1206216
-1206446
-1206575
-1206530
-1206171
-1206438
-1206643
-1206766
-1206893
-1206979
-1206942
-1206971
-1207074
-1207057
-1207111
-1207197
-1207322
-1207385
-1207556
-1207555
-1207578
-1207600
-1207767
-1207688
-1207830
-1207918
-1208121
-1208094
-1208064
-1208047
-1208222
-1208396
-1208376
-1208384
-1208426
-1208387
-1208534
-1208591
-1208553
-1208643
-1208647
-1208715
-1208902
-1208908
-1208819
-1209029
-1208971
-1208938
-1209251
-1209307
-1209276
-1209277
-1209558
-1209625
-1209488
-1209579
-1209671
-1209642
-1209724
-1209639
-1209716
-1209869
-1209923
-1210026
-1210131
-1210026
-1210212
-1210314
-1210296
-1210274
-1210388
-1210505
-1210501
-1210456
-1210645
-1210573
-1210676
-1210853
-1210875
-1210911
-1210848
-1210918
-1210922
-1211048
-1210861
-1211188
-1211307
-1211423
-1211557
-1211414
-1211485
-1211311
-1211529
-1211639
-1211688
-1211899
-1211953
-1211992
-1212193
-1212092
-1212160
-1212122
-1212274
-1212234
-1212366
-1212437
-1212450
-1212714
-1212765
-1212684
-1212704
-1212867
-1212929
-1212959
-1213037
-1213173
-1213312
-1213297
-1213477
-1213424
-1213531
-1213724
-1213696
-1213892
-1213930
-1213821
-1214014
-1213930
-1214057
-1214160
-1214209
-1214270
-1214265
-1214338
-1214274
-1214392
-1214621
-1214645
-1214632
-1214571
-1214647
-1214671
-1214785
-1214647
-1214516
-1214640
-1214480
-1214385
-1214332
-1214229
-1214078
-1213965
-1213463
-1213437
-1213374
-1213116
-1212821
-1212759
-1212520
-1212124
-1212131
-1211632
-1211324
-1211070
-1210642
-1210449
-1210125
-1209845
-1209634
-1209234
-1209093
-1208820
-1208700
-1208309
-1208131
-1207883
-1207865
-1207579
-1207322
-1207272
-1207214
-1207076
-1206986
-1206826
-1206612
-1206526
-1206574
-1206447
-1206500
-1206453
-1206402
-1206418
-1206414
-1206353
-1206360
-1206399
-1206503
-1206575
-1206511
-1206498
-1206511
-1206665
-1206772
-1206660
-1206702
-1206730
-1206858
-1206856
-1206998
-1206887
-1206982
-1207165
-1207191
-1207169
-1207133
-1207090
-1207253
-1207310
-1207302
-1207351
-1207259
-1207413
-1207436
-1207350
-1207146
-1207257
-1207163
-1207276
-1207309
-1207271
-1207140
-1207171
-1207223
-1207065
-1206961
-1206904
-1206994
-1206998
-1206975
-1206836
-1206851
-1206787
-1206588
-1206753
-1206577
-1206455
-1206575
-1206554
-1206413
-1206340
-1206466
-1206367
-1206277
-1206292
-1206340
-1206366
-1206370
-1206357
-1206364
-1206484
-1206264
-1206388
-1206406
-1206588
-1206681
-1206588
-1206694
-1206755
-1206764
-1206943
-1206869
-1207020
-1207195
-1207320
-1207296
-1207349
-1207517
-1207556
-1207519
-1207644
-1207777
-1207894
-1208035
-1208099
-1208149
-1208197
-1208251
-1208260
-1208352
-1208397
-1208458
-1208488
-1208642
-1208677
-1208834
-1208802
-1208964
-1208989
-1208983
-1208970
-1209050
-1209093
-1209208
-1209189
-1209271
-1209304
-1209310
-1209415
-1209324
-1209204
-1209293
-1209328
-1209355
-1209346
-1209876
-1209595
-1209534
-1209521
-1209503
-1209472
-1209413
-1209601
-1209574
-1209691
-1209766
-1209834
-1209817
-1209567
-1209726
-1209675
-1209613
-1209884
-1209924
-1209882
-1209871
-1210018
-1210075
-1210241
-1210285
-1210247
-1210176
-1210393
-1210392
-1210464
-1210493
-1210531
-1210649
-1210625
-1210725
-1210717
-1210844
-1210980
-1211070
-1211060
-1211014
-1211142
-1211374
-1211479
-1211425
-1211422
-1211503
-1211613
-1211660
-1211786
-1211739
-1211746
-1211628
-1211974
-1211951
-1211874
-1212013
-1211937
-1212190
-1212223
-1212160
-1212201
-1212345
-1212365
-1212484
-1212486
-1212601
-1212648
-1212792
-1212728
-1212843
-1212894
-1212999
-1213137
-1213149
-1213183
-1213129
-1213145
-1212985
-1213182
-1213275
-1213071
-1213474
-1213534
-1214381
-1213906
-1213817
-1213794
-1213768
-1213844
-1213914
-1214079
-1214085
-1214188
-1214269
-1214258
-1214201
-1214347
-1214307
-1214401
-1214446
-1214433
-1214605
-1214596
-1214722
-1214800
-1214738
-1214932
-1214967
-1214986
-1215025
-1215088
-1215133
-1215385
-1215424
-1215351
-1215473
-1215538
-1215573
-1215596
-1215610
-1215756
-1215859
-1215953
-1215999
-1215998
-1216075
-1216037
-1216319
-1216352
-1216173
-1216186
-1216406
-1216543
-1216496
-1216515
-1216614
-1216758
-1216814
-1216852
-1216778
-1216897
-1217086
-1217144
-1217218
-1217221
-1217346
-1217405
-1217328
-1217268
-1217432
-1217612
-1217751
-1217744
-1217667
-1217746
-1217591
-1217871
-1218802
-1218253
-1217833
-1218059
-1218245
-1218115
-1218173
-1218283
-1218323
-1218454
-1218369
-1218402
-1218565
-1218594
-1218690
-1218808
-1218853
-1218865
-1218864
-1218870
-1219083
-1219108
-1219104
-1219113
-1219211
-1219184
-1219316
-1219405
-1219495
-1219532
-1219611
-1219582
-1220016
-1219776
-1219734
-1219779
-1219926
-1219906
-1219953
-1220200
-1220153
-1220229
-1220171
-1220251
-1220385
-1220383
-1220263
-1220609
-1220773
-1220744
-1220776
-1220777
-1220755
-1220968
-1221251
-1221322
-1221309
-1221482
-1221384
-1221561
-1221643
-1221518
-1221574
-1221631
-1221737
-1221881
-1221856
-1221869
-1222005
-1222043
-1222249
-1222255
-1222412
-1222340
-1222520
-1222495
-1222504
-1222485
-1222698
-1222779
-1222892
-1222852
-1222836
-1223078
-1223252
-1223232
-1223264
-1223152
-1223196
-1223366
-1223402
-1223007
-1223276
-1223492
-1223442
-1223318
-1224093
-1223417
-1223011
-1222870
-1222615
-1222422
-1222263
-1222123
-1221926
-1221569
-1221427
-1221219
-1220985
-1220572
-1220194
-1219900
-1219669
-1219441
-1219147
-1218856
-1218488
-1218189
-1217997
-1217661
-1217502
-1217112
-1216895
-1216645
-1216440
-1216207
-1215986
-1215856
-1215737
-1215487
-1215268
-1215135
-1215054
-1215023
-1214818
-1214672
-1214586
-1214581
-1214493
-1214560
-1214475
-1214289
-1214404
-1214392
-1214364
-1214392
-1214461
-1214573
-1214698
-1214625
-1214689
-1214740
-1214783
-1214855
-1214923
-1214820
-1214877
-1214887
-1214988
-1214964
-1215082
-1215213
-1215283
-1215352
-1215240
-1215424
-1215575
-1215561
-1215549
-1215474
-1215694
-1216249
-1215887
-1215761
-1215806
-1215827
-1215745
-1215779
-1215772
-1215861
-1216859
-1216086
-1215862
-1215778
-1215823
-1215857
-1215674
-1215791
-1215711
-1215757
-1215649
-1215686
-1215744
-1215660
-1215672
-1215578
-1215647
-1215670
-1215767
-1215588
-1215532
-1215630
-1215780
-1215756
-1215725
-1215697
-1215827
-1215715
-1215813
-1215698
-1215809
-1215978
-1215970
-1216006
-1216169
-1216163
-1216320
-1216298
-1216406
-1216377
-1216481
-1216527
-1216740
-1216761
-1216769
-1216751
-1216865
-1216996
-1217009
-1217090
-1217093
-1217236
-1217345
-1217502
-1217362
-1217418
-1217626
-1217663
-1217778
-1217686
-1217876
-1217922
-1217995
-1217906
-1217846
-1217860
-1217899
-1218114
-1217999
-1217967
-1217922
-1218130
-1218146
-1218154
-1218079
-1218091
-1218139
-1218164
-1218168
-1218217
-1218133
-1218163
-1218251
-1218209
-1218271
-1218238
-1218236
-1218189
-1218191
-1218199
-1218311
-1218216
-1218359
-1218263
-1218414
-1218413
-1218465
-1218552
-1218532
-1218382
-1218341
-1218379
-1218627
-1218556
-1218592
-1218614
-1218588
-1218648
-1218745
-1218646
-1218681
-1218917
-1218903
-1218959
-1218966
-1219031
-1219027
-1219170
-1218987
-1219086
-1219214
-1219341
-1219362
-1219503
-1219534
-1219552
-1219650
-1219764
-1219734
-1219806
-1219874
-1219945
-1219965
-1219976
-1219963
-1219985
-1220126
-1220330
-1220286
-1220238
-1220365
-1220444
-1220510
-1220631
-1220606
-1220656
-1220661
-1220913
-1220757
-1220908
-1221082
-1221156
-1221151
-1221105
-1221215
-1221157
-1221328
-1221266
-1221283
-1221248
-1221288
-1221530
-1221579
-1221557
-1221599
-1221641
-1221856
-1221682
-1221686
-1221723
-1221881
-1222067
-1222076
-1221958
-1222037
-1222130
-1222295
-1222269
-1222251
-1222291
-1222258
-1222290
-1222370
-1222351
-1222409
-1222521
-1222668
-1222708
-1222632
-1222750
-1222838
-1222842
-1222978
-1222785
-1222964
-1222983
-1223093
-1223157
-1223160
-1223075
-1223110
-1223323
-1223327
-1223272
-1223403
-1223379
-1223429
-1223477
-1223473
-1223548
-1223756
-1223749
-1223753
-1223795
-1223958
-1223983
-1224183
-1224072
-1224177
-1224227
-1224244
-1224186
-1224268
-1224298
-1224342
-1224462
-1224545
-1224496
-1224603
-1224599
-1224660
-1224929
-1224869
-1224824
-1225055
-1225081
-1225198
-1225163
-1225110
-1225102
-1225387
-1225491
-1225407
-1225613
-1225639
-1225691
-1225770
-1225726
-1225656
-1225787
-1225826
-1225867
-1225970
-1226070
-1226011
-1226205
-1226182
-1226344
-1226276
-1226437
-1226356
-1226477
-1226343
-1226490
-1226505
-1226647
-1226597
-1226453
-1226509
-1226455
-1226521
-1226466
-1226176
-1225966
-1225992
-1225941
-1225641
-1225398
-1225155
-1224713
-1224702
-1224685
-1224351
-1224080
-1223866
-1223679
-1223252
-1222839
-1222639
-1222464
-1222285
-1221868
-1221574
-1221424
-1221214
-1221066
-1220634
-1220344
-1220272
-1220024
-1219940
-1219611
-1219334
-1219192
-1219173
-1219160
-1218633
-1218635
-1218527
-1218562
-1218425
-1218509
-1218468
-1218353
-1218279
-1218395
-1218381
-1218324
-1218288
-1218280
-1218250
-1218219
-1218205
-1218279
-1218258
-1218350
-1218341
-1218464
-1218593
-1218712
-1218641
-1218576
-1218706
-1218882
-1218855
-1218778
-1218779
-1218794
-1218851
-1219022
-1218919
-1218908
-1218886
-1219090
-1219132
-1219024
-1219135
-1219169
-1219111
-1219129
-1219101
-1219034
-1219128
-1219081
-1219213
-1219177
-1219015
-1218931
-1218958
-1219106
-1219064
-1218866
-1218888
-1218968
-1218997
-1218917
-1218810
-1218891
-1218783
-1218810
-1218845
-1218701
-1218754
-1218743
-1218733
-1218735
-1218749
-1218840
-1218798
-1218881
-1218916
-1218809
-1219005
-1219083
-1219092
-1219160
-1219179
-1219372
-1219446
-1219622
-1219451
-1219484
-1219679
-1219752
-1219765
-1219942
-1220004
-1219953
-1220149
-1220224
-1220184
-1220302
-1220440
-1220527
-1220549
-1220653
-1220539
-1220534
-1220576
-1220767
-1220808
-1220785
-1220740
-1220862
-1220981
-1221052
-1221022
-1220583
-1221052
-1221033
-1221112
-1221109
-1221033
-1221191
-1221169
-1221181
-1221199
-1221181
-1221265
-1221160
-1221193
-1221214
-1221245
-1221272
-1221140
-1221218
-1221211
-1221033
-1221142
-1221150
-1221103
-1221015
-1220994
-1221210
-1221234
-1221140
-1221150
-1221132
-1221129
-1221229
-1221212
-1221099
-1221259
-1221225
-1221250
-1221262
-1221306
-1221285
-1221368
-1221354
-1221388
-1221389
-1221457
-1221521
-1221698
-1221648
-1221655
-1221760
-1221876
-1221833
-1221930
-1221845
-1221876
-1222097
-1222084
-1222175
-1222176
-1222067
-1222173
-1222347
-1222476
-1222490
-1222429
-1222508
-1222648
-1222626
-1222684
-1222604
-1222865
-1223035
-1222969
-1222950
-1222573
-1223468
-1223151
-1223963
-1223389
-1223271
-1223276
-1223407
-1223412
-1223399
-1223307
-1223455
-1223586
-1223610
-1223639
-1223729
-1223745
-1223870
-1223732
-1223842
-1223968
-1223649
-1224038
-1224117
-1224060
-1224121
-1224241
-1224334
-1224050
-1224360
-1224316
-1224426
-1224345
-1224350
-1224580
-1224706
-1224771
-1224565
-1224548
-1224654
-1224868
-1224838
-1224867
-1224691
-1224842
-1225065
-1225012
-1225053
-1224963
-1225005
-1225096
-1225260
-1225073
-1225339
-1225382
-1225364
-1225492
-1225409
-1225465
-1225467
-1225647
-1225621
-1225519
-1225574
-1225766
-1225951
-1225903
-1225898
-1225936
-1225966
-1226182
-1226251
-1226218
-1226152
-1226185
-1226269
-1226251
-1226249
-1226311
-1226403
-1226594
-1226537
-1226675
-1226773
-1226840
-1226822
-1226941
-1226845
-1226888
-1227263
-1227201
-1227078
-1227039
-1227002
-1227108
-1227164
-1227395
-1227328
-1227447
-1227535
-1227532
-1227539
-1227468
-1227519
-1227665
-1227690
-1227709
-1227804
-1227906
-1228026
-1228124
-1227946
-1227986
-1228073
-1228303
-1228247
-1228212
-1228306
-1228334
-1228450
-1228385
-1228411
-1228469
-1228398
-1228600
-1228681
-1228668
-1228624
-1228800
-1228826
-1228787
-1228888
-1228910
-1228987
-1229019
-1229124
-1229140
-1229200
-1229229
-1229294
-1229364
-1229299
-1229406
-1229434
-1229512
-1229588
-1229512
-1229470
-1229594
-1229569
-1229791
-1229824
-1229860
-1230428
-1230153
-1230049
-1230021
-1230132
-1230250
-1230143
-1230282
-1230261
-1230314
-1230419
-1230402
-1230463
-1230434
-1230401
-1230564
-1230731
-1230688
-1230747
-1230624
-1230765
-1230969
-1231054
-1231014
-1231006
-1231036
-1231135
-1231178
-1231315
-1231226
-1231325
-1231401
-1231500
-1231521
-1231513
-1231453
-1231572
-1231666
-1231674
-1231555
-1231682
-1231746
-1231636
-1231592
-1231451
-1231453
-1231436
-1231273
-1230982
-1230817
-1230672
-1230473
-1230238
-1230042
-1229620
-1229344
-1229161
-1228929
-1228422
-1228044
-1227848
-1227620
-1227327
-1227018
-1226604
-1226198
-1226048
-1225728
-1225361
-1224934
-1224636
-1224141
-1224156
-1224005
-1223638
-1223442
-1223406
-1223172
-1222837
-1222838
-1222521
-1222399
-1222267
-1222164
-1222059
-1221884
-1221854
-1221726
-1221658
-1221600
-1221525
-1221658
-1221542
-1221479
-1221468
-1221433
-1221688
-1221672
-1221685
-1221576
-1221619
-1221764
-1221924
-1221923
-1221769
-1221755
-1221907
-1221905
-1221940
-1221882
-1221909
-1222030
-1222238
-1222140
-1222112
-1222099
-1222101
-1222383
-1222353
-1222199
-1222115
-1222267
-1222375
-1222326
-1222133
-1222080
-1222128
-1222214
-1222250
-1222124
-1222051
-1222056
-1221972
-1221950
-1221925
-1221866
-1221952
-1221847
-1221849
-1221640
-1221549
-1221720
-1221736
-1221598
-1221455
-1221373
-1221267
-1221300
-1221364
-1221255
-1221413
-1221407
-1221260
-1221395
-1221184
-1221259
-1221191
-1221323
-1221330
-1221206
-1221174
-1221286
-1221498
-1221556
-1221431
-1221493
-1221527
-1221720
-1221754
-1221647
-1221815
-1221924
-1221986
-1222004
-1222029
-1222123
-1222170
-1222249
-1222256
-1222355
-1222325
-1222564
-1222673
-1222687
-1222588
-1222541
-1222435
-1222717
-1222861
-1222921
-1222958
-1222968
-1223087
-1222944
-1222991
-1223179
-1223183
-1222845
-1222977
-1223031
-1223085
-1223350
-1223333
-1223170
-1223237
-1223197
-1223123
-1223199
-1223055
-1223065
-1223200
-1223176
-1223137
-1223127
-1223143
-1223127
-1223221
-1223134
-1223173
-1223168
-1223236
-1223053
-1223172
-1223129
-1222770
-1222991
-1223184
-1223173
-1223042
-1223127
-1223123
-1223154
-1223208
-1223265
-1223213
-1223369
-1223320
-1223364
-1223200
-1223325
-1223477
-1223509
-1223536
-1223581
-1223627
-1223690
-1223593
-1223672
-1223686
-1223595
-1223807
-1223841
-1223843
-1223923
-1223890
-1224020
-1224036
-1224037
-1224222
-1224223
-1224347
-1225055
-1224497
-1224440
-1224551
-1224579
-1224576
-1224668
-1224674
-1224839
-1224800
-1224989
-1224921
-1224965
-1225044
-1225043
-1225053
-1225083
-1225230
-1225303
-1225333
-1225327
-1225474
-1225323
-1225350
-1226285
-1225728
-1225662
-1225551
-1225600
-1225654
-1225721
-1225642
-1225475
-1225622
-1225856
-1225773
-1225877
-1225802
-1225870
-1226206
-1225952
-1225931
-1225566
-1225860
-1226155
-1226230
-1226302
-1226284
-1226237
-1226395
-1226415
-1226399
-1226395
-1226391
-1226530
-1226527
-1226585
-1226482
-1226520
-1226641
-1226647
-1226676
-1226652
-1226803
-1226717
-1226753
-1226851
-1226759
-1226799
-1227004
-1227001
-1227077
-1226976
-1227063
-1227203
-1227174
-1227112
-1227158
-1227170
-1227318
-1227500
-1227339
-1227357
-1227544
-1227554
-1228154
-1227762
-1227627
-1227583
-1227766
-1227749
-1227683
-1227749
-1227756
-1227925
-1228015
-1227957
-1228168
-1228085
-1228297
-1228282
-1228313
-1228388
-1228448
-1228426
-1228506
-1228478
-1228540
-1228520
-1228620
-1228687
-1228816
-1228834
-1228777
-1228912
-1228940
-1228965
-1229081
-1229018
-1229076
-1229240
-1229206
-1229376
-1229410
