PPG
-850920
-850886
-850829
-850853
-851340
-850844
-850558
-850817
-850832
-850867
-851018
-851041
-850898
-851054
-850951
-850809
-850917
-851132
-851120
-850975
-851748
-851553
-851403
-851302
-851265
-851251
-851368
-852385
-851696
-851531
-851592
-851381
-851659
-851632
-851543
-851491
-851552
-851694
-851905
-851921
-852001
-851990
-851866
-851892
-851954
-851853
-851730
-852001
-852143
-852154
-852307
-852222
-852211
-852774
-852293
-852780
-852297
-852330
-852328
-852537
-852586
-852622
-852531
-852453
-852489
-853043
-852602
-852679
-852684
-852750
-852767
-852889
-853324
-852912
-852888
-852780
-852847
-852971
-853000
-853013
-853179
-853225
-853080
-853133
-853126
-853049
-853176
-853305
-853829
-853432
-853525
-853418
-853334
-853322
-853238
-853298
-853399
-853590
-853698
-853625
-853686
-853910
-853824
-853809
-853860
-853813
-853842
-853989
-854017
-854083
-854210
-854246
-854305
-854188
-854258
-854214
-854249
-854390
-854449
-854492
-854562
-854332
-854483
-854601
-854562
-854598
-854700
-854712
-854804
-855352
-854810
-855042
-854948
-854865
-854799
-854853
-854916
-855091
-855102
-855020
-855074
-855218
-855191
-855093
-854955
-854712
-854814
-854849
-854804
-854763
-854742
-854700
-854409
-854224
-854210
-853884
-853768
-853447
-853445
-853331
-853272
-853234
-853102
-852812
-852735
-852571
-852300
-852232
-852207
-852007
-852036
-851703
-851653
-851518
-851476
-851255
-851205
-851079
-851035
-850967
-850994
-850986
-850881
-850670
-850702
-850613
-850451
-850485
-850534
-850478
-850556
-850566
-850630
-850486
-850363
-850300
-850319
-850464
-850475
-850346
-850365
-850605
-850339
-850519
-850554
-850290
-850590
-850732
-850680
-850818
-850844
-850926
-850755
-850798
-850775
-850538
-850816
-850879
-850927
-851004
-851102
-851107
-851105
-850946
-851135
-851062
-851119
-851246
-851131
-851199
-851314
-851291
-851325
-851255
-851328
-851034
-851278
-851351
-851304
-851363
-852005
-851589
-851470
-851507
-851481
-851454
-851546
-851611
-851648
-851692
-851719
-851877
-851751
-851713
-851731
-851626
-851749
-851862
-851899
-851974
-852136
-852009
-851934
-851927
-852001
-851898
-852006
-852900
-852368
-852344
-852265
-852321
-852240
-852302
-852176
-852093
-852211
-852363
-852416
-852375
-852372
-852430
-852417
-852409
-852392
-852281
-852488
-852553
-852394
-852466
-852514
-852550
-852460
-852486
-852468
-852423
-852568
-852735
-852638
-852704
-852806
-852863
-852732
-852662
-852585
-852569
-852548
-852653
-852687
-852745
-852744
-852957
-852892
-852784
-852789
-852755
-852746
-852915
-852971
-852928
-853047
-853090
-853033
-852972
-853023
-852910
-853071
-853143
-853111
-853140
-853227
-853272
-853302
-853252
-853257
-853082
-853190
-853513
-853592
-853605
-853735
-853854
-853878
-853821
-853896
-853818
-853751
-853813
-853845
-853855
-853963
-854017
-853892
-853899
-853930
-853815
-853941
-854110
-854050
-854103
-854168
-854359
-854375
-854329
-854289
-854149
-854230
-854315
-854326
-854348
-854528
-854519
-854498
-854452
-854569
-854479
-854556
-854674
-854634
-854723
-854810
-854851
-854843
-854764
-854774
-854736
-854839
-854840
-854854
-854810
-854948
-855060
-855053
-854924
-855037
-855001
-854952
-855141
-855093
-855172
-855317
-855281
-855151
-855199
-855186
-855099
-855179
-855270
-855219
-855331
-855402
-855507
-855455
-855509
-855533
-855464
-855470
-855597
-855560
-855543
-855733
-855695
-855741
-855561
-855625
-855597
-855652
-855729
-855716
-855771
-855873
-855935
-855770
-855790
-855726
-855766
-855803
-856039
-855954
-855965
-856094
-856135
-856123
-856046
-856009
-855966
-855984
-856080
-856179
-856289
-856215
-856223
-856231
-856303
-856338
-856313
-856337
-856420
-856383
-856492
-856375
-856389
-856427
-856489
-856569
-856563
-856572
-856583
-856686
-856651
-856752
-856909
-856805
-856727
-856992
-856987
-856950
-857051
-857032
-857233
-857165
-857328
-857295
-857196
-857127
-857102
-857168
-857348
-857336
-857312
-857374
-857348
-857277
-857094
-857060
-857067
-857109
-857044
-856976
-856908
-856832
-856682
-856576
-856378
-856100
-856025
-855870
-855791
-855665
-855561
-855365
-855261
-854937
-854868
-854639
-854408
-854384
-854152
-854088
-854051
-853875
-853746
-853575
-853437
-853289
-853298
-853201
-853114
-853002
-852965
-852769
-852701
-852592
-852659
-852490
-852572
-852556
-852488
-852530
-852572
-852558
-852460
-852335
-852283
-852318
-852379
-852347
-852396
-852437
-852525
-852639
-852496
-852502
-852391
-852360
-852599
-852592
-852641
-852796
-852769
-852867
-852808
-852795
-852807
-852700
-852758
-852904
-852864
-853020
-853133
-853151
-853057
-852896
-852963
-852962
-852933
-852989
-853110
-853144
-853177
-853144
-853154
-853126
-853090
-853149
-853265
-853166
-853303
-853302
-853404
-853446
-853330
-853371
-853261
-853394
-853347
-853375
-853358
-853569
-853561
-853571
-853617
-853462
-853391
-853478
-853604
-853637
-853676
-853788
-853769
-853819
-853741
-853750
-853610
-853737
-853717
-853833
-853720
-853918
-853963
-853932
-853797
-853843
-853685
-853771
-853707
-853881
-853890
-853939
-853997
-853955
-853885
-853854
-853820
-853914
-853892
-853841
-853919
-853965
-854024
-853965
-854001
-854016
-853784
-853894
-854013
-853965
-853999
-854047
-854075
-854037
-853971
-853881
-853970
-854020
-854070
-854034
-854095
-854142
-854187
-854145
-854117
-853989
-854017
-854118
-854226
-854273
-854257
-854302
-854239
-854327
-854330
-854313
-854236
-854390
-854345
-854469
-854479
-854519
-854512
-854504
-854390
-854368
-854474
-854536
-854615
-854648
-854651
-854786
-854643
-854650
-854604
-854620
-854730
-854878
-854792
-854850
-854856
-854956
-854910
-854886
-854818
-854786
-854928
-854963
-854957
-855078
-855220
-855148
-855095
-855115
-855060
-855025
-855053
-855240
-855218
-855271
-855352
-855442
-855347
-855287
-855310
-855254
-855415
-855489
-855408
-855401
-855480
-855508
-855577
-855483
-855441
-855416
-855560
-855544
-855593
-855578
-855654
-855698
-855641
-855760
-855670
-855648
-855667
-855886
-855848
-855872
-855898
-855981
-855928
-855923
-855899
-855742
-855740
-855972
-855908
-855982
-856061
-856113
-856093
-855959
-856047
-855934
-856069
-856156
-856242
-856156
-856311
-856259
-856293
-856164
-856182
-856176
-856306
-856332
-856472
-856488
-856484
-856369
-856338
-856372
-856384
-856358
-856367
-856503
-856539
-856515
-856636
-856755
-856731
-856643
-856609
-856494
-856658
-856831
-856861
-856780
-856800
-856823
-856866
-856885
-856743
-856756
-856816
-856883
-856913
-856878
-857083
-857081
-857109
-857086
-857051
-856955
-857100
-857199
-857171
-857136
-857200
-857335
-857297
-857170
-857260
-857244
-857224
-857416
-857409
-857462
-857452
-857425
-857444
-857405
-857364
-857374
-857555
-857829
-857909
-857944
-857954
-858005
-857936
-857852
-857803
-857787
-857805
-857893
-857852
-857760
-857796
-857873
-857947
-857847
-857863
-857682
-857571
-857612
-857656
-857643
-857659
-857403
-857356
-857149
-856918
-856664
-856530
-856606
-856387
-856285
-856274
-856018
-855788
-855604
-855382
-855215
-855201
-855183
-854996
-854724
-854610
-854576
-854330
-854245
-854039
-853818
-853756
-853658
-853621
-853547
-853445
-853518
-853354
-853092
-853011
-852935
-852996
-852978
-853051
-852916
-852982
-852964
-852881
-852877
-852853
-852740
-852781
-852834
-852869
-852937
-853031
-853087
-853086
-852925
-852981
-852942
-852825
-852832
-852914
-853125
-853058
-853152
-853105
-852939
-853005
-852867
-853061
-853178
-853190
-853229
-853330
-853357
-853289
-853199
-853177
-853266
-853214
-853271
-853344
-853338
-853340
-853324
-853387
-853274
-853352
-853172
-853214
-853344
-853409
-853364
-853480
-853477
-853498
-853400
-853337
-853259
-853387
-853436
-853474
-853586
-853727
-853648
-853564
-853606
-853650
-853474
-853554
-853640
-853709
-853759
-853760
-853839
-853764
-853706
-853818
-853794
-853813
-853873
-853880
-853921
-854026
-854133
-853941
-853907
-853870
-853856
-853851
-854009
-854073
-853984
-854037
-854165
-854055
-853969
-854021
-853930
-854049
-854019
-854025
-853956
-854155
-854145
-854134
-853997
-854030
-853877
-854060
-854067
-854020
-854141
-854156
-854244
-854116
-854143
-854146
-853938
-853969
-854074
-854063
-854051
-854136
-854239
-854291
-854101
-854266
-854153
-854253
-854231
-854194
-854294
-854464
-854411
-854412
-854313
-854324
-854325
-854389
-854330
-854453
-854399
-854392
-854569
-854508
-854514
-854542
-854492
-854533
-854661
-854677
-854594
-854726
-854788
-854726
-854639
-854634
-854611
-854645
-854843
-854856
-854730
-854838
-854906
-854902
-854876
-854871
-854870
-854923
-855039
-855093
-854990
-855042
-855162
-855149
-855028
-855140
-854956
-855030
-855141
-855203
-855177
-855448
-855434
-855435
-855310
-855285
-855198
-855192
-855374
-855388
-855356
-855477
-855535
-855443
-855440
-855452
-855354
-855532
-855629
-855611
-855559
-855712
-855778
-855629
-855846
-855926
-855980
-855808
-855803
-855704
-855804
-855929
-856033
-856011
-855982
-856046
-856068
-855909
-855958
-855872
-855965
-856037
-856133
-856063
-856176
-856206
-856179
-856059
-856131
-856172
-856108
-856243
-856325
-856225
-856387
-856377
-856372
-856370
-856525
-856424
-856559
-856635
-856679
-856676
-856659
-856656
-856643
-856567
-856541
-856427
-856498
-856705
-856702
-856626
-856687
-856706
-856817
-856734
-856692
-856652
-856677
-856900
-856888
-856864
-856855
-857077
-856922
-856924
-856846
-856855
-856776
-856917
-856989
-856973
-857034
-857148
-857055
-856912
-857007
-856999
-857154
-857220
-857194
-857265
-857313
-857275
-857178
-857166
-857144
-857043
-857230
-857271
-857276
-857339
-857426
-857510
-857524
-857428
-857463
-857394
-857441
-857466
-857590
-857678
-857791
-857733
-857737
-857675
-857555
-857521
-857754
-857759
-857737
-857682
-857762
-857756
-857605
-857547
-857486
-857299
-857106
-857158
-856979
-857019
-856942
-856755
-856586
-856307
-856121
-855883
-855906
-855771
-855644
-855464
-855281
-855236
-855042
-854731
-854530
-854268
-854228
-854219
-854033
-853848
-853732
-853671
-853545
-853327
-853357
-853198
-853173
-853125
-852862
-852819
-852785
-852717
-852744
-852517
-852449
-852411
-852413
-852421
-852274
-852316
-853019
-852647
-852470
-852342
-852150
-852094
-852129
-852245
-852340
-852419
-852528
-852329
-852442
-852420
-852488
-852491
-852506
-852481
-852405
-852362
-852316
-852341
-852469
-852482
-852480
-852626
-852568
-852572
-852553
-852447
-852515
-852653
-852758
-852586
-852678
-852739
-852674
-852631
-852662
-852648
-852581
-852522
-852542
-852590
-852575
-852634
-852692
-852781
-852631
-852650
-852625
-852749
-852855
-852943
-852925
-853111
-853133
-852803
-852861
-852977
-852891
-852998
-852971
-853137
-853232
-853146
-853111
-853242
-853153
-853053
-853044
-853254
-853334
-853324
-853314
-853313
-853418
-853451
-853453
-853347
-853245
-853262
-853330
-853356
-853384
-853409
-853442
-853374
-853415
-853395
-853309
-853398
-853429
-853386
-853398
-853282
-853504
-853343
-853326
-853449
-853457
-853389
-853480
-853425
-853480
-853426
-853500
-853632
-853591
-853491
-853438
-853557
-853677
-853657
-853692
-853694
-853814
-853682
-853791
-853708
-853653
-853765
-853933
-853935
-853934
-854065
-854102
-853996
-853999
-854013
-853919
-854058
-854074
-854144
-854236
-854163
-854191
-854196
-854129
-854143
-854196
-854237
-854276
-854344
-854343
-854384
-854442
-854505
-854503
-854461
-854428
-854483
-854504
-854513
-854544
-854639
-854803
-854690
-854765
-854683
-854525
-854702
-854792
-854916
-854896
-855008
-855100
-854975
-854839
-854952
-854825
-854866
-855041
-855080
-855092
-855177
-855170
-855112
-855175
-855077
-855036
-855268
-855333
-855481
-855473
-855445
-855527
-855517
-855504
-855535
-855387
-855384
-855476
-855462
-855635
-855622
-855756
-855786
-855661
-855596
-855561
-855450
-855694
-855829
-855865
-855989
-856000
-855940
-855919
-855641
-855691
-855743
-855874
-855897
-855968
-855762
-856006
-856085
-856048
-856159
-855947
-856008
-856090
-856187
-856281
-856356
-856353
-856223
-856184
-856188
-856056
-856205
-856274
-856273
-856349
-856358
-856336
-856312
-856378
-856476
-856427
-856440
-856378
-856395
-856509
-856520
-856506
-856482
-856572
-856586
-856461
-856527
-856515
-856531
-856703
-856786
-856853
-856726
-856722
-856679
-856599
-856680
-856823
-856884
-856886
-856840
-856855
-856875
-856926
-856858
-856751
-856656
-856976
-857084
-857023
-857030
-857135
-857137
-857063
-857112
-856970
-857044
-857111
-857075
-857157
-857259
-857243
-857297
-857145
-857284
-857221
-857204
-857387
-857487
-857511
-857561
-857441
-857403
-857296
-857437
-857602
-857622
-857632
-857681
-857711
-857615
-857485
-857559
-857504
-857549
-857617
-857464
-857445
-857396
-857190
-857176
-856940
-856731
-856656
-856659
-856594
-856460
-856307
-856118
-856023
-855735
-855699
-855324
-855270
-855150
-855018
-854766
-854734
-854645
-854547
-854231
-854101
-853892
-853826
-853676
-853517
-853513
-853506
-853389
-853229
-853170
-853100
-852939
-852875
-852917
-852840
-852796
-852785
-852838
-852778
-852706
-852669
-852555
-852514
-852622
-852624
-852640
-852699
-852621
-852573
-852485
-852599
-852535
-852481
-852671
-852672
-852622
-852760
-852757
-852806
-852673
-852676
-852636
-852689
-852744
-852769
-852815
-852863
-853010
-852993
-852817
-852750
-852719
-852863
-853036
-853422
-853125
-853136
-853154
-853111
-853102
-853069
-852969
-852961
-853024
-853041
-853108
-853212
-853202
-852935
-853030
-853085
-852976
-853037
-853186
-853217
-853280
-853305
-853282
-853287
-853189
-853256
-853131
-853104
-853187
-853325
-853285
-853291
-853384
-853494
-853474
-853514
-853419
-853395
-853430
-853488
-853479
-853437
-853542
-853552
-853426
-853388
-853373
-853348
-853514
-853444
-853472
-853651
-853691
-853634
-853436
-853415
-853375
-853427
-853512
-853522
-853511
-853629
-853529
-853464
-853438
-853489
-853544
-853519
-853560
-853558
-853586
-853605
-853650
-853627
-853611
-853455
-853425
-853517
-853552
-853565
-853605
-853596
-853641
-853631
-853568
-853640
-853543
-853710
-853741
-853668
-853690
-853760
-853664
-853756
-853716
-853725
-853736
-853750
-853729
-853736
-853798
-853883
-853926
-853802
-853740
-853940
-853825
-853912
-853933
-853904
-853991
-854008
-853930
-853887
-853819
-853843
-853866
-853935
-853966
-853944
-854078
-854117
-853813
-853871
-853845
-853913
-853953
-854037
-853973
-854024
-854075
-854046
-853941
-853913
-853783
-853802
-853984
-853969
-853956
-853995
-854055
-853941
-853842
-853833
-853745
-853741
-854671
-854048
-853831
-853737
-853850
-853774
-853622
-853688
-853553
-853495
-854311
-853541
-853521
-853706
-853615
-853586
-853527
-853583
-853468
-853513
-853578
-853447
-853500
-853587
-853408
-853349
-853273
-853264
-853274
-853315
-853348
-853359
-853368
-853435
-853237
-853400
-853278
-853223
-853218
-853256
-853420
-853403
-853422
-853376
-853387
-853305
-853373
-853249
-853194
-853201
-853297
-853283
-853189
-853217
-853314
-853247
-853204
-853231
-853109
-853119
-853197
-853203
-853266
-853292
-853330
-853271
-853207
-853147
-852932
-853086
-853107
-853244
-853154
-853194
-852992
-853067
-853157
-853170
-853194
-853168
-853251
-853236
-853257
-853228
-853246
-853287
-853300
-853351
-853267
-853369
-853433
-853436
-853381
-853356
-853225
-853218
-853263
-853368
-853376
-853359
-853436
-853508
-853439
-853438
-853456
-853300
-853430
-853581
-853539
-853498
-853703
-853672
-853636
-853522
-853553
-853371
-853468
-853438
-853486
-853490
-853506
-853440
-853250
-853096
-852929
-852798
-852745
-852705
-852484
-852430
-852280
-852169
-851920
-851723
-851560
-851358
-851149
-851048
-850894
-850792
-850728
-850536
-850442
-850131
-850089
-849818
-849742
-849597
-849564
-849536
-849450
-849405
-849171
-849127
-848933
-848799
-848831
-848840
-848720
-848711
-848805
-848703
-848425
-848495
-848513
-848460
-848552
-848576
-848593
-848473
-848572
-848583
-848623
-848596
-848635
-848549
-848617
-848692
-848703
-848694
-848856
-848871
-848828
-848869
-848830
-848827
-848831
-848929
-848864
-849002
-849049
-849093
-849139
-849039
-849109
-848997
-849100
-849094
-849184
-849236
-849271
-849266
-849359
-849391
-849298
-849258
-849290
-849462
-849399
-849424
-849483
-849562
-849467
-849388
-849422
-849434
-849503
-849484
-849576
-849477
-849675
-849718
-849617
-849556
-849591
-849518
-849586
-849749
-849758
-849790
-849794
-849896
-849838
-849774
-849701
-849504
-849646
-849713
-849726
-849772
-849740
-849763
-849707
-849619
-849501
-849495
-849590
-849620
-849607
-849690
-849679
-849723
-849705
-849599
-849485
-849297
-849461
-849590
-849578
-849462
-849497
-849570
-849417
-849465
-849364
-849359
-849312
-849449
-849443
-849495
-849627
-849684
-849520
-849457
-849454
-849386
-849464
-849479
-849589
-849652
-849584
-849713
-849685
-849600
-849535
-849498
-849604
-849636
-849736
-849673
-849736
-849724
-849735
-849727
-849578
-849619
-849751
-849815
-849853
-849915
-849876
-849890
-849889
-849807
-849761
-849857
-849843
-849892
-849934
-850078
-850140
-849991
-850033
-850060
-849911
-849948
-849977
-850057
-850589
-850255
-850288
-850159
-850154
-850088
-850159
-850310
-850337
-850302
-850360
-850299
-850254
-850389
-850374
-850292
-850362
-850387
-850588
-850640
-850765
-850699
-850585
-850318
-850469
-850446
-850539
-850624
-850629
-850678
-850722
-850762
-850606
-850570
-850640
-850552
-850579
-850616
-850704
-850652
-850781
-850962
-850812
-850558
-850596
-850604
-850594
-850660
-850855
-850814
-850952
-850965
-850815
-850818
-850765
-850622
-850700
-850781
-850812
-850793
-850890
-850893
-850900
-850862
-850839
-850869
-850938
-850923
-851034
-851010
-850947
-851040
-850956
-850962
-851026
-850923
-850975
-851053
-850993
-851019
-851048
-851145
-851007
-851096
-851030
-850946
-850948
-851063
-851069
-851004
-851186
-851215
-851129
-851057
-851174
-850976
-851013
-851149
-851216
-851217
-851343
-851240
-851192
-851183
-851158
-851152
-851457
-851371
-851331
-851347
-852162
-851634
-851398
-851303
-851326
-851285
-851374
-851530
-851523
-851596
-851624
-851627
-851581
-851448
-851545
-851532
-851479
-851654
-852189
-851748
-851790
-851756
-851600
-851379
-851488
-851355
-851528
-851561
-851592
-851574
-851466
-851460
-851413
-851246
-851146
-850935
-850850
-850834
-850710
-850580
-850518
-850423
-850013
-849878
-849696
-849559
-849342
-849279
-849098
-848990
-848533
-848650
-848537
-848234
-848074
-847916
-847772
-847764
-847679
-847593
-847423
-847310
-847282
-847156
-847010
-846840
-846925
-846895
-846813
-846751
-846724
-846834
-846656
-846706
-846578
-846651
-846579
-846683
-846642
-846701
-846732
-846735
-846732
-846675
-846686
-846675
-846695
-846891
-846666
-846895
-847061
-847011
-846971
-847003
-847079
-846939
-847055
-847215
-847141
-847136
-847232
-847290
-847219
-847147
-847197
-847635
-847381
-847409
-847397
-847481
-847549
-847589
-847590
-847549
-847488
-847524
-847606
-847580
-847666
-847704
-847723
-847711
-847735
-847655
-847638
-847658
-847640
-847724
-847816
-847900
-847957
-848032
-847880
-847898
-847854
-847843
-847825
-847948
-848040
-848000
-848091
-848133
-848051
-848013
-847949
-847953
-848041
-848358
-848143
-848035
-848148
-847969
-847878
-847892
-847858
-847922
-847921
-847822
-847872
-848028
-847965
-848276
-848047
-847821
-847784
-847876
-847805
-847770
-847829
-847656
-847884
-847793
-847702
-847768
-847735
-847676
-847680
-847820
-847867
-847929
-847833
-847677
-847666
-847579
-847586
-847818
-847841
-847840
-847884
-847929
-847910
-847808
-847787
-847645
-847827
-848006
-847980
-847995
-848047
-848121
-848040
-847980
-847915
-847816
-848656
-848311
-848218
-848195
-848206
-848309
-848269
-848218
-848166
-848190
-848266
-848289
-848406
-848308
-848514
-848529
-848526
-848438
-848383
-848371
-848520
-848626
-848554
-848614
-848635
-848726
-848647
-848641
-848719
-848703
-848706
-848741
-848772
-848850
-848902
-848925
-848878
-848809
-848789
-848794
-848915
-848894
-848975
-849057
-849065
-849083
-849017
-849407
-849098
-848969
-849095
-849211
-849292
-849291
-849162
-849164
-849172
-849256
-849264
-849257
-849389
-849405
-849467
-849329
-849321
-849188
-849262
-849460
-849450
-849376
-849883
-849572
-849482
-849329
-849388
-849405
-849391
-849471
-849505
-849536
-849696
-849546
-849532
-849542
-849602
-849419
-849390
-849494
-849616
-849545
-849691
-849712
-849653
-849580
-849501
-849505
-849534
-849582
-849635
-849781
-849709
-849794
-849783
-849596
-849732
-849635
-849621
-849719
-849816
-849801
-849917
-849914
-849730
-849804
-849714
-849752
-849876
-849895
-849998
-849988
-849964
-850039
-850012
-849863
-849978
-849900
-849941
-850034
-850087
-850041
-850094
-850204
-850187
-850105
-850131
-850006
-850036
-850200
-850294
-850238
-850328
-850245
-850203
-850320
-850220
-850159
-850282
-850289
-850365
-850370
-850850
-850617
-850377
-850341
-850301
-850258
-850326
-850319
-850345
-850483
-850384
-850265
-850116
-849947
-849784
-849675
-849632
-849453
-849275
-849329
-849171
-848803
-848692
-848588
-848324
-848240
-848083
-847945
-847963
-847792
-847570
-847473
-847264
-847005
-846894
-846813
-846672
-846547
-846432
-846358
-846380
-846174
-846044
-845874
-845635
-845776
-845820
-845625
-845603
-845606
-845553
-845488
-845427
-845435
-845452
-845335
-845499
-845446
-845501
-845640
-845469
-845550
-845469
-845413
-845430
-845566
-845785
-845870
-845938
-845893
-845902
-845910
-845873
-845766
-845790
-845975
-845950
-846064
-846033
-846241
-846206
-846229
-846199
-846263
-846125
-846154
-846270
-846388
-846389
-846510
-846526
-846414
-846531
-846481
-846459
-846504
-846603
-846706
-846667
-846663
-846713
-846728
-846609
-846697
-846607
-846632
-846712
-846687
-846668
-846737
-846813
-846678
-846647
-846681
-846628
-846580
-846641
-846619
-846665
-846696
-846747
-846782
-846611
-846527
-846445
-846475
-846593
-846472
-846509
-846553
-846396
-846360
-846314
-846212
-846187
-846249
-846079
-846144
-846238
-846280
-846215
-846079
-846049
-846012
-845939
-845975
-846027
-845981
-845926
-845884
-845946
-845978
-845883
-845931
-845798
-845874
-845792
-845732
-845877
-845922
-845914
-845921
-845731
-845823
-845635
-845766
-845892
-845820
-845772
-845922
-846256
-845863
-845694
-845794
-845640
-845677
-845796
-845789
-845895
-845948
-845884
-845848
-845794
-845936
-845818
-845926
-845976
-846018
-846096
-846112
-846006
-846455
-846134
-845981
-846084
-845925
-846047
-846065
-846144
-846211
-846258
-846112
-846265
-846088
-846110
-846182
-846245
-846193
-846371
-846734
-846294
-846192
-846289
-846178
-845998
-846218
-846362
-846415
-846370
-846458
-846442
-846415
-846413
-846222
-846387
-846407
-846416
-846443
-846566
-846516
-846372
-846340
-846390
-846431
-846442
-846510
-846558
-846719
-846625
-846558
-846521
-846566
-846417
-846456
-846632
-846565
-846545
-846697
-846501
-846652
-846629
-846696
-846573
-846729
-846752
-846704
-846713
-846881
-846912
-846794
-846644
-846735
-846690
-846711
-846847
-846858
-846841
-846925
-847000
-846909
-846822
-846765
-846700
-846918
-846882
-846952
-847000
-847086
-847016
-846997
-846941
-846935
-846796
-846905
-847075
-847029
-846972
-847065
-847201
-847198
-847141
-847043
-846983
-847073
-847148
-847178
-847294
-847351
-847319
-847295
-847181
-847212
-847189
-847205
-847384
-847432
-847449
-847457
-847444
-847421
-847303
-847345
-847332
-847386
-847552
-847458
-847529
-847669
-847601
-847581
-847526
-847579
-847541
-847488
-847582
-847672
-847610
-847701
-847689
-847666
-847581
-847508
-847455
-847484
-847490
-847450
-848028
-847576
-847344
-847213
-846892
-846736
-846319
-846443
-846379
-846267
-846124
-846005
-845847
-845641
-845457
-845419
-845063
-845043
-844888
-844688
-844597
-844580
-844441
-844201
-844083
-843888
-843832
-843812
-843764
-843592
-843543
-843501
-843421
-843338
-843170
-843003
-843011
-843053
-843155
-843189
-843094
-843047
-843146
-843001
-842953
-843046
-843064
-843001
-843089
-843076
-843173
-843246
-843367
-843315
-843306
-843300
-843153
-843228
-843275
-843452
-843352
-843550
-843476
-843484
-843489
-843450
-843384
-843559
-843682
-843670
-843747
-843888
-843899
-843758
-843719
-843698
-843634
-843840
-843896
-843801
-843963
-843960
-844007
-843942
-843843
-843919
-843818
-843850
-844009
-844021
-844431
-844861
-844396
-844162
-844120
-844103
-843948
-844151
-844185
-844179
-844122
-844185
-844169
-844294
-844245
-844120
-844037
-844155
-844169
-844925
-844436
-844376
-844266
-844210
-844140
-844111
-844052
-844038
-844116
-844151
-843973
-844847
-844406
-844125
-844150
-844057
-843921
-844105
-844169
-844076
-843991
-844055
-844184
-844068
-843985
-843962
-843856
-843938
-844068
-843998
-844055
-844161
-844033
-843969
-844033
-843949
-843822
-844019
-844062
-844139
-843902
-844203
-844131
-844032
-844069
-844011
-843976
-844138
-844195
-844223
-844281
-844318
-844299
-844301
-844315
-844254
-844309
-844393
-844465
-844522
-844447
-844413
-844409
-844382
-844474
-844560
-844588
-844625
-844679
-844520
-844795
-844698
-844664
-844752
-844851
-844820
-844869
-844927
-844992
-844947
-844897
-844932
-844800
-844939
-845032
-844997
-844834
-844995
-845154
-845174
-845193
-845027
-845054
-844977
-845089
-845236
-845144
-845252
-845324
-845767
-845455
-844997
-845157
-845237
-845196
-845199
-845247
-845249
-845372
-845400
-845348
-845267
-845288
-845216
-845352
-845370
-845449
-845437
-845491
-845537
-845499
-845481
-845408
-845261
-845320
-845379
-845469
-845516
-845576
-845544
-845372
-845439
-845427
-845502
-845414
-845464
-845500
-845458
-845580
-845617
-845638
-845420
-845557
-845346
-845523
-845625
-845609
-845713
-845802
-845697
-845776
-845597
-845691
-845658
-845618
-845792
-845819
-845809
-845802
-845749
-845675
-845835
-845839
-845929
-845959
-845903
-845927
-845976
-846038
-846052
-845891
-845883
-845905
-845982
-846009
-846136
-846105
-846114
-846089
-846141
-845971
-846036
-846048
-846199
-846206
-846222
-846240
-846345
-846385
-846199
-846158
-846152
-846180
-846202
-846322
-846265
-846300
-846371
-846465
-846353
-846376
-846314
-846223
-846308
-846449
-846443
-846404
-846450
-846405
-846280
-846252
-846221
-846091
-845998
-845935
-845734
-845774
-845654
-845587
-845406
-845205
-845052
-844813
-844823
-844656
-844442
-844338
-844220
-843993
-843827
-843699
-843491
-843182
-843121
-842950
-842762
-842813
-842457
-842491
-842386
-842154
-842078
-841950
-841935
-841898
-841802
-841853
-841835
-841642
-841534
-841822
-841546
-841375
-841382
-841834
-841422
-841501
-841557
-841425
-841427
-841308
-841429
-841301
-841455
-841558
-841486
-841465
-841528
-841536
-841568
-841509
-842185
-841813
-841758
-842267
-841864
-841843
-841803
-841853
-841850
-841762
-841687
-841833
-841961
-841964
-841936
-842095
-842143
-842083
-841944
-841905
-841849
-841917
-842074
-842031
-842034
-842190
-842108
-842030
-842061
-842026
-842043
-842062
-842197
-842145
-842228
-842258
-842295
-842261
-842168
-842161
-842145
-842245
-842226
-842247
-842284
-842354
-842303
-842325
-842206
-842059
-842146
-842260
-842264
-842207
-842228
-842438
-842370
-842355
-842177
-842230
-842155
-842140
-842163
-841885
-842187
-842258
-842286
-842181
-842079
-841992
-841957
-841979
-842093
-842064
-842072
-842082
-842081
-841939
-841830
-841852
-841816
-841907
-841782
-841885
-841860
-841889
-842029
-841905
-841932
-841829
-841574
-841797
-841937
-841881
-841873
-842003
-842037
-841858
-841826
-841956
-841887
-842043
-842025
-841957
-842049
-842065
-842069
-842095
-841869
-842021
-842012
-842029
-842066
-842116
-842252
-842164
-842366
-842198
-842202
-842225
-842188
-842249
-842367
-842329
-842321
-842341
-842316
-842411
-842286
-842376
-842331
-842508
-842488
-842492
-842496
-842568
-842555
-842547
-842536
-842550
-842498
-842612
-842712
-842641
-842705
-842680
-842820
-842752
-842628
-842718
-842714
-842772
-842759
-842745
-842725
-842855
-842816
-842791
-842845
-842737
-842689
-842781
-842805
-842789
-842880
-843004
-843007
-842953
-842909
-842913
-842814
-843008
-842956
-842952
-842932
-843158
-843079
-843105
-843000
-843006
-843049
-843064
-843143
-843171
-843109
-843310
-843213
-843129
-843031
-843111
-843117
-843143
-843217
-843266
-843185
-843324
-843383
-843215
-843235
-843262
-843205
-843231
-843375
-843389
-843341
-843371
-843378
-843271
-843314
-843362
-843237
-843280
-843344
-843368
-843418
-843434
-843480
-843527
-843428
-843921
-843444
-843401
-843555
-843552
-843453
-843565
-843538
-843434
-843510
-843550
-843501
-843480
-843543
-843426
-843574
-843703
-843607
-843624
-843643
-843571
-843502
-843591
-843665
-843758
-843795
-843818
-843880
-843750
-843738
-843730
-843653
-843711
-843792
-843763
-843702
-843724
-843794
-843615
-843611
-843410
-843305
-843158
-843236
-843048
-842997
-843004
-842850
-842683
-842372
-842292
-842134
-841987
-841878
-841667
-841614
-841479
-841216
-840979
-840860
-840585
-840549
-840427
-840288
-840197
-840010
-840022
-839837
-839629
-839478
-839353
-839214
-839211
-839175
-839086
-839000
-838969
-838908
-838824
-838806
-838703
-838592
-838668
-838592
-838590
-838514
-838561
-838469
-838541
-838428
-838366
-838429
-838435
-838449
-838991
-838568
-838615
-838507
-838465
-838426
-838379
-838130
-838366
-838495
-838444
-838571
-838605
-838568
-838513
-838394
-838437
-838469
-838510
-838634
-838468
-838492
-838574
-838556
-838638
-838495
-838526
-838581
-838530
-838617
-838550
-838738
-838734
-838515
-838524
-838562
-838468
-838455
-838509
-838470
-838430
-838551
-838745
-838705
-838639
-838413
-838664
-838615
-838718
-838731
-838730
-838828
-838843
-838751
-838712
-838739
-838687
-838643
-838807
-838792
-838921
-838947
-838965
-838980
-838965
-838914
-838832
-838769
-838849
-839049
-838935
-838955
-838989
-838975
-838922
-838844
-838897
-838987
-839011
-839029
-838901
-838749
-838887
-838827
-838813
-838879
-838837
-838943
-838978
-838884
-838864
-838702
-838688
-838743
-838811
-838752
-838499
-838747
-838864
-838875
-838762
-838686
-838673
-838671
-838665
-838810
-838733
-838767
-838822
-838855
-838712
-838631
-838714
-838630
-838764
-838894
-838909
-838771
-838940
-838854
-838884
-838846
-838827
-838888
-838954
-838956
-838943
-838999
-838939
-838929
-838907
-838861
-838964
-838923
-838963
-838930
-839063
-838938
-839060
-839011
-839085
-838951
-839025
-839020
-839012
-838951
-839026
-838969
-839109
-839150
-839071
-839027
-838950
-838883
-839061
-839025
-839181
-839173
-839498
-839348
-839292
-839129
-839057
-839117
-839091
-839150
-839094
-839164
-839331
-839225
-839188
-839204
-839212
-839112
-839211
-839322
-839257
-839315
-839365
-839382
-839367
-839271
-839257
-839268
-839451
-839372
-839270
-839442
-839455
-839432
-839344
-839301
-839396
-839295
-839377
-839461
-839502
-839360
-839393
-839520
-839408
-839370
-839503
-839472
-839499
-839629
-839578
-839639
-839658
-839638
-839500
-839543
-839563
-839531
-839655
-839722
-839701
-839660
-839672
-839541
-839674
-839634
-839518
-839635
-839732
-839642
-839723
-839745
-839772
-839748
-839796
-839744
-839694
-839720
-839814
-839813
-839831
-839773
-839958
-839914
-839977
-839806
-839778
-839755
-839910
-839907
-839869
-839901
-839948
-840048
-839845
-839809
-839686
-839531
-839587
-839466
-839351
-839377
-839360
-839241
-838759
-838727
-838693
-838506
-838437
-838300
-838061
-837985
-837922
-837687
-837445
-837356
-837120
-836881
-836922
-836791
-836683
-836475
-836424
-836240
-836116
-836006
-835801
-835632
-835540
-835478
-835420
-835267
-835298
-835193
-835189
-834988
-834891
-834898
-834928
-834919
-834852
-834874
-834871
-834770
-834712
-834660
-834571
-834648
-834703
-834649
-834636
-834701
-834703
-834651
-834545
-834694
-834608
-834630
-834642
-834682
-834624
-834699
-834667
-834544
-834495
-834598
-834582
-834716
-834589
-834647
-834675
-834663
-834572
-834619
-834546
-834479
-834405
-834529
-834448
-834482
-834531
-834549
-834597
-834532
-834468
-834354
-833997
-834303
-834341
-834461
-834458
-834475
-834480
-834359
-834399
-834291
-834369
-834428
-834483
-834528
-834604
-834557
-834501
-834463
-834465
-834443
-834430
-834603
-834635
-834680
-834617
-834622
-834618
-834650
-834579
-834619
-834550
-834681
-834618
-834678
-834706
-834839
-834665
-834675
-834585
-834601
-834553
-834624
-834667
-834735
-834716
-834791
-834773
-834658
-834654
-834534
-834511
-834463
-834380
-834569
-834616
-834586
-834629
-834565
-834531
-834483
-834409
-834565
-834553
-834511
-834553
-834651
-834581
-834471
-834390
-834466
-834401
-834445
-834521
-834509
-834561
-834646
-834726
-834555
-834537
-834258
-834417
-834537
-834618
-834661
-834721
-834725
-834683
-834576
-834613
-834585
-834753
-834732
-834754
-834854
-834987
-834920
-834767
-834830
-834863
-834746
-834970
-834914
-834913
-834910
-835067
-835042
-835033
-834955
-834902
-834985
-835063
-835096
-835011
-835038
-835146
-835166
-835148
-835116
-835031
-835173
-835087
-835112
-835329
-835289
-835338
-835346
-835253
-835170
-835189
-835198
-835236
-835393
-835401
-835429
-835507
-835537
-835441
-835297
-835302
-835321
-835385
-835590
-835580
-835579
-835543
-835449
-835428
-835484
-835449
-835467
-835570
-835520
-835519
-835528
-835611
-835529
-835479
-835513
-835458
-835482
-835439
-835484
-835454
-835626
-835599
-836139
-835733
-835603
-835504
-835501
-835622
-835682
-835573
-835662
-835732
-835695
-835626
-835483
-835546
-835458
-835599
-835558
-835610
-835680
-835610
-835620
-835666
-835580
-835520
-835569
-835578
-835564
-835642
-835766
-835784
-835864
-835687
-835734
-835685
-835599
-835782
-835764
-835744
-835816
-835908
-835914
-835736
-835666
-835801
-835729
-835951
-835876
-835937
-835910
-835897
-835881
-836015
-835876
-835848
-835833
-836015
-836101
-835990
-836063
-836076
-836025
-835989
-835777
-835828
-835899
-835994
-835891
-835920
-835981
-836017
-835871
-835782
-835687
-835541
-835410
-835338
-835247
-835158
-834989
-834929
-834665
-834398
-834264
-834117
-833941
-833849
-833692
-833368
-833320
-833202
-832989
-832777
-832535
-832367
-832215
-832151
-831981
-831775
-831706
-831587
-831407
-831343
-831143
-830941
-830841
-831022
-830592
-830553
-830407
-830287
-830314
-830285
-830313
-830370
-830356
-830381
-830383
-830285
-830248
-830097
-830164
-830120
-830273
-830229
-830167
-830126
-830215
-830051
-830059
-830133
-830026
-830104
-830162
-830036
-830136
-830187
-830129
-830043
-829939
-829842
-829854
-829908
-830006
-829972
-829963
-830049
-829921
-829829
-829776
-829758
-829671
-829779
-829801
-829699
-829738
-829769
-829696
-829687
-829523
-829590
-829607
-829524
-829630
-829687
-829754
-829741
-829797
-829736
-829721
-829722
-829693
-829728
-829859
-829868
-829889
-829903
-829876
-829804
-829832
-829855
-829852
-830041
-829928
-829892
-830548
-830171
-830086
-829950
-829912
-829924
-829903
-830001
-830006
-830118
-830051
-830163
-829981
-830027
-830012
-829933
-829866
-829942
-830074
-830026
-829996
-830014
-829940
-829947
-829923
-829710
-829826
-829862
-829874
-829928
-830026
-829991
-829822
-829803
-829716
-829758
-829652
-829739
-829720
-829712
-829766
-829568
-829667
-829720
-829632
-829659
-829661
-829633
-829618
-829712
-829745
-829678
-829671
-829635
-829538
-829563
-829664
-829688
-829734
-829767
-829707
-829650
-829695
-829722
-829672
-829595
-829581
-829734
-829581
-829702
-829691
-829635
-829623
-829642
-829601
-829589
-829641
-829636
-829717
-829776
-829712
-829686
-830370
-829724
-829712
-829711
-829608
-829654
-829655
-829713
-829685
-829681
-829675
-829606
-829535
-829549
-829744
-829974
-830052
-829989
-829993
-829899
-829790
-829719
-829836
-829783
-829785
-829830
-829909
-829933
-830006
-829983
-829978
-829905
-830434
-830110
-829986
-830110
-830081
-829985
-830144
-830087
-830063
-829860
-829929
-829930
-829998
-830845
-830220
-830224
-830073
-830013
-829946
-829997
-829996
-830105
-830253
-830094
-830093
-830051
-830155
-830198
-830179
-830131
-830093
-830045
-830113
-830180
-830233
-830217
-830202
-830163
-830178
-830195
-830036
-830189
-830220
-830274
-830279
-830358
-830348
-830327
-830325
-830202
-830242
-830217
-830310
-830296
-830304
-830343
-830348
-830365
-830346
-830198
-830229
-830257
-830287
-830375
-830451
-830397
-830512
-830351
-830369
-830350
-830267
-830416
-830536
-830492
-830515
-830589
-830551
-830594
-830557
-830433
-830427
-830451
-830611
-830625
-830596
-830693
-830790
-830749
-830773
-830609
-830607
-830610
-830654
-830735
-830813
-830838
-831003
-830811
-830746
-830864
-830780
-830750
-830921
-830876
-830877
-830887
-830980
-830856
-830951
-830859
-830764
-830805
-830764
-830716
-830666
-830700
-830575
-830351
-830261
-830143
-829890
-829822
-829656
-829582
-829365
-829225
-829110
-828917
-828613
-828499
-828253
-828014
-827960
-827719
-827507
-827527
-827273
-827204
-826874
-826644
-826493
-826309
-826313
-826223
-826155
-826112
-826052
-825783
-825765
-825605
-825409
-825365
-825440
-825419
-825279
-825276
-825318
-825229
-824944
-825034
-824990
-825040
-825089
-825103
-824999
-825069
-825145
-825128
-825077
-824925
-824900
-824961
-824934
-824991
-825047
-824969
-825047
-825011
-824920
-824840
-824724
-824776
-824711
-824665
-824671
-824794
-824799
-824687
-824621
-824500
-824474
-824428
-824488
-824487
-824505
-825360
-824728
-824601
-824421
-824363
-824199
-824250
-824295
-824382
-824326
-824344
-824399
-824380
-824338
-824191
-824173
-824247
-824287
-824337
-824374
-824427
-824530
-824412
-824350
-824385
-824402
-824503
-824588
-824551
-824564
-824623
-824496
-824588
-824624
-824528
-824581
-824637
-824721
-824723
-824753
-824686
-824740
-824661
-824659
-824580
-824657
-824613
-824735
-824590
-824652
-824765
-824760
-824827
-824692
-824622
-824625
-824590
-824669
-824665
-824684
-824699
-824628
-824525
-824524
-824465
-824499
-824374
-824534
-824577
-824662
-824630
-824246
-824457
-824365
-824264
-824304
-824435
-824432
-824513
-824363
-824501
-824472
-824398
-824297
-824276
-824324
-824540
-824461
-824466
-824501
-824505
-824594
-824606
-824666
-824594
-824670
-824665
-824557
-824531
-824560
-824708
-824700
-824689
-824840
-824855
-824856
-824768
-824594
-824802
-824850
-824827
-824767
-824907
-824883
-824888
-824540
-824689
-824650
-824795
-824889
-825017
-824904
-825029
-824994
-824981
-824995
-824901
-824845
-824910
-825026
-825143
-825077
-825025
-825105
-825151
-825049
-825091
-824935
-824964
-825053
-825144
-825169
-825221
-825269
-825307
-825138
-825127
-825167
-825120
-825157
-825159
-825269
-825369
-825325
-825323
-825319
-825308
-825230
-825305
-825375
-825372
-825544
-825481
-825495
-825451
-825348
-825311
-825394
-825378
-825442
-825411
-825570
-825523
-825510
-825443
-825384
-825370
-825336
-825645
-825642
-825565
-825666
-825617
-825504
-825559
-825626
-825549
-825497
-825547
-825678
-825742
-825800
-825734
-825701
-825626
-825637
-825652
-825627
-825722
-825739
-825724
-825716
-825768
-825791
-825849
-825832
-825674
-825774
-825908
-825839
-825794
-825901
-826000
-825719
-825894
-825819
-825749
-825822
-825925
-825998
-826074
-826110
-826185
-826243
-826145
-826098
-826027
-825969
-826009
-826040
-826174
-826126
-826162
-826229
-826262
-826231
-826145
-826069
-826169
-826185
-826194
-826311
-826391
-826379
-826328
-826322
-826435
-826343
-826371
-826507
-826501
-826401
-826496
-826584
-826602
-826471
-826593
-826414
-826524
-826520
-826576
-826601
-826726
-826715
-826635
-826569
-826513
-826297
-826444
-826992
-826848
-826667
-826637
-826782
-826665
-826295
-826309
-826230
-826217
-826105
-825982
-825914
-825878
-825676
-825439
-825271
-825043
-824819
-824614
-824621
-824365
-824149
-824859
-824051
-823578
-823458
-823250
-822965
-822876
-822664
-822531
-822305
-822256
-822062
-821986
-821783
-821557
-821363
-821398
-821283
-821272
-821105
-821094
-820980
-820937
-820884
-820788
-820589
-820713
-820640
-820751
-820708
-820800
-820793
-820765
-820746
-820752
-820629
-820663
-820697
-820767
-820715
-820706
-820684
-820817
-820712
-820710
-820600
-820514
-820657
-820792
-820731
-820761
-820701
-820526
-820578
-820559
-820608
-820645
-820653
-820704
-820732
-820648
-820645
-820646
-820569
-820509
-820527
-820547
-820596
-820558
-820434
-820562
-820560
-820457
-820520
-820320
-820281
-820308
-820351
-820443
-820497
-820522
-820607
-820552
-820546
-820493
-820308
-820431
-820580
-820493
-820639
-820712
-820719
-820736
-820674
-820639
-820647
-820629
-820843
-820880
-820935
-820925
-820977
-820930
-820931
-820883
-820856
-821014
-821011
-821016
-821019
-821021
-820984
-821033
-820940
-821008
-820988
-821049
-821118
-821023
-821634
-821288
-821093
-821081
-821045
-820900
-820662
-820656
-820679
-820821
-820794
-820804
-820907
-820683
-820674
-820744
-820628
-820627
-820717
-820630
-820697
-820656
-820763
-820720
-820731
-820658
-820650
-820703
-820736
-820723
-820742
-820816
-820804
-820815
-820703
-820690
-820564
-820748
-820788
-820866
-820934
-820947
-820804
-820849
-820793
-820633
-820712
-820800
-820887
-820827
-821003
-821031
-820938
-820956
-820929
-820877
-820852
-820951
-820975
-821027
-821018
-820947
-821037
-820962
-821002
-820845
-820936
-820976
-821001
-821045
-820980
-820941
-820956
-821016
-820984
-820832
-820879
-820976
-820897
-820953
-820996
-820932
-820906
-820891
-820934
-820829
-820935
-820873
-820949
-820935
-821069
-821027
-820998
-821000
-821023
-820975
-820923
-820960
-820968
-821004
-821071
-821107
-820983
-820947
-820916
-820840
-820913
-821069
-821185
-821055
-821164
-821128
-821224
-821067
-821031
-821013
-821090
-821189
-821241
-821326
-821287
-821382
-821334
-821255
-821326
-821186
-821352
-821315
-821352
-821379
-821465
-821505
-821478
-821388
-821334
-821316
-821295
-821291
-821408
-821347
-821482
-821469
-821430
-821489
-821383
-821301
-821261
-821321
-821425
-821461
-821564
-821519
-821523
-821536
-821379
-821366
-821475
-821457
-821406
-821451
-821539
-821629
-821572
-821514
-821491
-821388
-821337
-821429
-821544
-821631
-821651
-821504
-821493
-821341
-821377
-821398
-821375
-821401
-821397
-821515
-821571
-821553
-821523
-821419
-821374
-821323
-821357
-821500
-821356
-821424
-821551
-821555
-821589
-821548
-821399
-821361
-821442
-821585
-821605
-821562
-821596
-821449
-821512
-821419
-821436
-821340
-821423
-821470
-821418
-821453
-821596
-821549
-821687
-821516
-821458
-821354
-821503
-821542
-821571
-821657
-821742
-821735
-821760
-821611
-821608
-821532
-821332
-821512
-821635
-821596
-821706
-821733
-821594
-821501
-821361
-821215
-821154
-821212
-821192
-821036
-821011
-820874
-820692
-820377
-820173
-820007
-819927
-819860
-819658
-819427
-819293
-819162
-819027
-818767
-818518
-818363
-818204
-818082
-817917
-817824
-817619
-817522
-817333
-817163
-817026
-816880
-816773
-816602
-816509
-816387
-816426
-816402
-816306
-816181
-816095
-816026
-815983
-815899
-816069
-815964
-816036
-815994
-815871
-815797
-815761
-815639
-815458
-815697
-815747
-815870
-815898
-815938
-815886
-815898
-815804
-815708
-815669
-815742
-815746
-815733
-815849
-815761
-815748
-815607
-815587
-815511
-815554
-815513
-815607
-815606
-815591
-815589
-815597
-815474
-815393
-815216
-815192
-815239
-815325
-815411
-815410
-815345
-815388
-815280
-815218
-815097
-815173
-815242
-815155
-815212
-815227
-815375
-815259
-815247
-815126
-815014
-815072
-815183
-815290
-815234
-815403
-815375
-815320
-815230
-815224
-815209
-815238
-815352
-815392
-815463
-815480
-815478
-815382
-815295
-815311
-815421
-815477
-815562
-815506
-815461
-815493
-815353
-815316
-815303
-815294
-815289
-815433
-815386
-815481
-815387
-815395
-815367
-815298
-815274
-815182
-815240
-815293
-815282
-815153
-815227
-815289
-815269
-815286
-815105
-815134
-815178
-815139
-815056
-815135
-815171
-815210
-815169
-815175
-815086
-814997
-814915
-815089
-815049
-815126
-815208
-815098
-815173
-815868
-815271
-815105
-815037
-815048
-815119
-815124
-815267
-815189
-815169
-814951
-814971
-814995
-815210
-815354
-815251
-815270
-815310
-815374
-815407
-815344
-815244
-815197
-815258
-815275
-815242
-815360
-815532
-815266
-815442
-815446
-815441
-815390
-815361
-815427
-815478
-815511
-815615
-815634
-815653
-815541
-815577
-815553
-815570
-815703
-815635
-815651
-816250
-815810
-815800
-815641
-815616
-815441
-815503
-815681
-815747
-815799
-815818
-815882
-815747
-815680
-815618
-815658
-815612
-815745
-815759
-815790
-815882
-815915
-815792
-815706
-815813
-815731
-815772
-815761
-815862
-815839
-815771
-815798
-815828
-815865
-815817
-815745
-815790
-815884
-815806
-815926
-815980
-816019
-815931
-815923
-815887
-815746
-815802
-815884
-815930
-815979
-815972
-816082
-816012
-815915
-815982
-815882
-815975
-816075
-816092
-816075
-816078
-816133
-816176
-816188
-816057
-816110
-816155
-816204
-816288
-816321
-816368
-816387
-816283
-816140
-816249
-816189
-816225
-816688
-816556
-816505
-816503
-816521
-816376
-816444
-816402
-817015
-816604
-816480
-816581
-816532
-816551
-816561
-816494
-816568
-816554
-816517
-816514
-816543
-816554
-816573
-816664
-816703
-816670
-816571
-816474
-816613
-816598
-816637
-816713
-816679
-816684
-816833
-816737
-816671
-816645
-816595
-816618
-816676
-816674
-816694
-816831
-816843
-816855
-816744
-816765
-816692
-816697
-816739
-816835
-816876
-816891
-816935
-816974
-816812
-816857
-816835
-816871
-816739
-816802
-816969
-817044
-816995
-816925
-816874
-816869
-816856
-816795
-816826
-816882
-816901
-816995
-817050
-816937
-816903
-816915
-816733
-816857
-817009
-816982
-817038
-817097
-816945
-816933
-817006
-816887
-816893
-816853
-817032
-816982
-817040
-817143
-817131
-816973
-817052
-816926
-816959
-817071
-817120
-817000
-817128
-817391
-817511
-817351
-817181
-817239
-817007
-817035
-817112
-817099
-816987
-816909
-816791
-816665
-816487
-816331
-816164
-816039
-815847
-815731
-815570
-815537
-815357
-815130
-814676
-814645
-814486
-814303
-814108
-813998
-813848
-813776
-813503
-813207
-813108
-812972
-812703
-812554
-812552
-812453
-812295
-812231
-812085
-811966
-811751
-811601
-811473
-811930
-811487
-811441
-811250
-811210
-811215
-811156
-811006
-810967
-810866
-810807
-810963
-810893
-810915
-810944
-810946
-810926
-810784
-810755
-810661
-810717
-810749
-810715
-810667
-810712
-810822
-810710
-810728
-810644
-810499
-810412
-810519
-810571
-810555
-810591
-810630
-810554
-810524
-810374
-810321
-810351
-810329
-810319
-810379
-810443
-810446
-810328
-810176
-810186
-810090
-810118
-810167
-810195
-810253
-810120
-810112
-810105
-810155
-810122
-809986
-810072
-810050
-810053
-810120
-810230
-810137
-810138
-810073
-810089
-810127
-810134
-810239
-809926
-810261
-810318
-810257
-810206
-810165
-810102
-810158
-810278
-810308
-810338
-810394
-810474
-810291
-810298
-810252
-810122
-810244
-810261
-810264
-810254
-810389
-810361
-810349
-810346
-810359
-810164
-810282
-810209
-810397
-810408
-810500
-810555
-810322
-810291
-810167
-810146
-810189
-810350
-810363
-810349
-810395
-810281
-810326
-810200
-810214
-810282
-810230
-810250
-810296
-810212
-810401
-810440
-810343
-810358
-810244
-810195
-810275
-810396
-810281
-810420
-811158
-810669
-810526
-810388
-810448
-810293
-810366
-810472
-810548
-810563
-810643
-810664
-810694
-810601
-810581
-810460
-810458
-810658
-810676
-810649
-810713
-810822
-810817
-810686
-810727
-810602
-810756
-810803
-810807
-810841
-810960
-810934
-810986
-810926
-810973
-810929
-810970
-811117
-810987
-811129
-811113
-811219
-811060
-811112
-811028
-810983
-811124
-811103
-811195
-811129
-811154
-811278
-811321
-811247
-811251
-811124
-811234
-811259
-811277
-811258
-811364
-811455
-811376
-811319
-811436
-811253
-811287
-811397
-811462
-811502
-811611
-811573
-811548
-811377
-811517
-811445
-811413
-811565
-811522
-811551
-811567
-811654
-811655
-811664
-811535
-811569
-811616
-811675
-811709
-811637
-811711
-811688
-811637
-811591
-811614
-811502
-811582
-811703
-811702
-811697
-811871
-811821
-811858
-811856
-811670
-812252
-811906
-811794
-811757
-811852
-811908
-811874
-811853
-811834
-811778
-811751
-811838
-811929
-811847
-811915
-811889
-811954
-811982
-811951
-811899
-811785
-811898
-812010
-812026
-812074
-812077
-812143
-812111
-812024
-812068
-812002
-811916
-812218
-812147
-812140
-812232
-812213
-812171
-812179
-812234
-812182
-812131
-812229
-812221
-812279
-812374
-812465
-812442
-812325
-812246
-812243
-812295
-812374
-812223
-812435
-812530
-812503
-812542
-812421
-812436
-812314
-812476
-812590
-812603
-812611
-812713
-812746
-812646
-812502
-812598
-812611
-812494
-812787
-812701
-812663
-812829
-812801
-812957
-812933
-812937
-813042
-813048
-813013
-812944
-812991
-813074
-813123
-813138
-813133
-813175
-813289
-813362
-813360
-813389
-813376
-813373
-813483
-813476
-813456
-813567
-813741
-813617
-813591
-813584
-813518
-813572
-813749
-813507
-813730
-813902
-813925
-813946
-813945
-813820
-813858
-813832
-813868
-813837
-813905
-813869
-813827
-813704
-813561
-813613
-813455
-813431
-813347
-813141
-813120
-812896
-812799
-812538
-812300
-812162
-811806
-811675
-811587
-811447
-811347
-811206
-810959
-810692
-810427
-810247
-809898
-809914
-809736
-809593
-809552
-809435
-809333
-809093
-808989
-808852
-808734
-808639
-808690
-808550
-808628
-808636
-808643
-808519
-808434
-808477
-808373
-808390
-808535
-808626
-808745
-808814
-808857
-808791
-808839
-808835
-808837
-808985
-809078
-809073
-809112
-809330
-809262
-809242
-809113
-809166
-808885
-809214
-809354
-809430
-809534
-809630
-809644
-809624
-809612
-809641
-809499
-809675
-809760
-809626
-809705
-809897
-809936
-809947
-809837
-809933
-809843
-809846
-810096
-810067
-810147
-810188
-810212
-810147
-810072
-810067
-810050
-810231
-810173
-810219
-810254
-810332
-810388
-810364
-810273
-810279
-810173
-810249
-810299
-810324
-810447
-810569
-810583
-810590
-810422
-810436
-810270
-810304
-810362
-810390
-810472
-810533
-810549
-810458
-810436
-810371
-810259
-810420
-810430
-810390
-810393
-810436
-810563
-810503
-810455
-810403
-810359
-810354
-810364
-810503
-810383
-810408
-810432
-810301
-810370
-810397
-810318
-810242
-810425
-810283
-810366
-810341
-810472
-810454
-810342
-810385
-810246
-810208
-810307
-810427
-810411
-810495
-810423
-810386
-810306
-810344
-810179
-810341
-810405
-810422
-810529
-810458
-810540
-810512
-810475
-810442
-810406
-810601
-810576
-810542
-810599
-810670
-810656
-810661
-810534
-810579
-810617
-810613
-810747
-810679
-810709
-810704
-810643
-810668
-810767
-810664
-810637
-810700
-810754
-810747
-810923
-810921
-810793
-810783
-810742
-810652
-810766
-810874
-810823
-810833
-810958
-810998
-810831
-810824
-810798
-810688
-810699
-810737
-810783
-810775
-810785
-810822
-810794
-810797
-810839
-810799
-810882
-810867
-810763
-810812
-810855
-810952
-810909
-810838
-810875
-810718
-810929
-810971
-810908
-810949
-810898
-810984
-810975
-810934
-810941
-810803
-810829
-810972
-810951
-810984
-811035
-811037
-810988
-811025
-810870
-811028
-810989
-810974
-811103
-811176
-811118
-811121
-811112
-811131
-810957
-811025
-811168
-811237
-811321
-811344
-811327
-811294
-811219
-811131
-811214
-811220
-811384
-811317
-811339
-811504
-811453
-811471
-811359
-811408
-811378
-811413
-811513
-811563
-811426
-811512
-811560
-811517
-811450
-811452
-811399
-811551
-811631
-811606
-811568
-811604
-811630
-811588
-811608
-811611
-811624
-811557
-811608
-811621
-811677
-811863
-811905
-812268
-811899
-811746
-811637
-811766
-811778
-811896
-811958
-812021
-811971
-811877
-811968
-811983
-811924
-811919
-812002
-811991
-812015
-812158
-812238
-812096
-812001
-812086
-811995
-812161
-812252
-812224
-812217
-812263
-812328
-812282
-812211
-812162
-812098
-812178
-812261
-812355
-812426
-812448
-812407
-812394
-812536
-812420
-812338
-812436
-812489
-812488
-812555
-812631
-812632
-812573
-812611
-812640
-812627
-812597
-812624
-812735
-812785
-812710
-812832
-812775
-812677
-812593
-812565
-812502
-812506
-812630
-812598
-812607
-812556
-812373
-812214
-812024
-811736
-811670
-811567
-811395
-811267
-811088
-811616
-810903
-810569
-810307
-810062
-810008
-809653
-809581
-809388
-809373
-809129
-809010
-808755
-808581
-808214
-808262
-808124
-807943
-807860
-807914
-807576
-807359
-807426
-807363
-807190
-807143
-807279
-807267
-807271
-807169
-807268
-807233
-807119
-807098
-806977
-807061
-807226
-807212
-807193
-807348
-807402
-807333
-807368
-807298
-807340
-807436
-807428
-807556
-807651
-807719
-807705
-807699
-807715
-807723
-807633
-807770
-807944
-807917
-807945
-808141
-808634
-808173
-808002
-808049
-807962
-808067
-808069
-808141
-808048
-808149
-808218
-808209
-808182
-808220
-808101
-808224
-808217
-808222
-808155
-808398
-808333
-808788
-808312
-808214
-808193
-808267
-808292
-808390
-808309
-808436
-808397
-808139
-808329
-808363
-808442
-808371
-808510
-808563
-808413
-808577
-808465
-808504
-808592
-808509
-808591
-808617
-808648
-808669
-808603
-808492
-808434
-808581
-808647
-808619
-808569
-808680
-808616
-808645
-808582
-808460
-808359
-808436
-808617
-808517
-808587
-808584
-808501
-808545
-808320
-808441
-808411
-808410
-808914
-808711
-808529
-808633
-808605
-808508
-808458
-808516
-808358
-808305
-808415
-808457
-808601
-808650
-808577
-808654
-808460
-808541
-808562
-808630
-808682
-808763
-808692
-808686
-808797
-808746
-808711
-808680
-808633
-808674
-808869
-808836
-808889
-808981
-809014
-808900
-808802
-808920
-808858
-808822
-808943
-809030
-809065
-809215
-809118
-809144
-809112
-809082
-809088
-809727
-809309
-809253
-809245
-809328
-809288
-809301
-809316
-809295
-809240
-809321
-809431
-809413
-809327
-809579
-809573
-809436
-809413
-809367
-809454
-809557
-809534
-809657
-809570
-809643
-809678
-809362
-809530
-809640
-809556
-809618
-809763
-809634
-809723
-809753
-809843
-809862
-809711
-809794
-809813
-809873
-809961
-809878
-809991
-809801
-809944
-810015
-809945
-809971
-809833
-809850
-809980
-809975
-810068
-810176
-810145
-810162
-809980
-810077
-810061
-810066
-810178
-810271
-810328
-810292
-810328
-810184
-810145
-810212
-810237
-810292
-810270
-810345
-810423
-810500
-810408
-810391
-810367
-810442
-810272
-810387
-810442
-810483
-810533
-810626
-810725
-810762
-810551
-810634
-810477
-810528
-810584
-810685
-810636
-810748
-810770
-810785
-810747
-810735
-810752
-810764
-810820
-810802
-810815
-810952
-810943
-810906
-810827
-810885
-810874
-810970
-811105
-811033
-811006
-811057
-811145
-811045
-811182
-811173
-811148
-811171
-811308
-811261
-811205
-811371
-811357
-811309
-811326
-811380
-811219
-811264
-811310
-811435
-811418
-811526
-811580
-811313
-811219
-811418
-811469
-811538
-811634
-811706
-811704
-811733
-811734
-811664
-811643
-811722
-811543
-811503
-811669
-811672
-811654
-811801
-811857
-811867
-812273
-811926
-811789
-811842
-811912
-811888
-811756
-811840
-811891
-811873
-811878
-811942
-811860
-811902
-812016
-811999
-811958
-812064
-812051
-811967
-811821
-811787
-811609
-811585
-811526
-811481
-811352
-811296
-811035
-810788
-810524
-810329
-810176
-810098
-809978
-809828
-809595
-809423
-809226
-809344
-808737
-808629
-808482
-808291
-808281
-807965
-807960
-807783
-807710
-807528
-807431
-807233
-807099
-806923
-806985
-806944
-806847
-806841
-806824
-806723
-806586
-806634
-806615
-806564
-806691
-806689
-806654
-806882
-806818
-806547
-806690
-806774
-806699
-806863
-806898
-806956
-806949
-807040
-807193
-807125
-807172
-807147
-807006
-807236
-807378
-807270
-807304
-807460
-807468
-807467
-807404
-807410
-807383
-807432
-807580
-807597
-807651
-807702
-807758
-807610
-807549
-807449
-807282
-807476
-807687
-807526
-807672
-807794
-807723
-807631
-807560
-807525
-807549
-807535
-807588
-807668
-807640
-807666
-807640
-807605
-807490
-807585
-807506
-807599
-807651
-807634
-807678
-807760
-807761
-807565
-807564
-807468
-807425
-807504
-807530
-807631
-807564
-807595
-807495
-807414
-807383
-807356
-807218
-807441
-807290
-807310
-807288
-807329
-807450
-807301
-807251
-807213
-807052
-807080
-807240
-807315
-807261
-807213
-807166
-807126
-807116
-807136
-806900
-806936
-807040
-806960
-807018
-807070
-807059
-807175
-807040
-807085
-807007
-806921
-807015
-807049
-806978
-807158
-807093
-807120
-807007
-806992
-807036
-807186
-807126
-807229
-807189
-807262
-807112
-807085
-807047
-806965
-807092
-806961
-807897
-807483
-807424
-807390
-807376
-807296
-807376
-807349
-807493
-807555
-807359
-807458
-807641
-807598
-807666
-807534
-807654
-807644
-807606
-807769
-807848
-807863
-807913
-807931
-807972
-807912
-807832
-807854
-808024
-807964
-807992
-808100
-808144
-808184
-808244
-808252
-808149
-808108
-808240
-808328
-808388
-808301
-808409
-808477
-808447
-808375
-808360
-808321
-808473
-808444
-808482
-808477
-808596
-808559
-808524
-808474
-808568
-808514
-808563
-808675
-808697
-808706
-808777
-808743
-808734
-808741
-808821
-808737
-808666
-808740
-808839
-808814
-808854
-808906
-808871
-808738
-808674
-808621
-808831
-808878
-808938
-809387
-808975
-808855
-808910
-808871
-808826
-808939
-808955
-808974
-809012
-809027
-809015
-809011
-808962
-808891
-808982
-809072
-808991
-808924
-808944
-809105
-809162
-809093
-809006
-809116
-809036
-809112
-809173
-809226
-809190
-809439
-809416
-809333
-809250
-809314
-809229
-809266
-809280
-809350
-809430
-809455
-809505
-809542
-809464
-809425
-809344
-809439
-809535
-809601
-809555
-809557
-809539
-809602
-809603
-809644
-809539
-809632
-809783
-809817
-809903
-809886
-809878
-809901
-809871
-809789
-809968
-810011
-809967
-810047
-810139
-810113
-810208
-810127
-809933
-810053
-810110
-810207
-810304
-810370
-810531
-810523
-810358
-810378
-810499
-810355
-810430
-810601
-810546
-810714
-810708
-810677
-810758
-810636
-810736
-810743
-810713
-810820
-810790
-810880
-810975
-811026
-810991
-810909
-810942
-810989
-811034
-811049
-811027
-811139
-811124
-811179
-811185
-811141
-811126
-811040
-811036
-811103
-811012
-811014
-811156
-811044
-810869
-810760
-810616
-810421
-810401
-810260
-810139
-810088
-809956
-809760
-809612
-809415
-809212
-808643
-808717
-808638
-808424
-808270
-808126
-807987
-807766
-807579
-807489
-807198
-807016
-807019
-806862
-806747
-806730
-806542
-806493
-806296
-806136
-805944
-806045
-806681
-806211
-806083
-805977
-806018
-805733
-805816
-805705
-805748
-805917
-805777
-805958
-805933
-805925
-806007
-806012
-805935
-805900
-805959
-806003
-806155
-806117
-806248
-806267
-806265
-806298
-806337
-806336
-806181
-806294
-806418
-806417
-806512
-806264
-806453
-806521
-806445
-806521
-806700
-806741
-806750
-806760
-806796
-806684
-806629
-806490
-806516
-806664
-806686
-806738
-806663
-806377
-806683
-806778
-806682
-806694
-806507
-806559
-806601
-806685
-806716
-806787
-806685
-806635
-806607
-806637
-806562
-806552
-806658
-806456
-806616
-806749
-806804
-806661
-806630
-806529
-806483
-806511
-806608
-806692
-806618
-806614
-806607
-806574
-806600
-806556
-806457
-806395
-806480
-806508
-806578
-806708
-806612
-806473
-806407
-806398
-806377
-806339
-806541
-806581
-806502
-806553
-806600
-806585
-806457
-806507
-806375
-806424
-806522
-806531
-806490
-806493
-806490
-806414
-806332
-806316
-806395
-806472
-806567
-806408
-806599
-806564
-806574
-806482
-806578
-806480
-806374
-806482
-806584
-806568
-806630
-806644
-806733
-806644
-806556
-806591
-806634
-806580
-806715
-806788
-806561
-806805
-806771
-806817
-806796
-806724
-806697
-806780
-806937
-806964
-806858
-806954
-807076
-806954
-807022
-806977
-806888
-806997
-807196
-807240
-807177
-807244
-807213
-807303
-807284
-807272
-807278
-807250
-807333
-807427
-807341
-807420
-807425
-807487
-807528
-807495
-807437
-807557
-807624
-807620
-807586
-807609
-807578
-807656
-807546
-807559
-807460
-807654
-807684
-807753
-807792
-807785
-807727
-807739
-807738
-807545
-807510
-807613
-807600
-807639
-807547
-807590
-807548
-807610
-807519
-807443
-807325
-807302
-807353
-807309
-807355
-807316
-807240
-807117
-807067
-807029
-806917
-806892
-806973
-807036
-806924
-807020
-807047
-806944
-806812
-806855
-806780
-806822
-806892
-806770
-806844
-806890
-806937
-806890
-806848
-806836
-806779
-807093
-806943
-806842
-806802
-806913
-806960
-806989
-806896
-806906
-806797
-806968
-807034
-807060
-807097
-807154
-807255
-807235
-807192
-807141
-807138
-807236
-807358
-807385
-807446
-807517
-807440
-807477
-807480
-807521
-807411
-807436
-807611
-807597
-807668
-807632
-807712
-807728
-807667
-807718
-807698
-807732
-807813
-807764
-807846
-807867
-807904
-807882
-807848
-807893
-808019
-808034
-808046
-808244
-808173
-808153
-807971
-808177
-808162
-808219
-808255
-808210
-808310
-808293
-808443
-808367
-808349
-808383
-808322
-808453
-808461
-808458
-808461
-808559
-808540
-808514
-808529
-808499
-808445
-808643
-808684
-808654
-808758
-808833
-808116
-808474
-808594
-808644
-808704
-808475
-808780
-808810
-808862
-808851
-808735
-808617
-808703
-808690
-808552
-808553
-808482
-808138
-808086
-808114
-807983
-807833
-807648
-807529
-807431
-807243
-807189
-807035
-806849
-806771
-806554
-806337
-806203
-806081
-805717
-805617
-805547
-805520
-805267
-805206
-805145
-805003
-804853
-804709
-804556
-804516
-804286
-804196
-804197
-804213
-804169
-804123
-804046
-804065
-804009
-804117
-804177
-804201
-804066
-804265
-804228
-804065
-804140
-804258
-804304
-804384
-804492
-804565
-804398
-804672
-804671
-804733
-804607
-804705
-804742
-804912
-804974
-804991
-805150
-805079
-805151
-805235
-805133
-805207
-805153
-805245
-805977
-805568
-805597
-805528
-805522
-805515
-805624
-805601
-805574
-805726
-805728
-805668
-805713
-805729
-805670
-805715
-805732
-805631
-805653
-805747
-805715
-805821
-805723
-805849
-805925
-805888
-805935
-805871
-805791
-805764
-805783
-805699
-805789
-805850
-805779
-805659
-805698
-805534
-805684
-805713
-805633
-805678
-805632
-805627
-805614
-805542
-805546
-805428
-805509
-805554
-805476
-805423
-805321
-805330
-805270
-805335
-805066
-805103
-805327
-805292
-805262
-805260
-805307
-805241
-805324
-805174
-805142
-805207
-805298
-805321
-805337
-805211
-804232
-805039
-805292
-805301
-805360
-805375
-805344
-805311
-805353
-805504
-805482
-805623
-805556
-805506
-805563
-805472
-805703
-805764
-805708
-805717
-805747
-805866
-805864
-805875
-805855
-805787
-805851
-805897
-805996
-805926
-806044
-806027
-805952
-806001
-806124
-806053
-806112
-806120
-806173
-806134
-806241
-806818
-806385
-806210
-806196
-806153
-806121
-806177
-806155
-806110
-806223
-806461
-806256
-806212
-806201
-806184
-806113
-806071
-806058
-806112
-806089
-806137
-806069
-806113
-806154
-806030
-806175
-806122
-806143
-806068
-806135
-806184
-806117
-806087
-806054
-806042
-806097
-806103
-806192
-806030
-806105
-806141
-806084
-806160
-806027
-806160
-806203
-806178
-806138
-806194
-806251
-806206
-806188
-806226
-806250
-806228
-806331
-806305
-806265
-806295
-806874
-806584
-806349
-806334
-806118
-806226
-806431
-806520
-806188
-806349
-806353
-806481
-806383
-806363
-806443
-806469
-806566
-806597
-806615
-806586
-806634
-806569
-806512
-806579
-806523
-806565
-806659
-806656
-806400
-806533
-806650
-806655
-806647
-806549
-806582
-806669
-806690
-806646
-806675
-806777
-806699
-806709
-806686
-806639
-806595
-806747
-806750
-806736
-806706
-806648
-806603
-806524
-806590
-806570
-806617
-806685
-806795
-806681
-806655
-806462
-806678
-806700
-806654
-806600
-806537
-806619
-806670
-806660
-806566
-806624
-806663
-806700
-806754
-806865
-806910
-806984
-806857
-806945
-806928
-806958
-806929
-806970
-806928
-806958
-807018
-806845
-806941
-807048
-807195
-807155
-807184
-807130
-807138
-807169
-807282
-807232
-807265
-807258
-807251
-807249
-807285
-807212
-807238
-807241
-807368
-807385
-807764
-807531
-807558
-807419
-807442
-807392
-807526
-807450
-807494
-807376
-807337
-807366
-807339
-807427
-807250
-807229
-806992
-806920
-806881
-806704
-806682
-806550
-806341
-806174
-805991
-805851
-805664
-805435
-805351
-805085
-804986
-804819
-804795
-804500
-804253
-804111
-803926
-803828
-804326
-803777
-803651
-803405
-803201
-803102
-803075
-802958
-802973
-802979
-802933
-802809
-802672
-802791
-802829
-802751
-802762
-802841
-802767
-802819
-802875
-802927
-802893
-803017
-803086
-803148
-803123
-803204
-803238
-803259
-803235
-803330
-803459
-803530
-803661
-803776
-803845
-803834
-803873
-804088
-804114
-804093
-804226
-804266
-804482
-804412
-804448
-804511
-804502
-804639
-804777
-804832
-804809
-804902
-804989
-804993
-804946
-804895
-804883
-804958
-804989
-805082
-805102
-805105
-805238
-805181
-805159
-805272
-805117
-805219
-805308
-805176
-805130
-805145
-805183
-805121
-804865
-805029
-805057
-805090
-805055
-804946
-804832
-804878
-804853
-804819
-804654
-804580
-804561
-804552
-804482
-804412
-804409
-804460
-804366
-804807
-804354
-804204
-804242
-804339
-804235
-804198
-804085
-804155
-804090
-804116
-804168
-804102
-804155
-804185
-804102
-804148
-804271
-804267
-804157
-804232
-804226
-804321
-804243
-804354
-804399
-804322
-804316
-804510
-804425
-804482
-804475
-804560
-804644
-804750
-804895
-804981
-804962
-804974
-805043
-805060
-804969
-804937
-805014
-805113
-805292
-805259
-805292
-805298
-805345
-805247
-805303
-805373
-805358
-805501
-805525
-805470
-805512
-805565
-805592
-805480
-805456
-805517
-805582
-805629
-805630
-805643
-805598
-805628
-805788
-805814
-805728
-805829
-805752
-805814
-805798
-805853
-805874
-805898
-805854
-805830
-805808
-805918
-805794
-805959
-805935
-805956
-805832
-805747
-805853
-806012
-805806
-805732
-805767
-805780
-805670
-805727
-805730
-805692
-805742
-805725
-805723
-805538
-805685
-805784
-806285
-806072
-806004
-806096
-806039
-806032
-806050
-806137
-806072
-806348
-806337
-806190
-806265
-806343
-806374
-806412
-806497
-806644
-806600
-806706
-806637
-806732
-806751
-806855
-806945
-806954
-807087
-807128
-807111
-807100
-807253
-807312
-807425
-807446
-807507
-807427
-807619
-807672
-807740
-807956
-808031
-807979
-807986
-808002
-808128
-808239
-808286
-808416
-808481
-808495
-808630
-808787
-808783
-808945
-808954
-809039
-809121
-809101
-809113
-809226
-809327
-809484
-809510
-809583
-809624
-809726
-809797
-809795
-809996
-810033
-810085
-810086
-810190
-810104
-810259
-810192
-810184
-810267
-810447
-810489
-810594
-810634
-810603
-810601
-810665
-810574
-810711
-810686
-810816
-810838
-810787
-810810
-810904
-810856
-810685
-810801
-810957
-810946
-811056
-811026
-811108
-811171
-811274
-811251
-811187
-811212
-811096
-811170
-811229
-811213
-811240
-811319
-811351
-811379
-811208
-811100
-811025
-811015
-811008
-811051
-810950
-810852
-810806
-810558
-810473
-810102
-810083
-809908
-809825
-809655
-809436
-809305
-809204
-809025
-808788
-808546
-808327
-808127
-808138
-807851
-807593
-807441
-807325
-807184
-806999
-806817
-806626
-806413
-806365
-806204
-806086
-805921
-805995
-805896
-806299
-805847
-805699
-805576
-805471
-805515
-805516
-805534
-805600
-805625
-805466
-805441
-805420
-805369
-805534
-805693
-805696
-805721
-805867
-805837
-805969
-805982
-805987
-806012
-806247
-806195
-806306
-806520
-806482
-806606
-806612
-806779
-806759
-806777
-806736
-806886
-806930
-807081
-807267
-807221
-807349
-807263
-807266
-807257
-807453
-807518
-807615
-807604
-807644
-807678
-807699
-807647
-807731
-807789
-807905
-807833
-807793
-807810
-807936
-807849
-807943
-807878
-807903
-807884
-807979
-808043
-807855
-807934
-807920
-807808
-808286
-807890
-807758
-807712
-807576
-807590
-807507
-807485
-807468
-807389
-807293
-807286
-807204
-807008
-807027
-807120
-807048
-806899
-806917
-806817
-806685
-806698
-806653
-806554
-806616
-806507
-806497
-806299
-806419
-806415
-806359
-806238
-806213
-806104
-806083
-806225
-806190
-806184
-806142
-806073
-806151
-806154
-806229
-806144
-806166
-806324
-806267
-806242
-806288
-806263
-806335
-806371
-806381
-806498
-806502
-806603
-806767
-806874
-806966
-806971
-806877
-806972
-807030
-807102
-807212
-807342
-807291
-807435
-807341
-807300
-807307
-807435
-807660
-808388
-807880
-807975
-807974
-807881
-807843
-807931
-807988
-808128
-808230
-808241
-808208
-808261
-808271
-808252
-808204
-808228
-808271
-808457
-808506
-808444
-808588
-808555
-808544
-808610
-808571
-808579
-808585
-808722
-808753
-808792
-808826
-808564
-808582
-808601
-808661
-808559
-808806
-808815
-808788
-808708
-808750
-808671
-808724
-808789
-808707
-808732
-808797
-808818
-808823
-808895
-808826
-808835
-808847
-808843
-808924
-808914
-808925
-808975
-809045
-809005
-808896
-809069
-809050
-808825
-808901
-808783
-808804
-808752
-808667
-808737
-808864
-808831
-808902
-808814
-808689
-808628
-808707
-808728
-808680
-808788
-808783
-808747
-808680
-808671
-808338
-808489
-808619
-808612
-808587
-808639
-808548
-808575
-808531
-808425
-808248
-808397
-808606
-808684
-808549
-808687
-808653
-808658
-808643
-808510
-808666
-808619
-808583
-808501
-808585
-808620
-808561
-808647
-808579
-808575
-808543
-808583
-808537
-808542
-808652
-808618
-808639
-808583
-808426
-808348
-808353
-808475
-808436
-808433
-808401
-808291
-808307
-808355
-808221
-808128
-808125
-808109
-808047
-807929
-807901
-807838
-807699
-807578
-807365
-807247
-807134
-807074
-806938
-806621
-806580
-806497
-806208
-805986
-805867
-805613
-805460
-805249
-805104
-804870
-804781
-804642
-804459
-804243
-804176
-803993
-803823
-803821
-803675
-803466
-803451
-803482
-803341
-803223
-803126
-802992
-802997
-803055
-803115
-803006
-803019
-803078
-803046
-802995
-802983
-802895
-802880
-803013
-803043
-803018
-803127
-803169
-803172
-803245
-803148
-803187
-803257
-803457
-803358
-803428
-803418
-803563
-803569
-803631
-803627
-803534
-803620
-803742
-803808
-803841
-803846
-803937
-803955
-803901
-803904
-803985
-803992
-804009
-804088
-803962
-803969
-803962
-804039
-804003
-804007
-803936
-803963
-804049
-803921
-803883
-804009
-803910
-803834
-803848
-803783
-803759
-803691
-803832
-803802
-803810
-803815
-803734
-803759
-803820
-803914
-803846
-803806
-803899
-803852
-803901
-803883
-803887
-803749
-803942
-803861
-803816
-803814
-803865
-803896
-804006
-803828
-803856
-803859
-803890
-803805
-803814
-803774
-803948
-803777
-803888
-804054
-804088
-804006
-804025
-804029
-804061
-804005
-804034
-804099
-804065
-804136
-804191
-804197
-804112
-804080
-803980
-803988
-804072
-804101
-804100
-804209
-804225
-804121
-804129
-804025
-804088
-804114
-804075
-804169
-804109
-804151
-804122
-804195
-804121
-804102
-804074
-804130
-804102
-804098
-804166
-804193
-804210
-804153
-804087
-804097
-804041
-804104
-804219
-804216
-804247
-804293
-804341
-804322
-804258
-804145
-804208
-804204
-804296
-804365
-804420
-804365
-804549
-804561
-804527
-804548
-804498
-804409
-804572
-804600
-804634
-804774
-804677
-804699
-804706
-804849
-804750
-804825
-804909
-804861
-804879
-805091
-805082
-805052
-805049
-805125
-805120
-805070
-805154
-805170
-805217
-805376
-805496
-805476
-805465
-805415
-805407
-805490
-805646
-805696
-805516
-805627
-805700
-805698
-805834
-805820
-805747
-805581
-805861
-805924
-805975
-806010
-806123
-806129
-806182
-806220
-806233
-806216
-806297
-806413
-806439
-806499
-806429
-806439
-806470
-806596
-806438
-806445
-806582
-806668
-806822
-806830
-806914
-806818
-806813
-806735
-806869
-806912
-806992
-806982
-806720
-806929
-806972
-807046
-806896
-806892
-806897
-807009
-806930
-806939
-806831
-806980
-806932
-806844
-806780
-806768
-806681
-806715
-806828
-806744
-806655
-806653
-806569
-806520
-806453
-806302
-806148
-806180
-806176
-806140
-806090
-806003
-806085
-806055
-805953
-805817
-805751
-805698
-805598
-805752
-805696
-805737
-805806
-805650
-805523
-805546
-805476
-805558
-805583
-805574
-805559
-805664
-805624
-805563
-805561
-805455
-805406
-805458
-805539
-805556
-805551
-805646
-805686
-805534
-805428
-805449
-805367
-805250
-805311
-805328
-805317
-805320
-805177
-805053
-804981
-804878
-804752
-804829
-804730
-804742
-804611
-804585
-804396
-804617
-804524
-804235
-804032
-803923
-803879
-803691
-803753
-803816
-803890
-803743
-803640
-803501
-803368
-803402
-803427
-803405
-803732
-803620
-803514
-803527
-803448
-803476
-803453
-803291
-803528
-803560
-803570
-803755
-803751
-803673
-803612
-803699
-803814
-804015
-803955
-803994
-804058
-804132
-804248
-804203
-804316
-804259
-804337
-804446
-804689
-804814
-804813
-804877
-804946
-805022
-805025
-805009
-805121
-805164
-805069
-805252
-805399
-805507
-805681
-805654
-805613
-805525
-805541
-805715
-805785
-805829
-805844
-805959
-806011
-806047
-806037
-806608
-806163
-806103
-806213
-806228
-806151
-806261
-806276
-806230
-806161
-806125
-806057
-806113
-806154
-806142
-806221
-806215
-806152
-806144
-806069
-805924
-805857
-805752
-805863
-805772
-805700
-805787
-805659
-805577
-805376
-805216
-805182
-805128
-805019
-804953
-804878
-804826
-804704
-804561
-804467
-804226
-804108
-803790
-803936
-803866
-803859
-803826
-803784
-803724
-803578
-803426
-803360
-803380
-803348
-803405
-803279
-803313
-803245
-803226
-803068
-803152
-803007
-802885
-802956
-802938
-803078
-803178
-803244
-803178
-803053
-803068
-802928
-803015
-803070
-803156
-803108
-803245
-803185
-803261
-803178
-803166
-803136
-803145
-803285
-803265
-803383
-803485
-803500
-803444
-803456
-803431
-803387
-803524
-803344
-803649
-803793
-803753
-803873
-803774
-803801
-803832
-803681
-803814
-803789
-803902
-803820
-803992
-803973
-804095
-804024
-803913
-803893
-803906
-803979
-804022
-804144
-804170
-804164
-804096
-804135
-804051
-804015
-804145
-804297
-804266
-804183
-804276
-804327
-804269
-804338
-805158
-804467
-804224
-804198
-804220
-804247
-804381
-804382
-804383
-804372
-804276
-804189
-804097
-804265
-804226
-804293
-804307
-804214
-804167
-804097
-804076
-804358
-804157
-804169
-804246
-804100
-804183
-804170
-803993
-803927
-803899
-803838
-803832
-803935
-803861
-803867
-803857
-803859
-803865
-803689
-803735
-803577
-803514
-803624
-803672
-803650
-803769
-803679
-803631
-803477
-803534
-803537
-803588
-803673
-803666
-803692
-803784
-803703
-803686
-803644
-803656
-803585
-803656
-803699
-803826
-803755
-804016
-803990
-804039
-803931
-803972
-803919
-804014
-804258
-804300
-804322
-804412
-804424
-804319
-804327
-804356
-804185
-804285
-804440
-804534
-804507
-804679
-804754
-804691
-804692
-804709
-804546
-804582
-804623
-804602
-804658
-804641
-804697
-804644
-804454
-804363
-804079
-804048
-804049
-803879
-803756
-803669
-803412
-803224
-803112
-802796
-802627
-802480
-802329
-802079
-801932
-801876
-801635
-801497
-801106
-800944
-800819
-800612
-800490
-800326
-800249
-800081
-799989
-799799
-799654
-799429
-799338
-799271
-799405
-799289
-799153
-799194
-799154
-798997
-798999
-798968
-798798
-798928
-798975
-799017
-798938
-798995
-798996
-798987
-799033
-799046
-799114
-799118
-799084
-799231
-799407
-799362
-799370
-799379
-799402
-799349
-799454
-799588
-799653
-799679
-799773
-799810
-799882
-799855
-799785
-799779
-799935
-800022
-800142
-800095
-800254
-800244
-800176
-800197
-800279
-800403
-800536
-800542
-800539
-800382
-800348
-800272
-800364
-800360
-800583
-800445
-800548
-800460
-800386
-800405
-800380
-800356
-800385
-800533
-800436
-800355
-800392
-800458
-800373
-800323
-800289
-800173
-800355
-800297
-800256
-800211
-800330
-800279
-800208
-800244
-800080
-799981
-800061
-800026
-800090
-800176
-800004
-799931
-799877
-799728
-799514
-799609
-799478
-799482
-799481
-799545
-799474
-799487
-799350
-799225
-799230
-799150
-799200
-799290
-799185
-799387
-799279
-799235
-799228
-799133
-799078
-799199
-799229
-799289
-799269
-799405
-799455
-799436
-799397
-799338
-799304
-799455
-799600
-799635
-799591
-799648
-799594
-799590
-799601
-799622
-799663
-799638
-799710
-799757
-799807
-799815
-799882
-799909
-799978
-800024
-799928
-800034
-800139
-800119
-800190
-800260
-800238
-800326
-800024
-800184
-800228
-800402
-800528
-800414
-800600
-800636
-800624
-800723
-800613
-800621
-800643
-800769
-800906
-800848
-800867
-801020
-801024
-800928
-800917
-800883
-800896
-801022
-801139
-801027
-801129
-801183
-801110
-801186
-801148
-801250
-801163
-801055
-801176
-801228
-801262
-801278
-801249
-801217
-801259
-801319
-801261
-801243
-801279
-801196
-801281
-801307
-801352
-801301
-801238
-801096
-800993
-801072
-801042
-801006
-800936
-801060
-800974
-800976
-800809
-800771
-800699
-800718
-800695
-800727
-800755
-800642
-800733
-800692
-800645
-800586
-800527
-800555
-800644
-800574
-800620
-800658
-800659
-800597
-800471
-800522
-800428
-800542
-800618
-800577
-800698
-800675
-800803
-800625
-800626
-800681
-800574
-800637
-800712
-800680
-800748
-800835
-800900
-800763
-800476
-800799
-800729
-800786
-800943
-800941
-800923
-800943
-800982
-800986
-801057
-800898
-800871
-801037
-801217
-801319
-801364
-801533
-801584
-801361
-801369
-801349
-801247
-801350
-801499
-801520
-801559
-801557
-801628
-801588
-801569
-801532
-801388
-801379
-801590
-801630
-801593
-801608
-801484
-801213
-801148
-801043
-800839
-800780
-800693
-800603
-800386
-800206
-800137
-799873
-799602
-799482
-799228
-799086
-798990
-798930
-798834
-798772
-798419
-798323
-798269
-798010
-797669
-797672
-797615
-797529
-797448
-797374
-797339
-797316
-797097
-796994
-796968
-796991
-797036
-797014
-796933
-797086
-796910
-796816
-796871
-796830
-796736
-796897
-796922
-796901
-796966
-797032
-797010
-796949
-796993
-796966
-796796
-796939
-797076
-797118
-797040
-797069
-797119
-797155
-797061
-797089
-797154
-797140
-797171
-797160
-797175
-797236
-797232
-797144
-797137
-797225
-797114
-797074
-797229
-796992
-797078
-797217
-797230
-797408
-797144
-797170
-797053
-797020
-797183
-797170
-797148
-797446
-797624
-797535
-797530
-797473
-797202
-797173
-797349
-797337
-797285
-797429
-797509
-797677
-797748
-797656
-797797
-797787
-797662
-797660
-797608
-797666
-797796
-797698
-797539
-797626
-797501
-797556
-797745
-797749
-797742
-797798
-797753
-797735
-797714
-797744
-797720
-797661
-797737
-797796
-797768
-797877
-797930
-797848
-797838
-797727
-797654
-797827
-797916
-797827
-797757
-797847
-797836
-797944
-797826
-797840
-797654
-797693
-797805
-797798
-797826
-797928
-797838
-797828
-797855
-797717
-797614
-797621
-797798
-797721
-797906
-797895
-797967
-797905
-797744
-797818
-797692
-797803
-797954
-797961
-797887
-797880
-797940
-797916
-797836
-797871
-797789
-797579
-797924
-797956
-797896
-798040
-798162
-798084
-798032
-798047
-797873
-797944
-798096
-798078
-798218
-798116
-798293
-798324
-798260
-798517
-798503
-798593
-798717
-798692
-798480
-798545
-798530
-798659
-798668
-798844
-798670
-798801
-798669
-798584
-798683
-798702
-798979
-798987
-798843
-798785
-798602
-798531
-798744
-798680
-798688
-798847
-799107
-799108
-799062
-798795
-798770
-798737
-798948
-798885
-799160
-799328
-799362
-799037
-798955
-798979
-798846
-798938
-799161
-799387
-799373
-799246
-799224
-799219
-799015
-799106
-798973
-799012
-800039
-799819
-799389
-799319
-799330
-799193
-799199
-799147
-799313
-799536
-799323
-799253
-799263
-799345
-799438
-799376
-799400
-799605
-799421
-799324
-799425
-799395
-799365
-799495
-799585
-800317
-799999
-799584
-799369
-799557
-799586
-799501
-799897
-799898
-799607
-799494
-799399
-799425
-799280
-799618
-799692
-801607
-800202
-800015
-799797
-799749
-799743
-799702
-799916
-800112
-799968
-799853
-799902
-799943
-799826
-799801
-799770
-800753
-801035
-800272
-800055
-799985
-800075
-800038
-800129
-800109
-801930
-800438
-800066
-800022
-800077
-800055
-800099
-800135
-800065
-800109
-800037
-799872
-799844
-799801
-799939
-799777
-799834
-799632
-799519
-799284
-799033
-798823
-798757
-798647
-798476
-798359
-798288
-798010
-797887
-797527
-797333
-797001
-796962
-796918
-796716
-796573
-796423
-796260
-796075
-795836
-795647
-795375
-795346
-795283
-795153
-795125
-794953
-794979
-794763
-794634
-794580
-794458
-794464
-794569
-794431
-794396
-794454
-794331
-794234
-794270
-794227
-794113
-794125
-794272
-794225
-794218
-794368
-794310
-794287
-794308
-794137
-794111
-794117
-794118
-794195
-794233
-794325
-794278
-794165
-794210
-794179
-794103
-794073
-794159
-794074
-794099
-794114
-794213
-794119
-793936
-793984
-793935
-793907
-794024
-793871
-793928
-793940
-793911
-793804
-793703
-793698
-793689
-793806
-793708
-793863
-793879
-793811
-793757
-793711
-793687
-793688
-793628
-793567
-793698
-793621
-793749
-793796
-793785
-793775
-793739
-793754
-793684
-793742
-793905
-793859
-793887
-793893
-793997
-793929
-793921
-793901
-793970
-793976
-794062
-794061
-794146
-794209
-794229
-794161
-794197
-794206
-794150
-794284
-794373
-794376
-794437
-794447
-794526
-794452
-794317
-794337
-794368
-794398
-794489
-794523
-794524
-794647
-794551
-794598
-794593
-794602
-794430
-794579
-794572
-794605
-794572
-794372
-794426
-794464
-794483
-794474
-794426
-794847
-794635
-794656
-794716
-794762
-794670
-794556
-794484
-794441
-794478
-794637
-794643
-794617
-794744
-794696
-794661
-794625
-794614
-794612
-794619
-794766
-794844
-794856
-794968
-794985
-794896
-794931
-794877
-794771
-794843
-794928
-795051
-795095
-795090
-795176
-795142
-795076
-794964
-794966
-795098
-795201
-795199
-795310
-795154
-795332
-795243
-795221
-795204
-795099
-795231
-795303
-795219
-795413
-795477
-795470
-795504
-795359
-795392
-795451
-795509
-795546
-795685
-795665
-795658
-795643
-795518
-795433
-795451
-795583
-795594
-795620
-795705
-795722
-795785
-795621
-795527
-795650
-795596
-795672
-795718
-795753
-795837
-795892
-795868
-795736
-795434
-795604
-795618
-795638
-795798
-795753
-796321
-796303
-796063
-795969
-795898
-795854
-795807
-795816
-795965
-795961
-795941
-795852
-795956
-796040
-795948
-795912
-795860
-795838
-796010
-795963
-795931
-796048
-796097
-796091
-796048
-796033
-795872
-795808
-796075
-796093
-796090
-796140
-796190
-796182
-796206
-796109
-796029
-796106
-796160
-796308
-796259
-796319
-796333
-796315
-796229
-796227
-796137
-796211
-796218
-796304
-796344
-796395
-796462
-796359
-796436
-796335
-796330
-796468
-796575
-796530
-796645
-796624
-796683
-796583
-796639
-796531
-796465
-796569
-796607
-796687
-796661
-796864
-796785
-796760
-796728
-796850
-796753
-796819
-796858
-796864
-796839
-796908
-797041
-796997
-796874
-796671
-796585
-796530
-796575
-796434
-796326
-796248
-796159
-795844
-795738
-795475
-794865
-795015
-795007
-794716
-794661
-794452
-794410
-794162
-793871
-793660
-793539
-793398
-793322
-793164
-793018
-793001
-792821
-792404
-792295
-792344
-792174
-792126
-792151
-792058
-792098
-792101
-791959
-791876
-791765
-791794
-791732
-791731
-791827
-791833
-791826
-791891
-791815
-791703
-791688
-791729
-791679
-791673
-791878
-791877
-791874
-791822
-791776
-791667
-791773
-791789
-791834
-791921
-792036
-791860
-791831
-791790
-791728
-791773
-791877
-791783
-791808
-791820
-791798
-791718
-791661
-791470
-791493
-791538
-791602
-791556
-791469
-791551
-791493
-791439
-791316
-791387
-791301
-791379
-791344
-791414
-791466
-791454
-791392
-791431
-791308
-791277
-791239
-791216
-791361
-791476
-791351
-791431
-791537
-791546
-791599
-791429
-791421
-791467
-791612
-791682
-791625
-791737
-791759
-791754
-791820
-791768
-791717
-791829
-791921
-791870
-792041
-792067
-791970
-791938
-791994
-792066
-791999
-792063
-792219
-792283
-792233
-792331
-792256
-792195
-792155
-792219
-792164
-792273
-792348
-792212
-792365
-792280
-792306
-792255
-792201
-792185
-792155
-792169
-792201
-792259
-792195
-792298
-792324
-792195
-792240
-792162
-792041
-792137
-792251
-792255
-792208
-792280
-792314
-792300
-792293
-792278
-792180
-792144
-792317
-792331
-792405
-792426
-792371
-792304
-792242
-792207
-792400
-792458
-792416
-792837
-792600
-792595
-792658
-792510
-792441
-792538
-792529
-792651
-792579
-792582
-792687
-792659
-792689
-792560
-792672
-792668
-792666
-792761
-792855
-792782
-792881
-793056
-792937
-792948
-792872
-792874
-792885
-792989
-793034
-792984
-793077
-793084
-793139
-793041
-793131
-793167
-793080
-793190
-793247
-793218
-793289
-793363
-793328
-793265
-793232
-793170
-793318
-793342
-793328
-793443
-793504
-793431
-793472
-793297
-793350
-793264
-793342
-793511
-793440
-793495
-793525
-793539
-793479
-793559
-793385
-793342
-793416
-793497
-793525
-793546
-793614
-793635
-793619
-793608
-793635
-793553
-793604
-793686
-793750
-793836
-793824
-793885
-793775
-793810
-793851
-793756
-793802
-793839
-793904
-793842
-793992
-793957
-793877
-793885
-793954
-793874
-793933
-793928
-793962
-794016
-794044
-794111
-794052
-794003
-793998
-793902
-793958
-794067
-794127
-794108
-794246
-794266
-794133
-794129
-794096
-794090
-794088
-794287
-794124
-794210
-794219
-794256
-794295
-794300
-794277
-794129
-794254
-794336
-794367
-794322
-794424
-794422
-794373
-794389
-794496
-794346
-794456
-794529
-794560
-794587
-794690
-794641
-794724
-794527
-794560
-794516
-794574
-794614
-794777
-794775
-794773
-794870
-794841
-794762
-794822
-794759
-794737
-794823
-794848
-794802
-794768
-794903
-794880
-794725
-794640
-794467
-794483
-794501
-794259
-794130
-794185
-793978
-793847
-793618
-793334
-793071
-792952
-792925
-792779
-792502
-792470
-792221
-791949
-791777
-791600
-791354
-791138
-791111
-790940
-790773
-790655
-790558
-790230
-790013
-789976
-789778
-789700
-789771
-789697
-789513
-789573
-789473
-789389
-789407
-789318
-789214
-789102
-789239
-789326
-789294
-789281
-789250
-789176
-789126
-789135
-789090
-789132
-789220
-789249
-789171
-789191
-789289
-789339
-789284
-789184
-789123
-789104
-789179
-789363
-789312
-789317
-789267
-789128
-789065
-789081
-788980
-788976
-789107
-789192
-789090
-789162
-789112
-788995
-788859
-788848
-788825
-788768
-788865
-788874
-788727
-788881
-788802
-788811
-788754
-788618
-788616
-788563
-788546
-788590
-788639
-788604
-788562
-788575
-788528
-788535
-788462
-788590
-788621
-788646
-788735
-788761
-788851
-788908
-788765
-788802
-788613
-788771
-788880
-788813
-788957
-789034
-789028
-789109
-788926
-788905
-788787
-788876
-789038
-789018
-789078
-789162
-789377
-789297
-789366
-789290
-789213
-789216
-789299
-789137
-789743
-789479
-789382
-789303
-789185
-789038
-789083
-789202
-789299
-789232
-789317
-789444
-789317
-789284
-789155
-789051
-789040
-789052
-789120
-789097
-789558
-789350
-789238
-789112
-789044
-789145
-789033
-789183
-789192
-789186
-789148
-789113
-789111
-789074
-789014
-788964
-788885
-788997
-789166
-789124
-789065
-788984
-789193
-789126
-789033
-788998
-789055
-789109
-789125
-789229
-789234
-789258
-789211
-789208
-789069
-789481
-789065
-789157
-789213
-789232
-789297
-789332
-789393
-789415
-789349
-789323
-789226
-789386
-789435
-789898
-789625
-789681
-789614
-789632
-789531
-789536
-789518
-789638
-789629
-789637
-789735
-789797
-789811
-789800
-789743
-789679
-789676
-789733
-789750
-789881
-789957
-790050
-790072
-790022
-789979
-789819
-789838
-789918
-789973
-789889
-790038
-790036
-790057
-790019
-790004
-789874
-789837
-789937
-790102
-790100
-790122
-790196
-790195
-790134
-789989
-789981
-790047
-790079
-789945
-790114
-790172
-790266
-790156
-790040
-789989
-790033
-790027
-790025
-790138
-790111
-790179
-790253
-790283
-790373
-790342
-790175
-790203
-790221
-790233
-790362
-790274
-790367
-790494
-790459
-790420
-790356
-790136
-790181
-790466
-790464
-790407
-790498
-790543
-790458
-790338
-790411
-790440
-790389
-790238
-790384
-790460
-790682
-790735
-790560
-790490
-790477
-790382
-790474
-790576
-790633
-790734
-790837
-790791
-791120
-790832
-790656
-790638
-790668
-790942
-790792
-790892
-790927
-790971
-790934
-790899
-790793
-790805
-790881
-790701
-790949
-790987
-791100
-791205
-791052
-791005
-790954
-791004
-791064
-791124
-791063
-791097
-791195
-791227
-791191
-791216
-791278
-791123
-791160
-791318
-791367
-791414
-791520
-791381
-791351
-791402
-791420
-791321
-791388
-791546
-791602
-791464
-791706
-791671
-791823
-791759
-791588
-791537
-791641
-791762
-791749
-791781
-791888
-791830
-791815
-791804
-791853
-791752
-791704
-791812
-792099
-792237
-791997
-791961
-791633
-791485
-791454
-791368
-791304
-791137
-791106
-790975
-790784
-790613
-790290
-790150
-790064
-790125
-789912
-789599
-789289
-789113
-788992
-788718
-788459
-788262
-788044
-787938
-787773
-788130
-787652
-787343
-787230
-787185
-787018
-786846
-786713
-786657
-786545
-786598
-786542
-786407
-786517
-786493
-786413
-786246
-786242
-786268
-786229
-786291
-786285
-786367
-786320
-786365
-786371
-786285
-786329
-786227
-786376
-786367
-786382
-786479
-786514
-786501
-786332
-786326
-786278
-786245
-786215
-786271
-786373
-786337
-786430
-786400
-786240
-786112
-785954
-785944
-786185
-786116
-785962
-786523
-786165
-785942
-785794
-785683
-785712
-785706
-785708
-785653
-785523
-785645
-785604
-785611
-785480
-785478
-785225
-785428
-785382
-785414
-785356
-785277
-785312
-785309
-785248
-785122
-785082
-785208
-785225
-785182
-785446
-785525
-785371
-785235
-785887
-785619
-785400
-785489
-785516
-785564
-785596
-785588
-785748
-785676
-785583
-785598
-785499
-785618
-785680
-785690
-785893
-785878
-785912
-785845
-785780
-785807
-785737
-785707
-785896
-785919
-785873
-785958
-785654
-785887
-785818
-785800
-785689
-786282
-786394
-786538
-785999
-786060
-786005
-785994
-785945
-785888
-785819
-785857
-785811
-785899
-785855
-785985
-785916
-785822
-785767
-785691
-785719
-785690
-785851
-785774
-785525
-785816
-785776
-785780
-785723
-785826
-785691
-785789
-785791
-785920
-786028
-785932
-786635
-786162
-785896
-785967
-785962
-786072
-786073
-785954
-785900
-785979
-785898
-785959
-786831
-786335
-786144
-786107
-786091
-786041
-786065
-786022
-785958
-786410
-786177
-786230
-786186
-786169
-786165
-786241
-786013
-786132
-786107
-786131
-786169
-786056
-786095
-786220
-786271
-786174
-786134
-786109
-786031
-786219
-786298
-786168
-786140
-786292
-786329
-786241
-786189
-786227
-786117
-786175
-786289
-786120
-786666
-786449
-786440
-786328
-786274
-786291
-786143
-786247
-786303
-786304
-786364
-786486
-786391
-786367
-786320
-786401
-786361
-786236
-786436
-786506
-786610
-787000
-786745
-786667
-786610
-786660
-786562
-786667
-786775
-786763
-786865
-786862
-786860
-786826
-786758
-786811
-786746
-786976
-787116
-787069
-787050
-787229
-787116
-787049
-786945
-787031
-787133
-787268
-787376
-787308
-787315
-787414
-787554
-787558
-787461
-787417
-787454
-787524
-787563
-787679
-787612
-787701
-787732
-788254
-787803
-787736
-787721
-787794
-787837
-787841
-787839
-787871
-788032
-787971
-787868
-787617
-787872
-787933
-787987
-787961
-788110
-788174
-788206
-788189
-788113
-788088
-788101
-788189
-788194
-788316
-788342
-788399
-788241
-788384
-788364
-788347
-788331
-788399
-788372
-788428
-788375
-788545
-788516
-788380
-788424
-788374
-788420
-788530
-788588
-788643
-788515
-788539
-788596
-788600
-788468
-788558
-788519
-788512
-788770
-788775
-788805
-788724
-788701
-788682
-788705
-788477
-788635
-788711
-788844
-788763
-788675
-788865
-788928
-788792
-788813
-788863
-788516
-788847
-788904
-789005
-789036
-789089
-789172
-789134
-789045
-789111
-789001
-789083
-789192
-789200
-789255
-789285
-789402
-789284
-789244
-789194
-789097
-789096
-789198
-789329
-789311
-789300
-789287
-789311
-789149
-789130
-788966
-788903
-789042
-788953
-788780
-788694
-788619
-788378
-788097
-787921
-787737
-787670
-787516
-787317
-787133
-787048
-786737
-786519
-786262
-786161
-785821
-785704
-785653
-785579
-785378
-785223
-785098
-784973
-784785
-784715
-784548
-784440
-784264
-784181
-784110
-784105
-784004
-784031
-783785
-783824
-783753
-783737
-783830
-784253
-783908
-783919
-783914
-783899
-783838
-783808
-783889
-783831
-783851
-783912
-783893
-784079
-784012
-784061
-784006
-784058
-784047
-784150
-784127
-784173
-784196
-784289
-784266
-784255
-784229
-784250
-784255
-784305
-784322
-784375
-784304
-784479
-784296
-784124
-784320
-784283
-783991
-784051
-784263
-784354
-784490
-784399
-784400
-784374
-784263
-784297
-784244
-784391
-784480
-784416
-784527
-784540
-784573
-784512
-784505
-784499
-784477
-784553
-784621
-784661
-784655
-784680
-784694
-784678
-784738
-784784
-784832
-784900
-784940
-785050
-785039
-785136
-785204
-785133
-785065
-785247
-785123
-785223
-785203
-785274
-785235
-785364
-785343
-785448
-785411
-785253
-785227
-785374
-785395
-785378
-785364
-785475
-785456
-785424
-785414
-785357
-785230
-785343
-785347
-785338
-785474
-785578
-785565
-785362
-785279
-785341
-785239
-785423
-785407
-785328
-785441
-785542
-785481
-785403
-785373
-785395
-785176
-785418
-785508
-785494
-785518
-785603
-785621
-785530
-785512
-785520
-785541
-785679
-785701
-785757
-785763
-785884
-785947
-785879
-785800
-785723
-785647
-785698
-785788
-785815
-785813
-785889
-785929
-785924
-785843
-785844
-785858
-785939
-785900
-785960
-785842
-786007
-786070
-786041
-785980
-786024
-785940
-785943
-786141
-786086
-786160
-786262
-786326
-786201
-786213
-786255
-786147
-786167
-786330
-786389
-786387
-786458
-786461
-786328
-786243
-786266
-786141
-786268
-786312
-786343
-786370
-786461
-786520
-786457
-786306
-786278
-786254
-786303
-786483
-786445
-786476
-786467
-786544
-786480
-786491
-786380
-786336
-786422
-786515
-786417
-786424
-786622
-786603
-786604
-786541
-786567
-786466
-786456
-786509
-786565
-786629
-786800
-786764
-786732
-786577
-786549
-786605
-786712
-786860
-786851
-786903
-786925
-786843
-786792
-786745
-786657
-786771
-786947
-786848
-786973
-787168
-787134
-787169
-787163
-787159
-787137
-787130
-787185
-787286
-787272
-787344
-787424
-787425
-787379
-787356
-787349
-787311
-787497
-787413
-787471
-787609
-787635
-787605
-787490
-787533
-787477
-787626
-787669
-787701
-787667
-787767
-787796
-787780
-787687
-787657
-787615
-787625
-787821
-787762
-787748
-787898
-787851
-787892
-787939
-787891
-787797
-787847
-787869
-787950
-787994
-787981
-787980
-788018
-787972
-787903
-787973
-788113
-788087
-788065
-788233
-788183
-788154
-788111
-788138
-788147
-788166
-788262
-788340
-788352
-788463
-788445
-788421
-788283
-788323
-788304
-788471
-788517
-788462
-788540
-788677
-788602
-788616
-788437
-788478
-788365
-788464
-788586
-788587
-788709
-788728
-788685
-788666
-788770
-788799
-788687
-788818
-788947
-788959
-788861
-789001
-789043
-789011
-789059
-789011
-788863
-788922
-789060
-788921
-789121
-789250
-789142
-789137
-789176
-789135
-789012
-789108
-789127
-789107
-789096
-789215
-789053
-789046
-788830
-788680
-788594
-788592
-788463
-788307
-788187
-788071
-788046
-787758
-787600
-787415
-787130
-786985
-786860
-786781
-786661
-786538
-786384
-786041
-785908
-785755
-785455
-785497
-785753
-785395
-785171
-785137
-785082
-784956
-784727
-784559
-784490
-784638
-784610
-784474
-784427
-784528
-784507
-784360
-784478
-784502
-784377
-784471
-784528
-784580
-784558
-784646
-785218
-784894
-784695
-784651
-784579
-784763
-784807
-784810
-784785
-784948
-785064
-784968
-784956
-784988
-784862
-784885
-784933
-785043
-785094
-785281
-785233
-785006
-785033
-785145
-784948
-785079
-785212
-785199
-785307
-785326
-785364
-785322
-785226
-785176
-785186
-785237
-785315
-785384
-785348
-785329
-785442
-785321
-785049
-785220
-785130
-785268
-785316
-785270
-785380
-785496
-785474
-785480
-785398
-785483
-785353
-785468
-785558
-785583
-785499
-785680
-785667
-785614
-785680
-785677
-785690
-785741
-785728
-785711
-785740
-785891
-785955
-785883
-785824
-785763
-785811
-785874
-785873
-785855
-785809
-785990
-785922
-785932
-785910
-785806
-785825
-785817
-785814
-785845
-785946
-785962
-785995
-785826
-785745
-785750
-785724
-785765
-785834
-785859
-785843
-785970
-785887
-785849
-785742
-785695
-785650
-785737
-785837
-785755
-785927
-786038
-785977
-785854
-785917
-785908
-785839
-785808
-785893
-785929
-785975
-786013
-786050
-786048
-785995
-786013
-785944
-786063
-786055
-786140
-786165
-786272
-786285
-786281
-786213
-786160
-786191
-786235
-786250
-786320
-786306
-786526
-786551
-786458
-786387
-786389
-786421
-786467
-786540
-786612
-786720
-786735
-786771
-786628
-786634
-786652
-786663
-786769
-786755
-786781
-786820
-786906
-786956
-786860
-786843
-786891
-786878
-786879
-787048
-786979
-787032
-787107
-787204
-787032
-786952
-787013
-787060
-787072
-787248
-787266
-787361
-787276
-787259
-787352
-787351
-787208
-787223
-787334
-787444
-787373
-787334
-787457
-787495
-787471
-787356
-787353
-787244
-787281
-787390
-787406
-787536
-787588
-787674
-787519
-787481
-787576
-787493
-787598
-787712
-787624
-787650
-787789
-787764
-787830
-787716
-787664
-787626
-787700
-787741
-787761
-787810
-787920
-787883
-787798
-787867
-787929
-787861
-787907
-787959
-787915
-788025
-788086
-788105
-788051
-787964
-788084
-787971
-788070
-788160
-788142
-788241
-788254
-788257
-788230
-788231
-788241
-788296
-788319
-788442
-788551
-788501
-788383
-788401
-788248
-788390
-788428
-788414
-788548
-788616
-788483
-788460
-788557
-788471
-788646
-788743
-788718
-788759
-788515
-788633
-788624
-788597
-788750
-788724
-788751
-788742
-788767
-788833
-789010
-789032
-789018
-788842
-788914
-788874
-788916
-788992
-789030
-788923
-789026
-789065
-788791
-789042
-789007
-788926
-789021
-789006
-789050
-789212
-789236
-789302
-789220
-789123
-789097
-789085
-789108
-789182
-789275
-789333
-789384
-789435
-789352
-789236
-789262
-789249
-789301
-789326
-789337
-789462
-789507
-789535
-789490
-789423
-789348
-789313
-789511
-789581
-789627
-789592
-789709
-789687
-789758
-789622
-789606
-789660
-789659
-789715
-789820
-789848
-789983
-789913
-789830
-789884
-789923
-789774
-789835
-789938
-790005
-790069
-790169
-790148
-790076
-790093
-790057
-790217
-790192
-790266
-790354
-790404
-790347
-790396
-790253
-790158
-790182
-790167
-790301
-790275
-790241
-790255
-790215
-789978
-789819
-789838
-789643
-789488
-789486
-789307
-789225
-789130
-788898
-788662
-788379
-788245
-788079
-787925
-787801
-787651
-787423
-787424
-787199
-787010
-786877
-786712
-786588
-786487
-786461
-786190
-786106
-786076
-785993
-785828
-785799
-785700
-785630
-785621
-785552
-785623
-785615
-785567
-785588
-785428
-785399
-785367
-785327
-785237
-785401
-785497
-785589
-785637
-785743
-785604
-785574
-785597
-785628
-785584
-785762
-785726
-785888
-785899
-785871
-785904
-785933
-785935
-785912
-786060
-786148
-786128
-786233
-786313
-786243
-786275
-786241
-786262
-786275
-786396
-786432
-786408
-786424
-786452
-786485
-786471
-786386
-786382
-786245
-786458
-786481
-786467
-786548
-786587
-786617
-786608
-786542
-786643
-786555
-786567
-786638
-786612
-786755
-786724
-786717
-786752
-786713
-786765
-786639
-786753
-786825
-786809
-786939
-787056
-786982
-786927
-786907
-786900
-786833
-786912
-787099
-787029
-787024
-787091
-787155
-787060
-786948
-786962
-787031
-787022
-787103
-787171
-787105
-787101
-787113
-787139
-787068
-786998
-787025
-787066
-787094
-787119
-787048
-787248
-787258
-787162
-787151
-787105
-786986
-787123
-787267
-787229
-787268
-787288
-787259
-787188
-787140
-787148
-787135
-787207
-787239
-787337
-787353
-787468
-787429
-787428
-787355
-787370
-787274
-787351
-787419
-787536
-787548
-787683
-787645
-787726
-787537
-787595
-787613
-787690
-787772
-787700
-787715
-787923
-787943
-787875
-787783
-787812
-787775
-787869
-788063
-787973
-788063
-788144
-788162
-788145
-788176
-788121
-788102
-788270
-788230
-788305
-788360
-788430
-788439
-788404
-788421
-788496
-788427
-788468
-788434
-788591
-788676
-788634
-788510
-788669
-788600
-788565
-788615
-788723
-788760
-788777
-788905
-788857
-788874
-788787
-788735
-788774
-788851
-788977
-789075
-789069
-789153
-789499
-789119
-789026
-789008
-788894
-789091
-789136
-789235
-789154
-789347
-789244
-789300
-789230
-789275
-789150
-789204
-789303
-789362
-789306
-789414
-789449
-789441
-789326
-789321
-789376
-789372
-789534
-789604
-789551
-789604
-789696
-789548
-789608
-789613
-789430
-789643
-789722
-789781
-789694
-789763
-789758
-789834
-789738
-789759
-789748
-789754
-789903
-789807
-789840
-789984
-789956
-789911
-789999
-789905
-789913
-790040
-790062
-790119
-790098
-790269
-790286
-790181
-790168
-790093
-790096
-790138
-790298
-790306
-790291
-790430
-790290
-790440
-790400
-790305
-790246
-790325
-790468
-790499
-790564
-790645
-790694
-790585
-790508
-790503
-790550
-790660
-790699
-790652
-790772
-790747
-790796
-790826
-790722
-790813
-790694
-790815
-790924
-790926
-790911
-791013
-790962
-790954
-790946
-790996
-790921
-791013
-791109
-791146
-791099
-791303
-791266
-791220
-791077
-791017
-791229
-791271
-791201
-791319
-791313
-791373
-791288
-791334
-791358
-791321
-791418
-791410
-791394
-791473
-791558
-791534
-791495
-791436
-791536
-791275
-791563
-791652
-791612
-791645
-791696
-791686
-791657
-791651
-791616
-792186
-791894
-791800
-791783
-791847
-792009
-791953
-791909
-791891
-791878
-791816
-791951
-791996
-791960
-791962
-792059
-792115
-792134
-792117
-792029
-791995
-792112
-792168
-792224
-792221
-792284
-792315
-792258
-792172
-792221
-792251
-792424
-792491
-792470
-792587
-792532
-792446
-792460
-792469
-792430
-792596
-792632
-792551
-792577
-792696
-792708
-792664
-792630
-792626
-792543
-792669
-792798
-792796
-792813
-792837
-792810
-792589
-792615
-792583
-792419
-792377
-792409
-792229
-792100
-792115
-792060
-791803
-791603
-791423
-791116
-791085
-791031
-790795
-790556
-790443
-790421
-790161
-789957
-789667
-789460
-789496
-789346
-789292
-789128
-789102
-788978
-788735
-788553
-788321
-788193
-788099
-788187
-788151
-788101
-788053
-788045
-787982
-787810
-787838
-787654
-787656
-787927
-787782
-787815
-787908
-787874
-787857
-787860
-787756
-787704
-787864
-787906
-788020
-788076
-788097
-788228
-788190
-788203
-788219
-788141
-788240
-788418
-788416
-788503
-788580
-788658
-788676
-788596
-788657
-788602
-788597
-788741
-788874
-788930
-789023
-789018
-789016
-788956
-789023
-789019
-789013
-789094
-789245
-789334
-789472
-789365
-789373
-789264
-789329
-789253
-789316
-789388
-789491
-789573
-789610
-789636
-789609
-789447
-789471
-789383
-789400
-789585
-789661
-789742
-789735
-789810
-789717
-789699
-789716
-789535
-789688
-789691
-789703
-789760
-789896
-789855
-789826
-789793
-789666
-789509
-789608
-789701
-789672
-789704
-789876
-789744
-789773
-789588
-789662
-789596
-789610
-789478
-789577
-789726
-789746
-789697
-789724
-789591
-789625
-789498
-789575
-789706
-789614
-789713
-789789
-789741
-789780
-789696
-789671
-789292
-789524
-789664
-789726
-789853
-789857
-789929
-789874
-789658
-789732
-789662
-789779
-789813
-789848
-789954
-790021
-790040
-789919
-789961
-789979
-789826
-790018
-790137
-790164
-790201
-790237
-790249
-790220
-790119
-790331
-790229
-790246
-790325
-790318
-790355
-790512
-790574
-790488
-790173
-790388
-790361
-790527
-790559
-790547
-790750
-790762
-790758
-790699
-790710
-790650
-790615
-790732
-790833
-790928
-790947
-790986
-790959
-790940
-790847
-790977
-790820
-790935
-791060
-791155
-791147
-791115
-791248
-791209
-791144
-791171
-791026
-791186
-791191
-791799
-791515
-791438
-791424
-791478
-791248
-791368
-791250
-791411
-791367
-791379
-791519
-791552
-791480
-791525
-791440
-791395
-791462
-791522
-791578
-791715
-791746
-791747
-791745
-791777
-791744
-791769
-791602
-791755
-791734
-791804
-791844
-791874
-791900
-791868
-791825
-791822
-791668
-791586
-791757
-791870
-791876
-792063
-792038
-791952
-792018
-791850
-791958
-792082
-792164
-792211
-792321
-792295
-792317
-792155
-792150
-792104
-792310
-792281
-792374
-792367
-792501
-792542
-792441
-792346
-792439
-792436
-792503
-792553
-792714
-792735
-792757
-792693
-793231
-793360
-792839
-792657
-792763
-792869
-792932
-792955
-792982
-792976
-792970
-792947
-793087
-793015
-793163
-793264
-793172
-793232
-793271
-793243
-793276
-793203
-793254
-793150
-793228
-793303
-793451
-793402
-793505
-793459
-793442
-793684
-793713
-793537
-793500
-793590
-793598
-793799
-793805
-793660
-793658
-793670
-793588
-793703
-793788
-793730
-793764
-794123
-793964
-793897
-793734
-793689
-793658
-793633
-793792
-793850
-794048
-794004
-793826
-793805
-793832
-793664
-794035
-794120
-793980
-793974
-794043
-794016
-793984
-793878
-793871
-793761
-793847
-794043
-793983
-794089
-794189
-794067
-793967
-793944
-793959
-793845
-793986
-794024
-794050
-794045
-794089
-794154
-793877
-793988
-794043
-793933
-794148
-794195
-794198
-794171
-794212
-794221
-794187
-794159
-794170
-794115
-794261
-794017
-794086
-794195
-794372
-794357
-794257
-794240
-794252
-794055
-794199
-794142
-794180
-794115
-794222
-794266
-794204
-794001
-793964
-793784
-793742
-793733
-793747
-793669
-793588
-793358
-793126
-792799
-792813
-792504
-792499
-792325
-792243
-791970
-791996
-791760
-791620
-791345
-791212
-790947
-790909
-790751
-790576
-790426
-790435
-790307
-790201
-789932
-789927
-789659
-789486
-789475
-789432
-789453
-789483
-789391
-789354
-789111
-789169
-789128
-789177
-789119
-789213
-789182
-789257
-789166
-789211
-789116
-789163
-789102
-789155
-789227
-789292
-789391
-789450
-789435
-789479
-789343
-789336
-789337
-789901
-789655
-789557
-789717
-789878
-789800
-789866
-789819
-789828
-789880
-790017
-790107
-790104
-790176
-790313
-790264
-790279
-790272
-790262
-790279
-790386
-790326
-790414
-790585
-790717
-790670
-790676
-790638
-790671
-790531
-790635
-790824
-790900
-790747
-790984
-790989
-790995
-790937
-790976
-791281
-791313
-791377
-791322
-791265
-791245
-791216
-791207
-791329
-791319
-791377
-791388
-791489
-792174
-791540
-791353
-791284
-791214
-791184
-791311
-791419
-791398
-791430
-791448
-791472
-791321
-791348
-791205
-791349
-791342
-791463
-791278
-791381
-791351
-791319
-791250
-791193
-791147
-791248
-791262
-791290
-791228
-791350
-791367
-791281
-791183
-791559
-791244
-791200
-791342
-791207
-791222
-791307
-791263
-791310
-791220
-791183
-791094
-791173
-791216
-791326
-791324
-791470
-791453
-791336
-791247
-791195
-791174
-791427
-791396
-791488
-791334
-791508
-791557
-791502
-791437
-791418
-791360
-791462
-791568
-791514
-791627
-791695
-791653
-791650
-791533
-791553
-791491
-791694
-791714
-791723
-791756
-791871
-791925
-791806
-791821
-791868
-791718
-791837
-791961
-792089
-792291
-792258
-792266
-792195
-792161
-792223
-792133
-792307
-792359
-792275
-792216
-792385
-792450
-792477
-792378
-792406
-792335
-792359
-792570
-792682
-792747
-792783
-792855
-792707
-792589
-792506
-792516
-792664
-792720
-792807
-792930
-792984
-792884
-792865
-792863
-792911
-792774
-792920
-792945
-792928
-793027
-793056
-793126
-793210
-793068
-792965
-792955
-793021
-793078
-793099
-793131
-793291
-793263
-793191
-793209
-793286
-793107
-793348
-793392
-793445
-793443
-793504
-793543
-793433
-793374
-793423
-793329
-793479
-793504
-793562
-793665
-793685
-793597
-793664
-793628
-793660
-793446
-793476
-793723
-793713
-793706
-793867
-793892
-793778
-793766
-793659
-793645
-793745
-793927
-793901
-793983
-794078
-794032
-794030
-793924
-793912
-793849
-794143
-794097
-794078
-794056
-794240
-794222
-794141
-794004
-794098
-793921
-794163
-794145
-794249
-794322
-794376
-794369
-794246
-794234
-794209
-794216
-794295
-794398
-794371
-794507
-794588
-794487
-794496
-794337
-794314
-794301
-794307
-794552
-794606
-794557
-794662
-794703
-794566
-794645
-794567
-794560
-794647
-794713
-794757
-794609
-794836
-794926
-794785
-794775
-794873
-794649
-794867
-794654
-794552
