PPG
-1139396
-1138604
-1138881
-1135828
-1136064
-1137617
-1136029
-1135314
-1141578
-1141464
-1138119
-1137148
-1137239
-1134066
-1134105
-1135614
-1133932
-1133175
-1139588
-1139443
-1136062
-1135009
-1135190
-1132199
-1132190
-1133668
-1132228
-1131622
-1137925
-1137824
-1134554
-1133765
-1134226
-1131238
-1131521
-1133166
-1131660
-1131288
-1138001
-1137911
-1134836
-1134144
-1134663
-1131990
-1132373
-1133970
-1132711
-1132046
-1139190
-1139395
-1136330
-1135738
-1136317
-1133809
-1134352
-1136042
-1134976
-1134755
-1141590
-1141632
-1138770
-1138210
-1138814
-1136203
-1136735
-1138603
-1137359
-1137362
-1144145
-1144323
-1141494
-1140833
-1141420
-1138990
-1139668
-1141500
-1140265
-1140156
-1146814
-1147128
-1144194
-1143734
-1144401
-1141917
-1142482
-1144362
-1143128
-1142992
-1149766
-1150087
-1147109
-1146715
-1147473
-1145768
-1145617
-1147475
-1146116
-1145992
-1152735
-1153775
-1150253
-1149719
-1150344
-1147604
-1148325
-1150226
-1149188
-1148963
-1155773
-1156087
-1153234
-1152670
-1153344
-1150791
-1151347
-1153470
-1152081
-1151887
-1158533
-1158951
-1155356
-1156216
-1153618
-1154102
-1156314
-1154862
-1154730
-1161369
-1161603
-1158669
-1158152
-1158864
-1156200
-1156735
-1158967
-1157555
-1157469
-1163970
-1164123
-1161195
-1160730
-1161479
-1159046
-1159438
-1161540
-1160086
-1159855
-1166401
-1166191
-1163250
-1163093
-1163822
-1161383
-1161660
-1163730
-1162316
-1162317
-1168856
-1168868
-1165658
-1165303
-1166082
-1163287
-1163863
-1165916
-1164549
-1164436
-1170645
-1170877
-1167716
-1167352
-1168004
-1165399
-1165762
-1167761
-1166331
-1166349
-1172590
-1172786
-1169639
-1169183
-1169911
-1167230
-1167560
-1169322
-1168006
-1168009
-1174523
-1174684
-1171380
-1170961
-1171679
-1168966
-1169458
-1171242
-1170019
-1170090
-1176325
-1176429
-1173356
-1173108
-1173909
-1171144
-1171722
-1173333
-1172327
-1172405
-1178650
-1178694
-1175635
-1174849
-1175747
-1172948
-1173535
-1175160
-1173672
-1173470
-1179493
-1179007
-1175348
-1174216
-1173740
-1169841
-1168912
-1168915
-1165903
-1164086
-1168453
-1166433
-1160953
-1158192
-1156579
-1151448
-1149638
-1148988
-1145408
-1143367
-1147699
-1145812
-1140468
-1138113
-1136872
-1132277
-1131044
-1128037
-1126655
-1131608
-1130217
-1125834
-1123904
-1123410
-1119525
-1118713
-1119190
-1116865
-1116103
-1121565
-1120712
-1116840
-1115305
-1115618
-1112189
-1112088
-1112908
-1111042
-1110753
-1116962
-1116531
-1113035
-1112223
-1112783
-1109776
-1109908
-1111133
-1109724
-1109794
-1116055
-1115915
-1112670
-1112067
-1112725
-1109922
-1110387
-1111561
-1110198
-1110386
-1116847
-1116645
-1113360
-1112939
-1113639
-1110594
-1110957
-1112258
-1110857
-1111106
-1117431
-1117406
-1114205
-1113495
-1114174
-1111210
-1111493
-1112763
-1111306
-1111446
-1117804
-1117612
-1114241
-1113521
-1113996
-1111021
-1111298
-1112327
-1110764
-1111010
-1117957
-1117186
-1113698
-1112952
-1113368
-1110270
-1110530
-1111593
-1110217
-1110309
-1116707
-1116287
-1113116
-1112480
-1113065
-1110877
-1110709
-1111648
-1110217
-1110646
-1117004
-1116975
-1113697
-1113276
-1114105
-1111162
-1111739
-1113127
-1112076
-1112409
-1119039
-1119187
-1116279
-1115879
-1116806
-1113915
-1114707
-1116186
-1115004
-1115380
-1122041
-1122087
-1119029
-1118618
-1119565
-1116751
-1117226
-1118576
-1117264
-1117572
-1124044
-1123885
-1120906
-1120239
-1121099
-1118014
-1118383
-1119453
-1118106
-1118274
-1124679
-1124398
-1121111
-1120440
-1120975
-1117805
-1117971
-1119089
-1117508
-1117745
-1124032
-1123565
-1120217
-1119426
-1120007
-1116854
-1117105
-1118106
-1116759
-1116845
-1123306
-1122688
-1119602
-1118771
-1119458
-1116266
-1116631
-1117785
-1116458
-1116838
-1123398
-1122993
-1120026
-1119370
-1120222
-1117272
-1117691
-1118721
-1117574
-1118103
-1124743
-1124328
-1121320
-1120802
-1121784
-1118910
-1119421
-1120628
-1119535
-1120081
-1126809
-1126937
-1123469
-1123253
-1124225
-1121330
-1121978
-1123265
-1122035
-1122691
-1129315
-1129155
-1126326
-1126015
-1126987
-1124140
-1125909
-1126371
-1124978
-1125615
-1132311
-1131979
-1129137
-1128793
-1130044
-1126987
-1127868
-1128883
-1127897
-1128636
-1135212
-1135043
-1132211
-1131889
-1132985
-1130022
-1130967
-1132187
-1131078
-1131769
-1138389
-1138157
-1135563
-1135216
-1135918
-1133078
-1133932
-1135157
-1134248
-1134870
-1141646
-1141189
-1138518
-1139169
-1139601
-1136477
-1137210
-1138335
-1137475
-1138205
-1144874
-1144337
-1141601
-1141289
-1142359
-1139204
-1140058
-1141176
-1140315
-1140963
-1147666
-1147072
-1144403
-1144040
-1145257
-1142223
-1142970
-1144160
-1143174
-1144944
-1150758
-1149936
-1147226
-1146945
-1148037
-1144954
-1146537
-1147085
-1146012
-1146642
-1153255
-1152505
-1149862
-1149615
-1150599
-1147464
-1148347
-1149434
-1148360
-1148962
-1155481
-1154829
-1152231
-1151862
-1152535
-1149557
-1150562
-1151591
-1151405
-1151286
-1158540
-1157270
-1154441
-1154019
-1154956
-1151822
-1152526
-1153660
-1152557
-1153311
-1159988
-1159142
-1156490
-1156204
-1157301
-1154057
-1154914
-1155896
-1154859
-1155331
-1161986
-1161264
-1158493
-1158183
-1159159
-1155847
-1157695
-1157917
-1156896
-1157456
-1164494
-1163580
-1160677
-1160217
-1161411
-1157733
-1159023
-1160047
-1158837
-1159585
-1166950
-1165805
-1162901
-1162424
-1163645
-1159995
-1160968
-1162264
-1161138
-1161855
-1169682
-1168376
-1165515
-1164984
-1166250
-1162550
-1163519
-1164904
-1163619
-1164266
-1172010
-1171081
-1168099
-1167771
-1169020
-1165188
-1166197
-1167471
-1166322
-1167170
-1174696
-1173710
-1170884
-1170371
-1171819
-1167913
-1169235
-1170576
-1169911
-1170339
-1178053
-1176974
-1174006
-1173565
-1175057
-1171242
-1172504
-1173789
-1172622
-1173538
-1181328
-1180322
-1177502
-1177223
-1178607
-1174937
-1176081
-1177386
-1176364
-1177349
-1184995
-1184011
-1181203
-1180813
-1182150
-1178204
-1179362
-1180477
-1179058
-1179364
-1186438
-1184552
-1180493
-1179156
-1178802
-1173424
-1172576
-1171610
-1168086
-1166422
-1171103
-1167293
-1161772
-1158724
-1157289
-1150577
-1149079
-1147778
-1144057
-1142511
-1147572
-1144252
-1139440
-1136984
-1136331
-1130571
-1129922
-1129557
-1126902
-1126204
-1132053
-1129462
-1125331
-1123736
-1123916
-1118917
-1118822
-1119282
-1117278
-1117106
-1123618
-1121728
-1118359
-1117312
-1117847
-1113543
-1114177
-1115037
-1113167
-1113810
-1120923
-1119340
-1116371
-1115800
-1116664
-1112821
-1113699
-1114997
-1113669
-1114207
-1121420
-1120033
-1117175
-1116710
-1117566
-1113762
-1114876
-1116353
-1114977
-1115626
-1122697
-1121423
-1118598
-1118152
-1118868
-1115105
-1116194
-1117451
-1116236
-1116652
-1123788
-1122296
-1119282
-1118971
-1119531
-1115723
-1116685
-1117988
-1116639
-1117078
-1123921
-1122360
-1119422
-1118795
-1119358
-1115536
-1116502
-1117690
-1116154
-1116452
-1123299
-1121641
-1118834
-1118154
-1118461
-1114776
-1115830
-1116881
-1115390
-1115872
-1122687
-1121218
-1118318
-1117710
-1118010
-1114562
-1115640
-1117050
-1115668
-1116197
-1123128
-1121684
-1119033
-1118629
-1119082
-1115716
-1117187
-1118686
-1117492
-1118359
-1125488
-1124068
-1121625
-1121306
-1121776
-1118566
-1120144
-1121661
-1120443
-1121247
-1128417
-1126782
-1124546
-1124275
-1124530
-1121424
-1122828
-1124221
-1122834
-1123567
-1130365
-1128800
-1126217
-1125886
-1125907
-1122827
-1124102
-1125298
-1123734
-1124389
-1131067
-1129315
-1126750
-1126172
-1126134
-1122992
-1124092
-1125213
-1123488
-1124057
-1130806
-1128847
-1126177
-1125721
-1125580
-1122313
-1123475
-1125525
-1123316
-1123613
-1130344
-1128638
-1126095
-1125683
-1125354
-1122371
-1123696
-1124797
-1123331
-1123895
-1130615
-1128842
-1126201
-1126147
-1125712
-1123100
-1124454
-1125939
-1124529
-1125158
-1132161
-1130424
-1128135
-1127855
-1127577
-1125048
-1126417
-1127843
-1126327
-1127348
-1134201
-1132492
-1130362
-1129981
-1129953
-1127472
-1128814
-1130168
-1128790
-1129927
-1136923
-1135248
-1133074
-1132831
-1132523
-1130030
-1131691
-1132922
-1131575
-1132682
-1139702
-1137860
-1135689
-1135476
-1135263
-1132896
-1134318
-1135687
-1134439
-1135735
-1142475
-1140584
-1138639
-1138486
-1137939
-1135612
-1138267
-1138879
-1137151
-1139506
-1145550
-1143522
-1141335
-1141143
-1140486
-1138226
-1139965
-1141259
-1139759
-1141334
-1147857
-1145930
-1143734
-1143639
-1143041
-1140870
-1142407
-1143797
-1142431
-1143993
-1150553
-1148402
-1146359
-1146157
-1145521
-1143279
-1145017
-1146298
-1144987
-1146594
-1152984
-1150889
-1148732
-1148626
-1148214
-1145773
-1147396
-1148894
-1147348
-1149097
-1155587
-1153397
-1151259
-1151147
-1150336
-1148337
-1149837
-1151307
-1149748
-1151674
-1158023
-1155860
-1153677
-1153650
-1152563
-1150657
-1152507
-1153826
-1152346
-1154281
-1160562
-1158155
-1156023
-1155886
-1154777
-1152919
-1154673
-1156132
-1154741
-1156866
-1162987
-1160632
-1158674
-1158329
-1157095
-1155168
-1156948
-1158329
-1156989
-1158974
-1165286
-1162641
-1160605
-1160376
-1159115
-1157089
-1158965
-1160212
-1158840
-1161095
-1167336
-1164714
-1162681
-1162509
-1161194
-1159366
-1161205
-1162517
-1161147
-1163554
-1169502
-1166865
-1165848
-1165210
-1163476
-1161541
-1163457
-1164795
-1163571
-1165918
-1171803
-1169129
-1167249
-1166974
-1165377
-1163656
-1165629
-1166998
-1165910
-1168628
-1174512
-1171742
-1169763
-1169632
-1167835
-1166171
-1168069
-1169525
-1168485
-1171122
-1176928
-1174136
-1172439
-1172183
-1170394
-1168528
-1170586
-1171799
-1170749
-1173549
-1179331
-1176466
-1174862
-1174571
-1172526
-1171054
-1173275
-1174515
-1173596
-1176513
-1182087
-1179237
-1177477
-1177347
-1175376
-1173852
-1175928
-1177182
-1176200
-1179225
-1184760
-1181958
-1180176
-1179847
-1177943
-1176368
-1178438
-1179948
-1178775
-1181765
-1187382
-1184359
-1182626
-1182422
-1180379
-1178914
-1181114
-1182423
-1181204
-1184435
-1189965
-1186846
-1185193
-1184688
-1182638
-1181159
-1183214
-1184384
-1183330
-1186682
-1192183
-1189004
-1187392
-1187209
-1184944
-1183530
-1185746
-1186984
-1185963
-1189266
-1194702
-1191530
-1190101
-1189843
-1187532
-1185952
-1188200
-1189167
-1187923
-1191037
-1195997
-1192076
-1189748
-1188391
-1184871
-1182512
-1182964
-1182121
-1178940
-1180022
-1183004
-1177221
-1172981
-1170186
-1165100
-1161315
-1160788
-1159448
-1155694
-1157021
-1160175
-1154752
-1150992
-1148965
-1144678
-1141756
-1142346
-1141705
-1139068
-1141337
-1145561
-1140950
-1138149
-1136819
-1133351
-1131295
-1133315
-1133124
-1131022
-1134003
-1138879
-1134673
-1132748
-1132075
-1129040
-1127635
-1129613
-1130192
-1128660
-1132520
-1137466
-1133980
-1132400
-1132194
-1129584
-1128509
-1130571
-1131660
-1130294
-1134200
-1139608
-1136030
-1134627
-1134418
-1131633
-1130851
-1133193
-1134099
-1132822
-1137111
-1142400
-1138892
-1137249
-1136909
-1134213
-1133455
-1135659
-1136576
-1135180
-1139379
-1144389
-1140571
-1139100
-1138770
-1135869
-1134780
-1136983
-1137869
-1136339
-1140537
-1145297
-1141442
-1139765
-1139512
-1136339
-1135260
-1137298
-1138010
-1136512
-1140491
-1145347
-1141324
-1139542
-1139114
-1135859
-1134925
-1136793
-1137463
-1135999
-1140084
-1144894
-1140939
-1139246
-1138676
-1135454
-1134508
-1136447
-1137194
-1135897
-1140196
-1144643
-1140670
-1139277
-1138942
-1135772
-1135158
-1137377
-1138234
-1136974
-1141348
-1146090
-1142292
-1140995
-1140825
-1137737
-1137008
-1139324
-1140216
-1139123
-1143584
-1148332
-1144386
-1143156
-1142988
-1139800
-1139196
-1141230
-1142019
-1141020
-1145624
-1150202
-1147011
-1144873
-1144387
-1140988
-1140352
-1142568
-1143198
-1142109
-1146574
-1150801
-1146917
-1145317
-1144852
-1141287
-1140694
-1142713
-1143406
-1142225
-1146723
-1150805
-1146870
-1145291
-1144791
-1141221
-1140641
-1142601
-1143415
-1142246
-1146474
-1150911
-1146757
-1145400
-1144932
-1141408
-1140842
-1143007
-1143699
-1142785
-1147411
-1151582
-1147543
-1146071
-1145709
-1142098
-1141761
-1143961
-1144819
-1143810
-1148559
-1152596
-1148845
-1147351
-1147169
-1143690
-1143244
-1145569
-1146414
-1145729
-1150579
-1154564
-1150841
-1149556
-1149155
-1145769
-1145420
-1147811
-1148688
-1148004
-1152848
-1156907
-1153278
-1152063
-1151702
-1148200
-1147920
-1150527
-1151426
-1150849
-1155989
-1159933
-1156087
-1154809
-1154707
-1151059
-1151072
-1153425
-1154291
-1153641
-1158801
-1162699
-1158879
-1157758
-1157557
-1154061
-1153927
-1156244
-1157098
-1156415
-1161819
-1165690
-1161853
-1160439
-1160267
-1156603
-1156446
-1158978
-1159860
-1159125
-1164382
-1168143
-1164272
-1162995
-1163518
-1159046
-1159021
-1161382
-1162100
-1161131
-1166576
-1170208
-1165929
-1164983
-1164772
-1161008
-1160879
-1163318
-1163979
-1163248
-1168671
-1172293
-1168237
-1166802
-1166478
-1162383
-1162684
-1165053
-1165605
-1164720
-1170346
-1173963
-1169813
-1168579
-1168252
-1164329
-1164465
-1166585
-1167238
-1166273
-1172038
-1175706
-1171580
-1170400
-1170115
-1166439
-1167037
-1168913
-1169260
-1168107
-1173828
-1177522
-1173439
-1172205
-1172032
-1168244
-1168308
-1170372
-1171060
-1170150
-1175994
-1179755
-1175413
-1174192
-1174043
-1170260
-1170495
-1172665
-1173247
-1172344
-1178354
-1181698
-1177622
-1176368
-1176229
-1172373
-1172428
-1174590
-1175283
-1174114
-1180344
-1183653
-1179622
-1178246
-1178097
-1174239
-1174375
-1176592
-1177214
-1176257
-1182435
-1185896
-1181580
-1180496
-1180099
-1176160
-1176281
-1178226
-1179147
-1178295
-1184650
-1187803
-1183655
-1182346
-1182120
-1178073
-1178353
-1180578
-1181149
-1180091
-1186442
-1189686
-1185441
-1184368
-1184067
-1180111
-1180298
-1182526
-1183337
-1182243
-1188970
-1192001
-1187815
-1186605
-1186406
-1182454
-1182605
-1184983
-1185611
-1184229
-1191124
-1194375
-1190048
-1188877
-1188690
-1184744
-1184973
-1187475
-1188139
-1187093
-1193823
-1196881
-1192530
-1191482
-1191282
-1187316
-1187654
-1189907
-1190606
-1189617
-1196316
-1199378
-1195011
-1193900
-1193714
-1189803
-1190080
-1192366
-1193088
-1192143
-1199025
-1201755
-1197535
-1196432
-1196343
-1192327
-1192557
-1194925
-1195499
-1194545
-1201479
-1204284
-1199801
-1198762
-1198552
-1194619
-1194879
-1197142
-1197644
-1196544
-1203761
-1206440
-1202234
-1201210
-1200900
-1196955
-1197175
-1199493
-1200244
-1199144
-1206320
-1208993
-1204681
-1203635
-1203477
-1199431
-1199915
-1202328
-1202923
-1201978
-1209183
-1211776
-1207543
-1206445
-1206443
-1202446
-1202855
-1205290
-1205770
-1204612
-1211616
-1213942
-1209351
-1207675
-1206915
-1202175
-1201425
-1202423
-1201613
-1198618
-1203825
-1204174
-1197456
-1193839
-1191074
-1184356
-1182022
-1181801
-1179746
-1175939
-1180816
-1180711
-1174118
-1170599
-1168244
-1162207
-1160639
-1161095
-1160217
-1157681
-1163426
-1164364
-1158712
-1156446
-1155003
-1149865
-1149296
-1150776
-1150649
-1148833
-1155636
-1157298
-1152490
-1151176
-1150065
-1145518
-1145652
-1148402
-1148488
-1146973
-1154187
-1156312
-1151933
-1150521
-1150254
-1146324
-1146676
-1149146
-1149801
-1148814
-1156286
-1158552
-1154471
-1153327
-1153208
-1149462
-1149988
-1152522
-1153350
-1152192
-1159762
-1161979
-1157906
-1156850
-1156794
-1152789
-1153102
-1155571
-1156302
-1155157
-1162822
-1164882
-1160548
-1159489
-1159187
-1154973
-1155296
-1157613
-1158104
-1156752
-1164233
-1166250
-1161748
-1160476
-1159935
-1156007
-1156167
-1158304
-1158544
-1157186
-1164646
-1166355
-1161831
-1160327
-1159923
-1155766
-1155847
-1157754
-1158089
-1156759
-1164154
-1165952
-1161292
-1159804
-1159506
-1155263
-1155523
-1157674
-1157906
-1156225
-1163721
-1165781
-1161382
-1160013
-1159673
-1155745
-1155896
-1158497
-1158560
-1156792
-1164854
-1166960
-1162722
-1161486
-1161339
-1157535
-1157935
-1160396
-1160696
-1159518
-1167247
-1169346
-1165302
-1163974
-1163878
-1159897
-1160442
-1162834
-1163264
-1161974
-1169777
-1171955
-1167533
-1166259
-1166017
-1161944
-1162348
-1164597
-1165082
-1163682
-1171337
-1173249
-1168601
-1167378
-1166881
-1162918
-1163239
-1165454
-1165514
-1164020
-1171567
-1173211
-1168787
-1167451
-1166986
-1162948
-1163139
-1165241
-1165414
-1163446
-1171327
-1173096
-1168580
-1167116
-1166761
-1162919
-1162921
-1165044
-1165344
-1163668
-1171492
-1173328
-1168902
-1167484
-1167076
-1163122
-1163307
-1165663
-1165955
-1164542
-1172212
-1173978
-1169654
-1168340
-1168208
-1164270
-1164611
-1166854
-1167333
-1166099
-1173737
-1175654
-1171436
-1170088
-1170014
-1166309
-1166669
-1168880
-1169354
-1168085
-1175987
-1177943
-1173674
-1172332
-1172237
-1168595
-1168964
-1171389
-1171698
-1170551
-1178350
-1180204
-1176139
-1174985
-1174895
-1171132
-1171505
-1173882
-1174313
-1173048
-1181186
-1183023
-1178736
-1177671
-1177552
-1173733
-1174184
-1176271
-1176911
-1175640
-1183547
-1185369
-1181226
-1179909
-1179463
-1175798
-1176262
-1178596
-1179037
-1177906
-1185692
-1187573
-1183261
-1182069
-1182014
-1178120
-1178517
-1180940
-1181327
-1180497
-1188824
-1189893
-1185563
-1183866
-1183942
-1180244
-1180719
-1183127
-1183674
-1182496
-1190399
-1192067
-1187861
-1186765
-1186454
-1182886
-1183308
-1185692
-1186223
-1184974
-1192900
-1194617
-1190613
-1189351
-1189190
-1185391
-1185974
-1188279
-1188809
-1187818
-1195774
-1197533
-1193455
-1192109
-1191863
-1188126
-1188497
-1190880
-1191276
-1190015
-1197840
-1199541
-1195094
-1193957
-1193650
-1189708
-1190277
-1192614
-1192917
-1191739
-1199400
-1200958
-1196772
-1195444
-1195217
-1191433
-1191855
-1194112
-1194567
-1193344
-1201289
-1202715
-1198429
-1197336
-1197043
-1193260
-1193513
-1195827
-1196247
-1195063
-1203010
-1204508
-1200236
-1199054
-1198635
-1194873
-1195336
-1197689
-1198088
-1196931
-1204675
-1206119
-1201877
-1200727
-1200381
-1196723
-1197048
-1199512
-1199977
-1198634
-1206458
-1207916
-1203718
-1202580
-1202284
-1198438
-1198712
-1201244
-1201530
-1200470
-1208134
-1209623
-1205533
-1204226
-1203889
-1200204
-1200459
-1202716
-1203138
-1201922
-1209881
-1211377
-1207164
-1205922
-1205689
-1201831
-1202215
-1204517
-1204636
-1203352
-1211416
-1212887
-1208634
-1207502
-1207201
-1203591
-1203853
-1206316
-1206606
-1205327
-1213349
-1214961
-1210694
-1209348
-1209154
-1205590
-1205965
-1207837
-1208310
-1207145
-1215082
-1216680
-1212559
-1211417
-1211153
-1207527
-1208034
-1210211
-1210562
-1209306
-1217399
-1218998
-1214884
-1213785
-1213568
-1210024
-1210490
-1212846
-1212882
-1211998
-1220091
-1221847
-1217877
-1216773
-1216579
-1213097
-1213601
-1215952
-1216428
-1215263
-1223461
-1224988
-1221113
-1219936
-1219892
-1216289
-1216855
-1219282
-1219638
-1218641
-1226695
-1228371
-1224213
-1223123
-1222686
-1219401
-1219834
-1222255
-1222695
-1221625
-1229786
-1231334
-1227209
-1226186
-1226047
-1222643
-1223048
-1225618
-1225981
-1224931
-1232949
-1234431
-1230285
-1229299
-1229269
-1225669
-1226053
-1228432
-1229220
-1227685
-1235334
-1236591
-1232035
-1230267
-1229216
-1224682
-1223852
-1224712
-1223328
-1220132
-1225912
-1224971
-1218138
-1214111
-1210919
-1204243
-1201731
-1201217
-1198668
-1194552
-1199745
-1198313
-1191725
-1188100
-1185766
-1179856
-1178228
-1178792
-1177241
-1174489
-1180855
-1180916
-1175522
-1173014
-1171575
-1167009
-1166267
-1167735
-1167215
-1165545
-1172739
-1173528
-1168847
-1167325
-1166846
-1162719
-1162906
-1165136
-1166313
-1164318
-1172064
-1173334
-1168945
-1167765
-1167658
-1164116
-1164529
-1167187
-1167570
-1166714
-1174653
-1176091
-1172360
-1171426
-1171365
-1167856
-1168458
-1171111
-1171786
-1170818
-1179009
-1180574
-1176642
-1175558
-1175699
-1172246
-1172728
-1175245
-1175931
-1175001
-1183029
-1184311
-1180358
-1179236
-1179144
-1175476
-1175772
-1178417
-1178851
-1178008
-1185726
-1186945
-1182799
-1181723
-1181312
-1177587
-1177903
-1180296
-1180560
-1180277
-1187302
-1188201
-1183840
-1182677
-1182359
-1178518
-1178725
-1180916
-1181198
-1180110
-1187570
-1188733
-1184454
-1183159
-1182780
-1179787
-1179373
-1181380
-1181574
-1180514
-1188216
-1189421
-1185213
-1184035
-1183792
-1179995
-1180292
-1182588
-1182905
-1181946
-1189956
-1191184
-1187167
-1185944
-1185852
-1182238
-1182795
-1185219
-1185692
-1184867
-1192674
-1194157
-1189879
-1188757
-1188480
-1185019
-1185317
-1187601
-1187848
-1186956
-1194805
-1196053
-1191582
-1190304
-1190140
-1186423
-1186529
-1188619
-1188831
-1187116
-1195168
-1196391
-1191915
-1190518
-1190018
-1186153
-1186251
-1188369
-1188438
-1187090
-1194771
-1195678
-1191362
-1189802
-1189413
-1185464
-1185567
-1187628
-1187492
-1186102
-1193925
-1194847
-1190388
-1189092
-1188644
-1184920
-1185069
-1187243
-1187129
-1185596
-1193664
-1194683
-1190268
-1188971
-1188667
-1184969
-1185223
-1187481
-1187561
-1186342
-1194323
-1195599
-1191207
-1189916
-1189855
-1186217
-1186167
-1188708
-1188924
-1187673
-1195896
-1197298
-1193068
-1191896
-1191652
-1188215
-1188621
-1190929
-1191108
-1190010
-1198189
-1199532
-1195453
-1194463
-1194191
-1190922
-1191294
-1193659
-1193975
-1192858
-1201044
-1202237
-1198286
-1197299
-1197250
-1193781
-1194183
-1196682
-1196891
-1195775
-1204016
-1205266
-1201182
-1200136
-1199922
-1196612
-1197237
-1199489
-1199806
-1198638
-1206806
-1208233
-1204016
-1203019
-1202902
-1199386
-1199912
-1202286
-1202549
-1201378
-1209481
-1210717
-1206622
-1205692
-1205441
-1202083
-1202480
-1204808
-1205077
-1203895
-1212046
-1213345
-1209036
-1208207
-1208086
-1204605
-1204913
-1207476
-1207528
-1206498
-1214889
-1215944
-1211952
-1210880
-1210539
-1206951
-1207442
-1209930
-1210056
-1209002
-1217076
-1218241
-1214274
-1213003
-1212811
-1209289
-1209693
-1212012
-1212278
-1211043
-1219179
-1220423
-1216177
-1215108
-1214977
-1211390
-1211530
-1214036
-1214224
-1213018
-1221072
-1222969
-1218253
-1217069
-1216665
-1213177
-1213380
-1215747
-1215995
-1214696
-1222788
-1224038
-1219855
-1218684
-1218485
-1214885
-1215297
-1217718
-1217575
-1217075
-1224590
-1225517
-1221421
-1220198
-1219912
-1216318
-1216696
-1218935
-1219087
-1217996
-1225925
-1226842
-1222943
-1221624
-1221466
-1217763
-1218242
-1220680
-1220749
-1219453
-1227479
-1228421
-1224252
-1223170
-1222913
-1219369
-1219834
-1222109
-1222196
-1221209
-1229156
-1230195
-1226130
-1224920
-1224609
-1221040
-1221476
-1223812
-1224161
-1223077
-1230981
-1231933
-1227978
-1226933
-1226693
-1223051
-1223486
-1225989
-1226250
-1225262
-1233152
-1234067
-1230176
-1229135
-1228931
-1225332
-1225828
-1228050
-1228202
-1227364
-1235385
-1236496
-1232557
-1231344
-1231214
-1227519
-1228160
-1230555
-1230840
-1229860
-1237840
-1238902
-1234972
-1233857
-1233717
-1230203
-1230726
-1233301
-1233590
-1232499
-1240638
-1241644
-1237710
-1236664
-1236511
-1233095
-1233649
-1235963
-1236374
-1235425
-1243617
-1244544
-1240678
-1239687
-1239563
-1236135
-1236649
-1239076
-1239273
-1238223
-1246305
-1247456
-1243537
-1242365
-1242327
-1238763
-1239352
-1241743
-1242007
-1240970
-1248946
-1249970
-1246011
-1245075
-1244936
-1241480
-1241909
-1244387
-1244624
-1243681
-1251826
-1252865
-1248887
-1247775
-1247568
-1244303
-1244833
-1247157
-1247094
-1246341
-1254670
-1255652
-1251779
-1250684
-1250423
-1246899
-1247337
-1249662
-1249648
-1248234
-1255797
-1255971
-1251186
-1249069
-1247462
-1242284
-1240924
-1240932
-1238647
-1234850
-1240110
-1238113
-1231040
-1226815
-1223587
-1217218
-1214709
-1214119
-1211669
-1207777
-1213328
-1211918
-1205688
-1202486
-1200245
-1194863
-1193497
-1194393
-1192924
-1190508
-1197316
-1197009
-1191765
-1189727
-1188804
-1184454
-1184092
-1185824
-1185337
-1183665
-1191416
-1191839
-1187487
-1186051
-1185806
-1182234
-1182622
-1184731
-1184840
-1183861
-1191918
-1192792
-1189099
-1188084
-1188080
-1184715
-1185415
-1187808
-1188002
-1187232
-1195564
-1196860
-1193125
-1192289
-1192376
-1189159
-1189888
-1192451
-1192820
-1192080
-1200508
-1201636
-1197972
-1197116
-1197188
-1193904
-1194726
-1197420
-1197586
-1196651
-1204998
-1206092
-1202240
-1201263
-1201054
-1197824
-1198415
-1200864
-1200985
-1199825
-1208003
-1209014
-1205127
-1204057
-1203907
-1200334
-1200859
-1203120
-1203055
-1201789
-1209808
-1210689
-1206679
-1205407
-1205047
-1201617
-1201952
-1204179
-1204096
-1202652
-1210810
-1211506
-1207429
-1206121
-1205888
-1202408
-1202809
-1205075
-1205000
-1203931
-1212099
-1212736
-1208888
-1207868
-1207840
-1204444
-1204939
-1207332
-1207393
-1206445
-1214628
-1215597
-1211835
-1210647
-1210562
-1207112
-1207663
-1210024
-1210284
-1209113
-1217302
-1217991
-1214221
-1212999
-1212719
-1209309
-1209738
-1211942
-1211712
-1210217
-1218221
-1218911
-1214730
-1213331
-1213015
-1209403
-1209705
-1211476
-1211201
-1209836
-1217574
-1217989
-1213849
-1212451
-1211877
-1208051
-1208335
-1210200
-1209852
-1208611
-1216315
-1216499
-1212452
-1210953
-1210372
-1206615
-1206885
-1208764
-1208489
-1207044
-1214916
-1215595
-1211467
-1210021
-1209742
-1206155
-1206416
-1208648
-1208449
-1207105
-1215165
-1215914
-1211878
-1210737
-1210418
-1207036
-1207383
-1209659
-1209769
-1208609
-1216859
-1217439
-1213687
-1212510
-1212299
-1209091
-1209700
-1212127
-1212058
-1211022
-1219309
-1219991
-1216285
-1215344
-1215153
-1211855
-1212586
-1214910
-1215065
-1214043
-1222382
-1222982
-1219315
-1218407
-1218474
-1215158
-1215972
-1218322
-1218567
-1217502
-1225869
-1226631
-1222968
-1221980
-1221762
-1218561
-1219372
-1221750
-1221904
-1220811
-1229162
-1229872
-1226301
-1225239
-1225141
-1221867
-1222570
-1224899
-1225157
-1224037
-1232266
-1233051
-1229341
-1228468
-1228257
-1224907
-1225568
-1227914
-1227989
-1227003
-1235185
-1235956
-1232243
-1231403
-1231257
-1227913
-1228596
-1230924
-1231155
-1230088
-1238356
-1238947
-1235228
-1234299
-1234158
-1230809
-1231445
-1233853
-1233996
-1232842
-1241088
-1241709
-1238597
-1237229
-1237024
-1233562
-1234339
-1236680
-1236678
-1235570
-1243954
-1244421
-1240736
-1239703
-1239438
-1236086
-1236835
-1239225
-1239156
-1238216
-1246362
-1246989
-1243327
-1242236
-1242043
-1238609
-1239120
-1241388
-1241254
-1240010
-1248251
-1249040
-1245299
-1244244
-1244076
-1240696
-1241405
-1243533
-1243337
-1242228
-1250419
-1250870
-1247258
-1246172
-1246066
-1242586
-1243065
-1245257
-1245199
-1244156
-1252366
-1252798
-1248846
-1247841
-1247831
-1244327
-1244771
-1247126
-1247201
-1246019
-1254016
-1254550
-1250848
-1249646
-1249523
-1246050
-1246685
-1249018
-1249213
-1247997
-1256151
-1256450
-1252754
-1251716
-1251590
-1248129
-1248825
-1250995
-1251129
-1250088
-1258057
-1258577
-1254938
-1253889
-1253730
-1250147
-1250758
-1253157
-1253253
-1252085
-1260246
-1260631
-1257035
-1256094
-1255854
-1252516
-1253146
-1255379
-1255409
-1254429
-1262417
-1262836
-1259346
-1258425
-1258193
-1254821
-1255471
-1257790
-1257774
-1256604
-1264759
-1265144
-1261683
-1260811
-1260622
-1257169
-1257971
-1260155
-1260029
-1259008
-1267300
-1267864
-1264119
-1263177
-1263159
-1259664
-1260329
-1262711
-1262664
-1261674
-1269821
-1270393
-1266661
-1265713
-1265608
-1262198
-1263032
-1265108
-1265182
-1264384
-1272438
-1272872
-1269438
-1268471
-1268330
-1264862
-1265645
-1267886
-1268102
-1267206
-1275325
-1275553
-1272285
-1271268
-1271285
-1267931
-1268835
-1271101
-1271311
-1270434
-1278536
-1278991
-1275651
-1274640
-1274634
-1271126
-1271855
-1274128
-1274111
-1272901
-1280887
-1281036
-1277153
-1275474
-1274401
-1270044
-1269327
-1269934
-1268170
-1265076
-1270530
-1268151
-1261706
-1257560
-1254054
-1247351
-1244745
-1243595
-1240344
-1236305
-1241314
-1238646
-1232256
-1228642
-1225778
-1220135
-1218507
-1218625
-1216290
-1213758
-1220217
-1219108
-1214270
-1211827
-1210455
-1205904
-1205665
-1207047
-1206307
-1204755
-1211977
-1211809
-1207829
-1206466
-1205759
-1201927
-1202589
-1204600
-1204399
-1203442
-1211464
-1211647
-1208256
-1207195
-1207123
-1203838
-1204802
-1207131
-1207391
-1207589
-1215065
-1215450
-1212137
-1211225
-1211362
-1208311
-1209294
-1211847
-1212161
-1211645
-1219979
-1220562
-1217396
-1216698
-1216942
-1213802
-1214756
-1217394
-1217655
-1216883
-1225155
-1225787
-1222542
-1221799
-1221837
-1218516
-1219759
-1221903
-1222003
-1221354
-1229511
-1229822
-1226535
-1225428
-1225687
-1222286
-1223042
-1225387
-1225582
-1224697
-1232504
-1232669
-1229204
-1228083
-1227843
-1224330
-1224942
-1227155
-1227294
-1226265
-1234035
-1234135
-1230598
-1229564
-1229286
-1225883
-1226549
-1228779
-1228835
-1228168
-1236036
-1236281
-1232948
-1231886
-1231821
-1228337
-1229220
-1231668
-1231739
-1231054
-1239136
-1239327
-1236000
-1235017
-1234961
-1231476
-1232127
-1234404
-1234494
-1233732
-1241463
-1241497
-1238100
-1236854
-1236499
-1232609
-1233149
-1235347
-1235092
-1234194
-1241540
-1241272
-1237571
-1236248
-1235578
-1231572
-1231906
-1233899
-1233713
-1232461
-1239613
-1239295
-1235304
-1234115
-1233323
-1229214
-1229589
-1231324
-1231022
-1229918
-1237251
-1236986
-1233099
-1231785
-1231288
-1227124
-1227575
-1229355
-1229221
-1228398
-1235851
-1235768
-1232105
-1230899
-1230381
-1226477
-1227213
-1229297
-1229324
-1228549
-1236152
-1235995
-1232675
-1231516
-1231129
-1227473
-1228421
-1230684
-1230915
-1229957
-1237761
-1237862
-1234379
-1233306
-1233195
-1229691
-1230522
-1232835
-1233018
-1232411
-1240251
-1240421
-1237059
-1236174
-1236068
-1232762
-1233724
-1236765
-1236616
-1235831
-1243561
-1243708
-1240418
-1239622
-1239625
-1236243
-1237177
-1239573
-1239758
-1239342
-1247191
-1247350
-1244160
-1243303
-1243187
-1239844
-1240840
-1243265
-1243478
-1242937
-1250849
-1250956
-1247640
-1246982
-1246928
-1243527
-1244453
-1246925
-1246962
-1246529
-1254359
-1254667
-1251429
-1250613
-1250427
-1246936
-1247839
-1250291
-1251332
-1250228
-1257847
-1257980
-1254627
-1253842
-1253709
-1250345
-1251282
-1253753
-1253998
-1253429
-1261217
-1261279
-1258186
-1257399
-1257221
-1253754
-1254593
-1256995
-1257092
-1256601
-1264507
-1264650
-1261421
-1260580
-1260432
-1256899
-1258011
-1260291
-1260367
-1259862
-1267652
-1267796
-1264494
-1263677
-1263469
-1260074
-1260906
-1263310
-1263530
-1262799
-1270687
-1270836
-1267364
-1266664
-1266504
-1263065
-1263912
-1266186
-1266425
-1265759
-1273540
-1273598
-1270310
-1269377
-1269307
-1265785
-1266735
-1269075
-1268453
-1276395
-1276350
-1273024
-1272068
-1271898
-1268504
-1269255
-1271427
-1271511
-1271868
-1278444
-1278554
-1275220
-1274250
-1273940
-1270380
-1271221
-1273532
-1273525
-1272581
-1280504
-1280530
-1277151
-1276162
-1275968
-1272524
-1273232
-1275522
-1275372
-1274753
-1282539
-1282509
-1279083
-1278146
-1277723
-1274275
-1275278
-1277496
-1277273
-1276541
-1284076
-1284117
-1280894
-1280023
-1279632
-1276266
-1281748
-1281446
-1277934
-1278792
-1281045
-1280883
-1280123
-1287921
-1287766
-1284495
-1283393
-1283266
-1279610
-1280548
-1282609
-1282643
-1282008
-1289611
-1289513
-1286006
-1285065
-1284766
-1281400
-1282266
-1284322
-1284150
-1283709
-1291107
-1291190
-1287895
-1287072
-1286821
-1283310
-1284168
-1286379
-1286417
-1285813
-1293512
-1293602
-1290379
-1289425
-1289333
-1285737
-1286623
-1288991
-1288799
-1288203
-1295918
-1296010
-1292590
-1291691
-1291294
-1287721
-1288163
-1289987
-1289300
-1287965
-1294687
-1293456
-1288645
-1286043
-1283532
-1277671
-1276088
-1275330
-1272117
-1268414
-1272764
-1269302
-1262652
-1258640
-1255247
-1248593
-1246471
-1245397
-1242682
-1239779
-1245862
-1242945
-1236725
-1234046
-1231871
-1226709
-1225960
-1226756
-1225282
-1223439
-1229981
-1228845
-1224479
-1222881
-1221706
-1217580
-1217961
-1219546
-1218898
-1217924
-1225418
-1225075
-1221535
-1220491
-1220047
-1216255
-1217302
-1219686
-1219588
-1219035
-1226804
-1226892
-1223732
-1222737
-1222931
-1220002
-1220998
-1223453
-1223607
-1223271
-1231400
-1231661
-1228730
-1228263
-1228448
-1225229
-1226507
-1228883
-1229273
-1229638
-1237287
-1237158
-1234357
-1233694
-1233789
-1230706
-1231938
-1234467
-1234474
-1234073
-1242883
-1242645
-1239301
-1238564
-1238551
-1235236
-1236455
-1238743
-1238718
-1238215
-1245983
-1246083
-1242841
-1242110
-1241718
-1238403
-1239403
-1241504
-1241195
-1240593
-1248497
-1248332
-1245010
-1244173
-1243840
-1240375
-1241218
-1243421
-1243118
-1242345
-1250340
-1250312
-1246976
-1246155
-1245920
-1242449
-1243554
-1245769
-1245599
-1245275
-1253118
-1254070
-1250262
-1249394
-1249223
-1246043
-1246947
-1249303
-1248972
-1248694
-1256562
-1256585
-1253383
-1252696
-1252452
-1249136
-1249989
-1252156
-1251793
-1250869
-1258419
-1258347
-1254790
-1253860
-1253151
-1249430
-1250123
-1251691
-1251258
-1250288
-1257707
-1257038
-1253543
-1251790
-1250950
-1246895
-1247582
-1249262
-1248490
-1247324
-1254686
-1254029
-1250132
-1248754
-1247843
-1244032
-1244391
-1245930
-1245245
-1244375
-1251419
-1250958
-1247206
-1245927
-1245111
-1242499
-1242037
-1243716
-1243520
-1242680
-1250043
-1249675
-1246203
-1245216
-1244730
-1241202
-1241828
-1243870
-1243559
-1242939
-1250468
-1250395
-1246999
-1246257
-1245796
-1242286
-1243192
-1245446
-1245314
-1244970
-1252475
-1253057
-1249355
-1248486
-1248116
-1244650
-1245643
-1248158
-1247925
-1247498
-1255006
-1255064
-1252014
-1251230
-1250945
-1247600
-1248753
-1251190
-1250974
-1250733
-1258263
-1258216
-1255087
-1254455
-1254232
-1250770
-1251926
-1254102
-1254182
-1253841
-1261435
-1261363
-1258207
-1257448
-1257229
-1253716
-1254903
-1257140
-1257242
-1256956
-1264352
-1264355
-1261121
-1260452
-1260308
-1256949
-1257855
-1260291
-1260154
-1259798
-1267461
-1267446
-1264150
-1263509
-1263294
-1259983
-1260947
-1263110
-1263302
-1262973
-1270306
-1270275
-1267015
-1265947
-1265976
-1262702
-1263790
-1266156
-1265960
-1265737
-1272978
-1273058
-1269910
-1269161
-1268833
-1265491
-1266289
-1269365
-1268891
-1268481
-1275808
-1275380
-1272413
-1271644
-1271413
-1267939
-1269028
-1271316
-1271137
-1270781
-1278289
-1278068
-1274981
-1274117
-1273951
-1270417
-1271361
-1273777
-1273518
-1273221
-1280784
-1280596
-1277527
-1276504
-1276184
-1272888
-1273773
-1275899
-1275715
-1275501
-1283049
-1282883
-1279582
-1278697
-1278488
-1274617
-1275697
-1277944
-1277943
-1277482
-1284879
-1284774
-1281608
-1280772
-1280361
-1276919
-1277870
-1279882
-1279827
-1279533
-1287032
-1286709
-1283254
-1282477
-1282082
-1278657
-1279521
-1281195
-1281483
-1281073
-1288520
-1288231
-1284817
-1284009
-1283606
-1280133
-1281105
-1283189
-1282985
-1282546
-1289918
-1289695
-1286412
-1285734
-1285128
-1281578
-1282529
-1284776
-1284568
-1284016
-1291075
-1290792
-1287856
-1287170
-1286846
-1283329
-1284270
-1286398
-1286277
-1285664
-1293190
-1293111
-1289624
-1288690
-1288372
-1284988
-1285844
-1287911
-1287659
-1287063
-1294337
-1293658
-1290210
-1288719
-1288000
-1283754
-1283927
-1284795
-1283397
-1281198
-1287968
-1284811
-1279243
-1275867
-1272944
-1266903
-1265086
-1264531
-1261849
-1258495
-1263560
-1260875
-1255336
-1252008
-1249316
-1243754
-1242638
-1242667
-1240655
-1238403
-1244472
-1243045
-1238321
-1236126
-1234598
-1230070
-1230039
-1231208
-1230107
-1228766
-1235669
-1234870
-1231067
-1229840
-1229163
-1225489
-1225957
-1227830
-1227359
-1226755
-1234369
-1234141
-1230983
-1229986
-1229821
-1226582
-1227495
-1229828
-1229974
-1229372
-1237220
-1237329
-1234428
-1233797
-1233782
-1230765
-1231538
-1234287
-1234379
-1234179
-1242375
-1242699
-1239742
-1239166
-1239255
-1236238
-1237545
-1240146
-1239915
-1247905
-1247754
-1245098
-1244704
-1244562
-1241502
-1242465
-1244883
-1244976
-1244607
-1252270
-1252492
-1249365
-1248642
-1248456
-1245273
-1246365
-1248562
-1248400
-1247970
-1255544
-1255460
-1252273
-1251564
-1251180
-1247918
-1248867
-1251120
-1250851
-1250156
-1257959
-1257775
-1254590
-1253846
-1253550
-1250283
-1251269
-1253326
-1253124
-1252789
-1260739
-1260649
-1257440
-1256854
-1256701
-1253840
-1254814
-1257114
-1256917
-1256428
-1264366
-1264580
-1261299
-1260864
-1260538
-1257503
-1258593
-1260590
-1260299
-1259537
-1267117
-1267191
-1263305
-1262526
-1262119
-1258751
-1259502
-1261137
-1260315
-1259413
-1266933
-1266429
-1262809
-1261538
-1260536
-1256742
-1257199
-1259191
-1257780
-1256397
-1263710
-1263024
-1259254
-1257819
-1256727
-1252851
-1253116
-1254789
-1253759
-1252549
-1259819
-1259250
-1255553
-1254073
-1253252
-1250550
-1250426
-1251848
-1251048
-1250152
-1257529
-1257126
-1253719
-1252577
-1251796
-1248366
-1249226
-1251025
-1250678
-1249860
-1257516
-1257248
-1253777
-1252889
-1252604
-1249197
-1250189
-1252243
-1251883
-1251190
-1258931
-1258831
-1255648
-1254905
-1254623
-1251469
-1252333
-1254585
-1254217
-1253318
-1261641
-1261405
-1258439
-1257737
-1257614
-1254379
-1255418
-1257592
-1257438
-1256894
-1264878
-1264889
-1261724
-1261127
-1260743
-1257690
-1258627
-1260912
-1260699
-1260161
-1267984
-1268199
-1264853
-1264242
-1264021
-1261012
-1261834
-1264087
-1263799
-1263210
-1271276
-1271259
-1268129
-1267419
-1267288
-1263960
-1265022
-1267110
-1267000
-1266244
-1273928
-1274040
-1271034
-1270429
-1269978
-1267013
-1267693
-1269992
-1269851
-1269298
-1277285
-1277264
-1274142
-1273358
-1272986
-1270073
-1270964
-1273205
-1272772
-1272270
-1280243
-1280286
-1277120
-1276313
-1276045
-1272958
-1273900
-1276015
-1275846
-1275118
-1283062
-1283162
-1280002
-1279224
-1279124
-1275867
-1276867
-1279081
-1278657
-1278119
-1286091
-1285894
-1282805
-1282033
-1281714
-1278787
-1279579
-1281664
-1281359
-1280783
-1288636
-1288616
-1286601
-1285070
-1284502
-1281149
-1282000
-1284126
-1283619
-1283113
-1291049
-1290903
-1287707
-1286850
-1286664
-1283554
-1284424
-1286342
-1285905
-1285262
-1293180
-1293024
-1289734
-1288898
-1288572
-1285347
-1286341
-1288402
-1287957
-1287222
-1294907
-1294692
-1291506
-1290702
-1290339
-1287045
-1287923
-1289908
-1289385
-1288741
-1296387
-1296269
-1292898
-1292071
-1291658
-1288382
-1289342
-1291293
-1290754
-1290030
-1297720
-1294397
-1293563
-1293207
-1289600
-1290610
-1292707
-1292270
-1291446
-1299379
-1299080
-1295784
-1294715
-1294357
-1290890
-1291679
-1293448
-1292746
-1291677
-1298634
-1298032
-1293876
-1291858
-1290120
-1285314
-1284177
-1283877
-1280927
-1277420
-1282598
-1279437
-1273404
-1269736
-1266528
-1260274
-1258372
-1257530
-1254380
-1251160
-1256387
-1254105
-1248326
-1245478
-1243116
-1238000
-1237061
-1237345
-1235481
-1233649
-1240071
-1238802
-1234335
-1232266
-1231118
-1226948
-1227051
-1228121
-1227204
-1226226
-1232981
-1232505
-1228760
-1227615
-1226704
-1223383
-1224218
-1226096
-1225521
-1224649
-1232505
-1232532
-1229080
-1228378
-1228066
-1224770
-1225743
-1227978
-1227730
-1227121
-1235122
-1235083
-1231908
-1231183
-1231066
-1228010
-1228953
-1231210
-1231053
-1230463
-1238382
-1238615
-1235322
-1234647
-1234950
-1231430
-1232346
-1234424
-1233986
-1233347
-1241190
-1241067
-1237892
-1236990
-1236746
-1233444
-1234344
-1236431
-1235992
-1235150
-1242748
-1242641
-1239288
-1238240
-1237762
-1234394
-1235110
-1237075
-1236425
-1235490
-1243120
-1243043
-1239373
-1238287
-1237931
-1234375
-1235042
-1236833
-1236275
-1235446
-1242996
-1242725
-1239321
-1238233
-1237720
-1234217
-1234841
-1236846
-1236294
-1235495
-1243170
-1242978
-1239677
-1238532
-1238056
-1234762
-1235601
-1237843
-1237396
-1236623
-1244530
-1244115
-1241085
-1240350
-1240076
-1236853
-1237783
-1239939
-1239406
-1239020
-1246782
-1246666
-1243406
-1242595
-1242159
-1238846
-1239694
-1241704
-1241172
-1240744
-1248081
-1247826
-1244464
-1243442
-1242995
-1239363
-1240066
-1241952
-1241453
-1240559
-1248119
-1247582
-1244029
-1242920
-1242351
-1238577
-1239178
-1241094
-1240517
-1239720
-1247035
-1246367
-1242850
-1241712
-1240935
-1237270
-1237941
-1239775
-1239217
-1238157
-1245490
-1245133
-1241754
-1240704
-1240097
-1236321
-1237128
-1238986
-1238314
-1237595
-1245113
-1244761
-1241301
-1240441
-1239889
-1236479
-1237090
-1239251
-1238861
-1238147
-1245797
-1245687
-1242252
-1241440
-1240955
-1237672
-1238465
-1240554
-1240444
-1239677
-1247320
-1247118
-1243794
-1243107
-1242832
-1239592
-1240440
-1242453
-1242355
-1241823
-1249272
-1249458
-1246224
-1245405
-1245002
-1241744
-1242690
-1244933
-1244595
-1243964
-1251627
-1251756
-1248601
-1247669
-1247424
-1244277
-1245260
-1247334
-1247074
-1246309
-1254093
-1253977
-1250778
-1249909
-1249563
-1246391
-1247307
-1249524
-1249081
-1248382
-1256268
-1256420
-1253195
-1252333
-1252021
-1248900
-1249809
-1251496
-1251334
-1250770
-1258453
-1258370
-1255303
-1254369
-1254165
-1250960
-1251797
-1253851
-1253562
-1252821
-1260842
-1260674
-1257421
-1256509
-1256215
-1252945
-1253791
-1256046
-1255727
-1254987
-1262920
-1262771
-1259295
-1258444
-1258264
-1254932
-1255806
-1257899
-1257386
-1256747
-1264601
-1264489
-1261305
-1260446
-1259972
-1256670
-1257439
-1259610
-1259225
-1258407
-1266249
-1266274
-1262782
-1262069
-1261574
-1258269
-1259268
-1261126
-1260786
-1260066
-1267769
-1267761
-1264390
-1263508
-1263164
-1259725
-1260672
-1262839
-1262398
-1262698
-1269672
-1269250
-1265896
-1264906
-1264465
-1261236
-1262111
-1264093
-1263617
-1262804
-1270528
-1270502
-1267024
-1266035
-1265781
-1262408
-1263164
-1265327
-1264980
-1264034
-1271823
-1271609
-1268227
-1267416
-1267087
-1263687
-1264497
-1266625
-1266263
-1265344
-1273187
-1273248
-1269810
-1268857
-1268455
-1265246
-1265927
-1268081
-1267588
-1266885
-1274685
-1274777
-1271251
-1270238
-1269905
-1266397
-1267171
-1269068
-1268551
-1267374
-1274851
-1274169
-1270260
-1268614
-1267195
-1262608
-1262013
-1262461
-1260382
-1257668
-1263330
-1261174
-1255456
-1252465
-1250080
-1244557
-1243073
-1243039
-1240450
-1237685
-1243274
-1241390
-1236016
-1233322
-1231251
-1226460
-1225712
-1226424
-1224634
-1222526
-1229148
-1228146
-1223647
-1221640
-1220298
-1216152
-1216191
-1217686
-1216641
-1215289
-1222589
-1222074
-1218134
-1216962
-1216402
-1212839
-1213308
-1215189
-1214639
-1213829
-1221394
-1221397
-1218080
-1217129
-1216843
-1213468
-1214415
-1216433
-1216140
-1215369
-1223369
-1223366
-1220079
-1219223
-1219044
-1215729
-1216621
-1218965
-1218613
-1217824
-1225584
-1225646
-1222282
-1221471
-1221210
-1217775
-1218582
-1220707
-1220417
-1219457
-1227184
-1227233
-1223776
-1222789
-1222427
-1218921
-1219395
-1221568
-1221055
-1220069
-1227781
-1227497
-1223916
-1222993
-1222529
-1218953
-1219449
-1221506
-1220952
-1219782
-1227371
-1227176
-1223539
-1222430
-1222833
-1218787
-1219098
-1220824
-1220361
-1219276
-1226965
-1226662
-1222960
-1222008
-1221631
-1217997
-1218488
-1220443
-1219962
-1219061
-1226783
-1226813
-1223255
-1222307
-1221925
-1218612
-1219305
-1221566
-1221301
-1220344
-1228182
-1228242
-1224980
-1224236
-1223980
-1220624
-1221447
-1223426
-1223239
-1222409
-1230220
-1230221
-1226846
-1225960
-1225514
-1222186
-1222815
-1224900
-1224426
-1223514
-1231195
-1231125
-1227530
-1226008
-1225893
-1222358
-1223050
-1224836
-1224162
-1222997
-1230627
-1230397
-1226863
-1225679
-1224991
-1221254
-1221409
-1223519
-1222985
-1221798
-1229381
-1229117
-1225346
-1224105
-1223549
-1220015
-1220503
-1222248
-1221791
-1220637
-1228369
-1228129
-1224354
-1223333
-1222818
-1219265
-1219852
-1221724
-1221443
-1220330
-1228120
-1228065
-1224470
-1223297
-1222877
-1219482
-1220226
-1222319
-1221905
-1220822
-1228735
-1228774
-1225264
-1224285
-1223874
-1220552
-1221154
-1223328
-1223119
-1222065
-1230144
-1230262
-1226740
-1225576
-1225356
-1222068
-1222866
-1224900
-1224595
-1223673
-1231711
-1231887
-1228448
-1227498
-1227309
-1223870
-1224738
-1226785
-1226504
-1225553
-1233626
-1233826
-1230435
-1229426
-1229187
-1225694
-1226500
-1228653
-1228531
-1227596
-1235490
-1235646
-1232263
-1231419
-1230986
-1227711
-1228511
-1230595
-1230323
-1229273
-1237325
-1237604
-1234170
-1233189
-1232956
-1229582
-1230445
-1232421
-1232217
-1231268
-1239078
-1239442
-1235864
-1234991
-1234730
-1231324
-1232090
-1234170
-1234059
-1233081
-1241077
-1241183
-1237669
-1236800
-1236476
-1233077
-1233881
-1235917
-1235790
-1234851
-1242653
-1242794
-1239430
-1238215
-1237857
-1234634
-1235138
-1237270
-1237179
-1236277
-1243876
-1244092
-1240627
-1239717
-1239274
-1235836
-1236422
-1238572
-1238399
-1237472
-1245387
-1245547
-1241812
-1240871
-1240571
-1237118
-1237743
-1239859
-1239762
-1238836
-1246515
-1246609
-1243047
-1242038
-1241763
-1239343
-1239328
-1241052
-1240868
-1239823
-1247696
-1247815
-1244246
-1243140
-1242935
-1239325
-1240054
-1241983
-1241857
-1240808
-1248658
-1248722
-1245101
-1244207
-1243856
-1240355
-1241049
-1243098
-1242838
-1241814
-1249803
-1250028
-1246396
-1245303
-1245163
-1241578
-1242242
-1244238
-1244119
-1243102
-1251095
-1251274
-1247599
-1246479
-1246381
-1242777
-1243470
-1245588
-1245553
-1244485
-1252321
-1252754
-1249072
-1248100
-1247868
-1244397
-1245030
-1247168
-1247298
-1246271
-1254004
-1254320
-1250866
-1249845
-1249549
-1246155
-1246797
-1248790
-1248924
-1247828
-1255701
-1256059
-1252418
-1251544
-1251309
-1247806
-1248360
-1250405
-1250206
-1248969
-1256911
-1256799
-1252957
-1251435
-1250491
-1246479
-1245949
-1247060
-1245635
-1243183
-1249626
-1248225
-1242953
-1239856
-1237802
-1232120
-1230707
-1230764
-1228792
-1225663
-1231780
-1230113
-1224674
-1221716
-1219713
-1214738
-1213685
-1214360
-1212868
-1210439
-1217130
-1216222
-1211288
-1209289
-1208050
-1203473
-1203256
-1204618
-1203870
-1202218
-1209460
-1209380
-1205143
-1203679
-1203056
-1199077
-1199466
-1201282
-1201334
-1200220
-1207957
-1208265
-1204554
-1203373
-1203198
-1199501
-1200251
-1202560
-1202697
-1201882
-1209689
-1210256
-1206689
-1205691
-1205472
-1201996
-1202686
-1205031
-1205349
-1204518
-1212324
-1212924
-1209178
-1208175
-1208068
-1204499
-1204920
-1207173
-1207413
-1206585
-1214240
-1214623
-1211047
-1209716
-1209360
-1205692
-1206145
-1208394
-1208445
-1207521
-1215116
-1215413
-1211711
-1210401
-1209984
-1205982
-1206396
-1208647
-1208606
-1207453
-1215118
-1215456
-1211531
-1210184
-1209745
-1205853
-1206126
-1208256
-1208494
-1207243
-1214811
-1215168
-1211271
-1209898
-1209435
-1205611
-1206038
-1208388
-1208405
-1207539
-1215206
-1215657
-1211896
-1210815
-1210626
-1206903
-1207408
-1209909
-1210174
-1209289
-1217114
-1217730
-1214016
-1212863
-1212717
-1209015
-1209621
-1211889
-1212308
-1211439
-1219155
-1219534
-1215570
-1214461
-1214222
-1210145
-1210543
-1212864
-1212771
-1211853
-1219377
-1219307
-1215611
-1214286
-1213857
-1209633
-1209976
-1212028
-1211921
-1210679
-1218215
-1218389
-1214295
-1212825
-1212324
-1208322
-1207915
-1210358
-1210218
-1208935
-1216356
-1216729
-1212527
-1211211
-1210696
-1206640
-1206910
-1208974
-1208983
-1207895
-1215422
-1215711
-1211767
-1210355
-1210109
-1206160
-1206333
-1208620
-1208944
-1207842
-1215500
-1216014
-1212250
-1210963
-1210701
-1206827
-1207378
-1209656
-1209889
-1208924
-1216666
-1217332
-1213376
-1212311
-1212092
-1208346
-1208680
-1211106
-1211371
-1210380
-1218235
-1218931
-1215066
-1213971
-1213862
-1210060
-1210599
-1212947
-1213339
-1212492
-1220214
-1221105
-1217140
-1215988
-1215829
-1212142
-1212481
-1214998
-1215237
-1214491
-1222060
-1222944
-1219057
-1217821
-1217591
-1214033
-1214226
-1216727
-1216901
-1216070
-1223779
-1224734
-1220719
-1219571
-1219450
-1215763
-1216082
-1218526
-1218562
-1217898
-1225658
-1226627
-1222614
-1221513
-1221191
-1217487
-1217914
-1220387
-1220545
-1219525
-1227272
-1228147
-1224277
-1223031
-1222792
-1219242
-1219456
-1221899
-1222146
-1221197
-1229050
-1229916
-1225701
-1224502
-1224288
-1220542
-1221724
-1223378
-1223620
-1222598
-1230361
-1231191
-1227086
-1225889
-1225648
-1221797
-1221992
-1224409
-1224726
-1223617
-1231493
-1232271
-1228347
-1226958
-1226692
-1222988
-1223188
-1225522
-1225782
-1224636
-1232446
-1233434
-1229302
-1227992
-1227746
-1223918
-1224207
-1226425
-1226834
-1225806
-1233459
-1234284
-1230259
-1228868
-1228632
-1224710
-1225019
-1227385
-1227711
-1226661
-1234372
-1235287
-1230986
-1229736
-1229449
-1225533
-1225870
-1228114
-1228540
-1227487
-1235236
-1236186
-1232085
-1230713
-1230400
-1226624
-1226839
-1229182
-1229514
-1228373
-1236037
-1237214
-1233069
-1231736
-1231487
-1227558
-1227781
-1230213
-1230345
-1229451
-1237123
-1238283
-1234037
-1232900
-1232536
-1228735
-1228919
-1231223
-1231596
-1230424
-1238233
-1239639
-1235357
-1234085
-1233905
-1230214
-1230480
-1232990
-1233051
-1232196
-1239934
-1241031
-1236779
-1235656
-1235384
-1231482
-1231636
-1234145
-1234486
-1233390
-1240998
-1241847
-1237482
-1235915
-1235133
-1230908
-1230582
-1232260
-1231652
-1229807
-1236276
-1236162
-1230515
-1227849
-1225937
-1220376
-1218918
-1219618
-1218189
-1215452
-1221454
-1220897
-1215155
-1212169
-1210370
-1205148
-1203950
-1204830
-1203743
-1201593
-1208116
-1208172
-1202877
-1200628
-1199238
-1194614
-1193935
-1195501
-1195154
-1193590
-1200885
-1201639
-1197029
-1195324
-1194777
-1190609
-1190523
-1192561
-1192762
-1191616
-1199291
-1200541
-1196362
-1195198
-1194739
-1190863
-1191168
-1193673
-1194091
-1193069
-1200879
-1202347
-1198274
-1197131
-1196874
-1193243
-1193541
-1196078
-1196322
-1195678
-1203577
-1204744
-1200633
-1199468
-1199181
-1195325
-1195583
-1198067
-1198282
-1197363
-1204941
-1206352
-1201995
-1200570
-1200382
-1196453
-1196522
-1198582
-1199022
-1197807
-1205497
-1206580
-1202180
-1200906
-1200455
-1196366
-1196526
-1198694
-1198800
-1197505
-1205061
-1206083
-1201756
-1200298
-1199754
-1195735
-1195868
-1197977
-1198245
-1196889
-1204458
-1205606
-1201163
-1199837
-1199457
-1195412
-1195460
-1197753
-1198064
-1197011
-1204640
-1206018
-1201707
-1200647
-1200354
-1196333
-1196619
-1199016
-1199450
-1198606
-1206124
-1207839
-1203637
-1202409
-1202169
-1198620
-1198780
-1201297
-1201683
-1200763
-1208457
-1210713
-1205890
-1204503
-1203971
-1199875
-1200291
-1202618
-1203063
-1201805
-1209405
-1210667
-1206388
-1204914
-1204412
-1200349
-1200361
-1202590
-1202738
-1201789
-1209199
-1210381
-1205812
-1204209
-1203871
-1199605
-1199725
-1201797
-1202085
-1200884
-1208119
-1209419
-1204863
-1203887
-1203004
-1198780
-1198716
-1201027
-1201359
-1200098
-1207427
-1208795
-1204351
-1202873
-1202494
-1198373
-1198458
-1200722
-1201463
-1200162
-1207741
-1209160
-1204812
-1203493
-1203104
-1199002
-1199077
-1201565
-1202060
-1201057
-1208452
-1210015
-1205864
-1204478
-1204074
-1200099
-1201632
-1203163
-1203572
-1202453
-1210012
-1211290
-1207080
-1205801
-1205596
-1201512
-1201965
-1204283
-1204936
-1204039
-1211537
-1212910
-1208754
-1207449
-1207168
-1203153
-1203328
-1205885
-1206433
-1205369
-1212995
-1214444
-1210226
-1208910
-1208670
-1204640
-1204933
-1207339
-1207687
-1207014
-1214581
-1215995
-1211840
-1210662
-1210340
-1206199
-1206390
-1208743
-1209543
-1208561
-1216125
-1217710
-1213476
-1212174
-1211930
-1208763
-1208373
-1210670
-1211290
-1210265
-1217721
-1219343
-1215167
-1213918
-1213515
-1209587
-1209791
-1212390
-1212889
-1212061
-1219430
-1221147
-1216850
-1215511
-1215306
-1211212
-1211458
-1213968
-1214539
-1213678
-1221007
-1222548
-1218352
-1216992
-1216399
-1212546
-1212800
-1215404
-1216034
-1215108
-1222455
-1224107
-1219789
-1218469
-1218213
-1214080
-1214158
-1216795
-1217406
-1216341
-1223795
-1225292
-1221055
-1219827
-1219429
-1215277
-1215498
-1217863
-1218659
-1217555
-1224961
-1226731
-1222384
-1221035
-1220716
-1216543
-1216656
-1219329
-1219910
-1218886
-1226251
-1227776
-1223576
-1223121
-1222153
-1217982
-1218017
-1220439
-1221302
-1220258
-1227552
-1229312
-1225061
-1223590
-1223365
-1219226
-1219495
-1221800
-1222574
-1221641
-1228873
-1230679
-1226464
-1225142
-1224858
-1220759
-1220756
-1223319
-1224006
-1222960
-1230235
-1232044
-1227810
-1226514
-1226143
-1222052
-1222386
-1224892
-1225568
-1224378
-1231923
-1233683
-1229289
-1227913
-1227640
-1223632
-1223782
-1226421
-1226999
-1225827
-1233070
-1235109
-1230934
-1229563
-1229286
-1225263
-1225417
-1227856
-1228612
-1227518
-1234935
-1236799
-1232436
-1231079
-1230924
-1226752
-1226925
-1229529
-1230195
-1229122
-1236311
-1238496
-1234199
-1232954
-1232725
-1228490
-1228808
-1231239
-1231930
-1230794
-1238289
-1240218
-1235982
-1234769
-1234638
-1230457
-1230671
-1233321
-1234050
-1233024
-1240161
-1242299
-1238211
-1236817
-1236506
-1232497
-1232622
-1235120
-1235743
-1234582
-1241628
-1243349
-1238738
-1236965
-1236156
-1231351
-1230690
-1232209
-1231789
-1229445
-1235304
-1235590
-1229619
-1226573
-1224407
-1218502
-1216723
-1217167
-1216039
-1213250
-1218481
-1218805
-1212860
-1209903
-1208065
-1202334
-1200950
-1201928
-1201236
-1199069
-1204991
-1206062
-1200695
-1198232
-1196945
-1191989
-1191324
-1193152
-1193293
-1191601
-1198242
-1200002
-1195377
-1193689
-1193144
-1188619
-1188608
-1190984
-1191619
-1190598
-1197404
-1199681
-1195545
-1194222
-1194016
-1189915
-1190144
-1192528
-1193346
-1192378
-1200067
-1201956
-1197533
-1196382
-1196162
-1192209
-1192415
-1194824
-1195720
-1194729
-1201534
-1203839
-1199627
-1198275
-1197855
-1193860
-1193941
-1196205
-1196932
-1195976
-1202481
-1205005
-1200724
-1199048
-1198603
-1194318
-1194290
-1196435
-1197119
-1195851
-1202345
-1204862
-1200217
-1198729
-1198177
-1193746
-1193562
-1195809
-1196281
-1195123
-1201556
-1203994
-1199473
-1197968
-1197414
-1192960
-1192734
-1195064
-1195555
-1194316
-1200605
-1203207
-1198704
-1197312
-1196754
-1192587
-1192475
-1194780
-1195450
-1194518
-1200970
-1203476
-1199137
-1197836
-1197502
-1193501
-1193658
-1195984
-1197021
-1195987
-1202601
-1205450
-1201305
-1200825
-1200255
-1196049
-1196168
-1198597
-1199644
-1198792
-1205162
-1208010
-1203790
-1202576
-1202282
-1198208
-1198437
-1200718
-1201317
-1200610
-1206687
-1209621
-1205438
-1204127
-1203567
-1199337
-1199169
-1201493
-1202224
-1200986
-1206961
-1210066
-1205645
-1203999
-1203518
-1199343
-1199147
-1201416
-1201743
-1200540
-1206366
-1209572
-1205160
-1203445
-1202962
-1198772
-1198580
-1200784
-1201346
-1200223
-1206104
-1209160
-1204615
-1203197
-1202603
-1198489
-1198518
-1200642
-1201311
-1200264
-1206141
-1209166
-1204838
-1203564
-1203147
-1199107
-1199140
-1201206
-1201747
-1200777
-1206517
-1209927
-1205707
-1204300
-1204016
-1200157
-1200084
-1202313
-1202891
-1202089
-1207668
-1211158
-1207094
-1205888
-1205361
-1201367
-1201402
-1203684
-1204325
-1203445
-1209257
-1212734
-1208396
-1207131
-1206824
-1202975
-1203052
-1205206
-1206024
-1205200
-1210819
-1214332
-1210319
-1208804
-1208401
-1204504
-1204520
-1206741
-1207472
-1206638
-1211994
-1215746
-1211704
-1210400
-1210076
-1206039
-1205915
-1208189
-1208955
-1208169
-1213088
-1217137
-1212941
-1211792
-1211054
-1207554
-1207388
-1209711
-1210441
-1209592
-1214981
-1218689
-1214528
-1213338
-1212950
-1209070
-1208854
-1211103
-1211968
-1211243
-1216436
-1220108
-1216071
-1214713
-1214381
-1210961
-1210474
-1212833
-1213645
-1212718
-1217739
-1221586
-1217538
-1216207
-1215947
-1212094
-1212060
-1214109
-1214825
-1214019
-1219161
-1222963
-1219014
-1217721
-1217248
-1213593
-1213349
-1215501
-1217377
-1215899
-1220673
-1224478
-1220458
-1219073
-1218703
-1215167
-1214742
-1216869
-1217350
-1216850
-1221629
-1225728
-1221758
-1220221
-1220094
-1216465
-1216140
-1218306
-1219096
-1218033
-1222946
-1227117
-1223041
-1221703
-1221373
-1217742
-1217369
-1219384
-1220392
-1219374
-1224187
-1228314
-1224185
-1222932
-1222452
-1219091
-1218700
-1220954
-1221782
-1220682
-1225482
-1229861
-1226051
-1224644
-1224219
-1220646
-1220253
-1222554
-1224353
-1222523
-1227187
-1231338
-1227612
-1226027
-1225671
-1222546
-1221831
-1224207
-1225065
-1224099
-1228855
-1233075
-1229176
-1227787
-1227595
-1224338
-1223649
-1225882
-1226803
-1225604
-1230428
-1234917
-1230851
-1229465
-1229094
-1225995
-1225255
-1227566
-1228353
-1227157
-1231594
-1236316
-1232446
-1231010
-1230728
-1227561
-1226731
-1229159
-1229904
-1228745
-1233198
-1237523
-1233950
-1232479
-1232380
-1228967
-1228287
-1230583
-1231494
-1230269
-1234784
-1239499
-1235566
-1234199
-1233850
-1230754
-1229840
-1232001
-1233181
-1232040
-1236442
-1241344
-1237425
-1235834
-1235506
-1232580
-1231873
-1233956
-1235108
-1233760
-1238067
-1243094
-1239195
-1237748
-1237515
-1234580
-1233535
-1235889
-1236936
-1235440
-1239814
-1244409
-1240667
-1238831
-1238312
-1234973
-1233514
-1235084
-1235280
-1233161
-1236373
-1241579
-1235598
-1232354
-1230545
-1225843
-1223117
-1223527
-1222792
-1219650
-1222050
-1225366
-1219855
-1216542
-1214535
-1210092
-1207452
-1207922
-1207532
-1205057
-1207618
-1211416
-1206576
-1203808
-1202425
-1198645
-1196700
-1197942
-1198180
-1196306
-1199466
-1204078
-1199805
-1197415
-1197164
-1194123
-1192527
-1194520
-1195502
-1193988
-1197895
-1202950
-1199398
-1197763
-1197383
-1194707
-1193511
-1195832
-1197186
-1195985
-1199870
-1205209
-1201646
-1200348
-1200028
-1197672
-1196432
-1198971
-1200238
-1199252
-1202955
-1208290
-1204894
-1203551
-1203100
-1200701
-1199173
-1201478
-1202625
-1201569
-1205108
-1210231
-1207009
-1205229
-1204754
-1202259
-1200733
-1202816
-1203973
-1202605
-1205912
-1211025
-1207574
-1205677
-1205230
-1202730
-1200985
-1203066
-1204037
-1202692
-1205871
-1211072
-1207437
-1205634
-1204975
-1202414
-1200591
-1202608
-1203735
-1202441
-1205491
-1210539
-1207158
-1205414
-1204945
-1202428
-1200777
-1202722
-1204054
-1202835
-1205704
-1211161
-1207975
-1206217
-1205957
-1203777
-1202213
-1204195
-1205600
-1204342
-1207462
-1213271
-1210221
-1208463
-1208127
-1206222
-1204651
-1206837
-1208002
-1206721
-1209608
-1215519
-1212484
-1210674
-1210322
-1208048
-1210555
-1216256
-1212897
-1211070
-1210571
-1208472
-1206364
-1208161
-1209111
-1207510
-1209989
-1215528
-1212375
-1210336
-1209850
-1207675
-1205633
-1207214
-1208116
-1206900
-1204749
-1206533
-1207458
-1206045
-1208299
-1214033
-1211187
-1209170
-1208944
-1207138
-1205143
-1206782
-1207863
-1206581
-1208755
-1214837
-1212205
-1210094
-1209780
-1208171
-1206271
-1208063
-1209348
-1207900
-1209955
-1216378
-1213787
-1211616
-1211387
-1209974
-1208036
-1209675
-1211221
-1210106
-1211940
-1218199
-1215535
-1213555
-1213254
-1212205
-1209967
-1211805
-1213092
-1211813
-1213621
-1219880
-1217421
-1215562
-1215189
-1214231
-1211976
-1213806
-1214919
-1213608
-1215352
-1221852
-1219157
-1217184
-1216941
-1216171
-1214839
-1215840
-1216931
-1215411
-1217108
-1223466
-1221267
-1219159
-1218593
-1217875
-1215579
-1217200
-1218590
-1217062
-1218434
-1224981
-1222888
-1220755
-1220555
-1219739
-1217366
-1218854
-1220095
-1218673
-1220060
-1226699
-1224734
-1222391
-1222232
-1221519
-1218860
-1220579
-1221877
-1220248
-1221327
-1228164
-1226373
-1224125
-1223851
-1223207
-1220549
-1222001
-1223295
-1222001
-1222988
-1229757
-1227769
-1225566
-1225193
-1224663
-1221808
-1223434
-1224801
-1223541
-1224469
-1231043
-1229088
-1226789
-1226435
-1225667
-1222997
-1224399
-1225974
-1224713
-1225389
-1232273
-1230338
-1228001
-1227655
-1227310
-1224317
-1225491
-1227050
-1225770
-1226497
-1233446
-1231574
-1229118
-1228820
-1228493
-1225617
-1226991
-1228397
-1226872
-1227616
-1234476
-1232828
-1230351
-1229894
-1229941
-1226787
-1228138
-1229510
-1228185
-1228945
-1235952
-1234293
-1231749
-1231344
-1231447
-1228360
-1229566
-1230934
-1229595
-1230448
-1237390
-1235840
-1233318
-1232904
-1233039
-1229762
-1231187
-1232597
-1231360
-1231992
-1238874
-1237283
-1234930
-1234583
-1234903
-1231375
-1232700
-1234183
-1232806
-1233425
-1240507
-1239134
-1236482
-1236168
-1236695
-1233250
-1234372
-1235762
-1234581
-1235193
-1242331
-1241030
-1238450
-1237850
-1238416
-1234945
-1236147
-1237296
-1236210
-1236908
-1244414
-1242732
-1240041
-1239626
-1240370
-1236793
-1237987
-1239427
-1238231
-1238912
-1246112
-1245378
-1242167
-1241307
-1242489
-1238312
-1239907
-1241300
-1240063
-1240854
-1248234
-1246764
-1244044
-1243704
-1244707
-1240884
-1241812
-1243460
-1242196
-1242847
-1250234
-1249032
-1246263
-1245778
-1246795
-1242819
-1244053
-1245415
-1244229
-1244919
-1252404
-1251057
-1248028
-1247575
-1248404
-1244227
-1245135
-1246248
-1244644
-1244734
-1251697
-1249441
-1245682
-1244129
-1243761
-1238324
-1237871
-1237561
-1234676
-1233564
-1238891
-1235659
-1231446
-1228578
-1227634
-1221541
-1220660
-1220099
-1217256
-1216217
-1221863
-1218874
-1214280
-1212414
-1211955
-1206574
-1206348
-1206610
-1204246
-1204012
-1210555
-1208187
-1204462
-1203099
-1203416
-1198774
-1199275
-1200065
-1198638
-1199033
-1206062
-1204630
-1201371
-1200692
-1201585
-1197423
-1198310
-1199802
-1198786
-1199246
-1206805
-1205833
-1202654
-1202203
-1203478
-1199386
-1200286
-1201907
-1201016
-1201840
-1209598
-1208664
-1205624
-1205096
-1206081
-1202063
-1203244
-1204622
-1203709
-1204431
-1212006
-1210866
-1207641
-1207132
-1208181
-1203934
-1204844
-1206117
-1205087
-1205662
-1213123
-1211917
-1208447
-1207787
-1208640
-1204226
-1204990
-1206443
-1205058
-1205623
-1213004
-1211873
-1208251
-1207479
-1208294
-1203800
-1204574
-1205928
-1204585
-1205027
-1212270
-1211205
-1207492
-1206636
-1207365
-1203020
-1203782
-1204968
-1203520
-1204117
-1211732
-1210756
-1207030
-1206397
-1207062
-1202852
-1203322
-1205152
-1204210
-1204721
-1212324
-1211458
-1207865
-1207333
-1208258
-1204211
-1205036
-1206734
-1205940
-1206561
-1214192
-1213514
-1210162
-1209709
-1210632
-1206597
-1207439
-1209263
-1208298
-1208807
-1216428
-1215935
-1212259
-1211591
-1212412
-1208420
-1209230
-1210843
-1209637
-1210286
-1217790
-1217013
-1213324
-1212444
-1213115
-1208932
-1209523
-1211166
-1209975
-1210222
-1217346
-1216694
-1212922
-1212173
-1212597
-1208561
-1208923
-1210701
-1209377
-1209681
-1217016
-1216210
-1212382
-1211448
-1212171
-1207941
-1208517
-1210299
-1209057
-1209330
-1216582
-1216148
-1212198
-1211547
-1212147
-1208027
-1208665
-1210628
-1209572
-1209942
-1217005
-1216621
-1212885
-1212290
-1212902
-1208897
-1209568
-1211540
-1210619
-1210978
-1218306
-1217969
-1214202
-1213638
-1214351
-1210364
-1211000
-1213233
-1212294
-1212578
-1220025
-1219665
-1215935
-1215298
-1216056
-1212099
-1212797
-1215078
-1214180
-1214493
-1221860
-1221578
-1217951
-1217431
-1218038
-1214114
-1214756
-1217132
-1216257
-1216566
-1223932
-1223782
-1219936
-1219288
-1219954
-1216098
-1216895
-1219172
-1218070
-1218282
-1225815
-1225574
-1221892
-1221277
-1221924
-1217998
-1218668
-1221152
-1220088
-1220213
-1227655
-1227570
-1223563
-1223035
-1223675
-1219813
-1220541
-1222897
-1221847
-1222081
-1229397
-1229281
-1225449
-1224786
-1225456
-1221729
-1222837
-1224852
-1223764
-1223801
-1231116
-1231039
-1227023
-1226377
-1227172
-1223360
-1224089
-1226497
-1225385
-1225298
-1232531
-1232503
-1228691
-1227959
-1228608
-1224464
-1225409
-1227972
-1226797
-1226770
-1234158
-1234109
-1230026
-1229480
-1229960
-1226359
-1226752
-1229415
-1228215
-1228222
-1235379
-1235337
-1231364
-1230862
-1231275
-1227644
-1228238
-1230738
-1229607
-1229497
-1236512
-1236674
-1232724
-1232132
-1232485
-1228821
-1229486
-1232205
-1230848
-1230635
-1237965
-1237844
-1234055
-1233543
-1233781
-1230192
-1230716
-1233356
-1232180
-1232025
-1239386
-1239403
-1235507
-1234731
-1235337
-1231445
-1232026
-1234718
-1233683
-1233558
-1240900
-1240882
-1237150
-1236292
-1236809
-1233180
-1233750
-1236384
-1235332
-1235042
-1242396
-1242437
-1239451
-1238248
-1238477
-1234746
-1235287
-1237972
-1236903
-1237289
-1244433
-1244168
-1240540
-1239676
-1240022
-1236304
-1236913
-1239460
-1238645
-1238317
-1246044
-1245983
-1242308
-1241642
-1241925
-1238149
-1238811
-1241313
-1240305
-1240030
-1247731
-1247828
-1244074
-1243302
-1243747
-1239957
-1240690
-1243101
-1242186
-1241957
-1249879
-1249672
-1246047
-1245291
-1245693
-1242107
-1242818
-1245137
-1244219
-1244012
-1251744
-1251685
-1247876
-1247272
-1247742
-1244007
-1244610
-1247060
-1246257
-1245913
-1253624
-1253753
-1250045
-1249288
-1249597
-1246006
-1246720
-1249020
-1248126
-1247690
-1255589
-1255651
-1251886
-1251314
-1251654
-1248191
-1248794
-1251248
-1250329
-1249926
-1257858
-1257962
-1254234
-1253588
-1254032
-1250354
-1250996
-1253329
-1252507
-1252066
-1260080
-1260223
-1256518
-1255750
-1255905
-1252349
-1252991
-1255088
-1253965
-1253150
-1260778
-1260282
-1256055
-1254574
-1253825
-1249295
-1248815
-1249420
-1246868
-1244641
-1250480
-1248526
-1242775
-1239901
-1238022
-1232356
-1230692
-1230810
-1227682
-1225208
-1231103
-1229328
-1223626
-1221100
-1219775
-1214540
-1213510
-1214491
-1212121
-1210186
-1216969
-1215755
-1211077
-1209352
-1208579
-1204228
-1204038
-1205696
-1204294
-1203164
-1210536
-1211144
-1207404
-1205465
-1205210
-1201376
-1201820
-1204079
-1202969
-1202351
-1210267
-1210159
-1206700
-1205918
-1206150
-1202739
-1203551
-1206033
-1205084
-1204587
-1212799
-1212776
-1209288
-1208629
-1208886
-1205599
-1206408
-1208828
-1207932
-1207269
-1215305
-1215610
-1212080
-1211324
-1211293
-1207933
-1208712
-1210956
-1209807
-1209072
-1217332
-1217122
-1213503
-1212692
-1212614
-1209075
-1209489
-1211492
-1210592
-1209715
-1217551
-1217246
-1213570
-1212600
-1212541
-1208820
-1209365
-1211435
-1210174
-1209318
-1217057
-1216731
-1213019
-1211945
-1211825
-1208332
-1208809
-1210724
-1209616
-1208554
-1216380
-1216041
-1212395
-1211586
-1211653
-1208234
-1208531
-1210452
-1209520
-1208597
-1216155
-1216098
-1212795
-1212157
-1212012
-1208541
-1209438
-1211519
-1210666
-1209807
-1218025
-1218300
-1214689
-1213914
-1213634
-1210672
-1211480
-1213946
-1213087
-1212531
-1220683
-1220391
-1217019
-1216155
-1216032
-1212766
-1213572
-1215706
-1215138
-1213923
-1221939
-1221694
-1218259
-1217290
-1217171
-1213803
-1214294
-1216017
-1215170
-1214109
-1222258
-1221836
-1218232
-1217333
-1216987
-1213556
-1214298
-1216139
-1214939
-1213741
-1221658
-1221307
-1217683
-1217739
-1216858
-1213204
-1213587
-1215596
-1214589
-1213292
-1221447
-1221132
-1217492
-1216601
-1216311
-1212915
-1213759
-1215739
-1214626
-1213430
-1221665
-1221407
-1217926
-1216967
-1216956
-1213554
-1214474
-1216563
-1215658
-1214346
-1222685
-1222484
-1219166
-1218195
-1218147
-1214970
-1215807
-1217826
-1216928
-1215869
-1224033
-1223954
-1220704
-1219839
-1219807
-1216662
-1217615
-1219627
-1218725
-1217574
-1225835
-1225730
-1222429
-1221767
-1221830
-1218461
-1219313
-1221394
-1220474
-1219584
-1227904
-1227663
-1225286
-1223850
-1223778
-1220563
-1221387
-1223461
-1222558
-1221456
-1229746
-1229610
-1226441
-1225560
-1225550
-1222332
-1223120
-1225242
-1224480
-1223396
-1231540
-1231561
-1228250
-1227569
-1227466
-1224257
-1225159
-1227540
-1226899
-1225358
-1233576
-1233299
-1229978
-1229277
-1229212
-1226185
-1226828
-1228999
-1228059
-1226971
-1235203
-1234894
-1231577
-1231043
-1231223
-1227681
-1228446
-1230482
-1229734
-1228662
-1236887
-1236796
-1233840
-1233026
-1232556
-1229175
-1230030
-1231834
-1231168
-1230254
-1238404
-1238140
-1234807
-1233995
-1233932
-1231313
-1231681
-1233626
-1232966
-1231742
-1239783
-1239519
-1236287
-1235411
-1235217
-1231908
-1232718
-1234850
-1234080
-1232928
-1241107
-1240851
-1237460
-1236548
-1236320
-1233070
-1233915
-1236148
-1235327
-1234160
-1243222
-1241999
-1238661
-1237903
-1237563
-1234086
-1235008
-1237113
-1236492
-1235379
-1243563
-1243289
-1239937
-1239131
-1238835
-1235559
-1236551
-1238483
-1238025
-1236863
-1244948
-1244664
-1241282
-1240392
-1240277
-1237087
-1237918
-1240148
-1239597
-1238416
-1246410
-1246275
-1242999
-1242169
-1241864
-1238660
-1239499
-1241660
-1241072
-1239973
-1248094
-1247924
-1244786
-1243886
-1243793
-1240455
-1241253
-1243473
-1242996
-1241920
-1250053
-1249837
-1246616
-1245628
-1245652
-1242308
-1243284
-1245327
-1244731
-1243725
-1251881
-1251641
-1248511
-1247717
-1247526
-1244251
-1245355
-1247298
-1246779
-1245719
-1253766
-1253493
-1250739
-1249802
-1249392
-1246018
-1247033
-1249397
-1248661
-1247822
-1256182
-1255591
-1252501
-1251680
-1251556
-1248231
-1249092
-1251366
-1251119
-1250198
-1257938
-1258451
-1254566
-1253662
-1253362
-1250073
-1251131
-1253430
-1252677
-1251762
-1259813
-1259690
-1256520
-1255650
-1255574
-1252204
-1253293
-1255426
-1254800
-1253852
-1262096
-1261827
-1258647
-1257868
-1257820
-1254576
-1255703
-1257867
-1257348
-1256416
-1264529
-1264215
-1261228
-1260403
-1260208
-1256892
-1258088
-1260244
-1259741
-1258951
-1266826
-1266689
-1263593
-1262857
-1262525
-1259329
-1260259
-1262323
-1261673
-1260694
-1268504
-1268102
-1264417
-1263479
-1262688
-1258691
-1258846
-1259676
-1258054
-1255827
-1262024
-1260229
-1255034
-1252235
-1250025
-1244586
-1243141
-1242958
-1240341
-1237335
-1242664
-1240520
-1235253
-1232326
-1230216
-1225164
-1224105
-1224552
-1222333
-1220152
-1226097
-1224910
-1220373
-1218435
-1216905
-1212564
-1212495
-1213683
-1212366
-1211001
-1217956
-1217210
-1213360
-1212224
-1211668
-1208009
-1208599
-1210450
-1209903
-1209022
-1216514
-1216262
-1213013
-1212318
-1212070
-1208696
-1209701
-1211772
-1211375
-1210872
-1218664
-1218846
-1215778
-1215162
-1214982
-1211808
-1213157
-1215460
-1215024
-1214396
-1221966
-1222250
-1219163
-1218532
-1218706
-1215718
-1216343
-1218523
-1218122
-1217378
-1225025
-1224952
-1221833
-1221308
-1220856
-1217765
-1218394
-1220553
-1219928
-1219032
-1226746
-1227000
-1223379
-1222319
-1221774
-1218555
-1219090
-1221075
-1220409
-1219543
-1227464
-1227006
-1223305
-1222184
-1221676
-1218373
-1218883
-1220714
-1220293
-1219341
-1226699
-1226480
-1223050
-1222105
-1221663
-1218213
-1218864
-1220839
-1220450
-1219701
-1227070
-1227068
-1223642
-1222709
-1222327
-1219177
-1220086
-1222082
-1221733
-1221068
-1228879
-1228890
-1225655
-1224823
-1224621
-1221489
-1222234
-1224452
-1223905
-1223441
-1231011
-1231047
-1227864
-1226977
-1226476
-1223261
-1223948
-1225952
-1225372
-1224567
-1232036
-1232060
-1228682
-1227541
-1226944
-1223714
-1224408
-1226079
-1225458
-1224471
-1231765
-1231613
-1228000
-1226934
-1226275
-1223006
-1223456
-1225310
-1224518
-1223569
-1231018
-1230699
-1227058
-1225904
-1225398
-1221891
-1222463
-1224436
-1223791
-1223018
-1230393
-1230135
-1226650
-1225716
-1225185
-1221883
-1222553
-1224417
-1223989
-1223309
-1230782
-1230727
-1227211
-1226255
-1225914
-1222686
-1223393
-1225347
-1225162
-1224510
-1231921
-1232069
-1228591
-1227829
-1227435
-1224150
-1224978
-1227156
-1226961
-1226694
-1233928
-1233922
-1230383
-1229614
-1229253
-1225843
-1226765
-1229120
-1229184
-1228390
-1235734
-1235959
-1232536
-1231665
-1231336
-1228083
-1229154
-1231081
-1230573
-1230208
-1237749
-1237994
-1234620
-1233867
-1233675
-1230302
-1230850
-1232896
-1232451
-1239806
-1239817
-1236438
-1235873
-1235274
-1231930
-1232639
-1235025
-1234874
-1234159
-1241767
-1241881
-1238333
-1237501
-1236992
-1233569
-1234394
-1236763
-1236702
-1236210
-1243680
-1243826
-1240379
-1239442
-1239112
-1235657
-1236357
-1238662
-1238574
-1238025
-1245352
-1245586
-1242300
-1241279
-1240896
-1237139
-1238035
-1240410
-1240388
-1239676
-1247350
-1247393
-1243950
-1242944
-1242530
-1239056
-1239690
-1241969
-1241923
-1241361
-1248924
-1248858
-1245439
-1244536
-1244040
-1240539
-1241143
-1243538
-1243564
-1242895
-1250344
-1250472
-1246843
-1246007
-1245574
-1241857
-1242616
-1244529
-1244804
-1244198
-1251724
-1251718
-1248237
-1247152
-1246932
-1243090
-1243810
-1246255
-1246178
-1245469
-1252833
-1253099
-1249711
-1248805
-1248301
-1244681
-1245326
-1247549
-1248528
-1247169
-1254523
-1254576
-1250976
-1249991
-1249752
-1246083
-1246457
-1248953
-1248906
-1248384
-1255829
-1256109
-1252445
-1251612
-1251238
-1247559
-1248147
-1250323
-1250365
-1249883
-1257440
-1257582
-1253712
-1252952
-1252637
-1248959
-1249756
-1251964
-1252092
-1251359
-1258920
-1259238
-1255570
-1254580
-1254187
-1250565
-1251144
-1253646
-1253694
-1253020
-1260558
-1260914
-1257263
-1256294
-1255892
-1252296
-1252989
-1255157
-1255331
-1255554
-1262585
-1262600
-1259022
-1257945
-1257581
-1253900
-1254592
-1256824
-1257031
-1256421
-1264495
-1260902
-1259688
-1255807
-1256353
-1258683
-1258966
-1258391
-1265919
-1266283
-1261715
-1258371
-1260631
-1260897
-1260256
-1267914
-1268422
-1265146
-1263787
-1263489
-1259795
-1262822
-1262966
-1262039
-1270349
-1271027
-1267071
-1266068
-1265866
-1262103
-1262652
-1265271
-1265459
-1264692
-1272539
-1273233
-1269609
-1268513
-1268299
-1264587
-1265108
-1267487
-1267480
-1266573
-1274086
-1274335
-1270236
-1268573
-1267719
-1263282
-1262664
-1263832
-1262687
-1260456
-1266545
-1265199
-1259292
-1256085
-1253502
-1247685
-1245907
-1246077
-1244068
-1241519
-1246709
-1245127
-1239319
-1236188
-1233951
-1228519
-1227129
-1227947
-1226581
-1224494
-1230902
-1230232
-1225116
-1222725
-1221578
-1216806
-1216301
-1217900
-1217468
-1215946
-1223258
-1223264
-1218960
-1217248
-1216530
-1212605
-1212755
-1214930
-1215095
-1214068
-1221924
-1222564
-1218471
-1217339
-1217099
-1213379
-1213775
-1216443
-1216673
-1215946
-1223966
-1224816
-1220908
-1219870
-1219777
-1216226
-1216608
-1219214
-1219790
-1218967
-1226901
-1227736
-1223692
-1222643
-1222587
-1218752
-1219161
-1222476
-1222156
-1221224
-1229057
-1230208
-1225979
-1224577
-1224111
-1220209
-1220555
-1222874
-1223203
-1222171
-1229807
-1230587
-1226436
-1224923
-1224521
-1220383
-1220465
-1222713
-1222948
-1221982
-1229510
-1230263
-1225891
-1224500
-1223894
-1219885
-1219964
-1222319
-1222494
-1221218
-1228838
-1229624
-1225297
-1223847
-1223376
-1219860
-1219585
-1221698
-1221959
-1220887
-1228166
-1229272
-1225235
-1223881
-1223376
-1219645
-1219927
-1222484
-1222763
-1221881
-1229741
-1230840
-1226819
-1225525
-1225265
-1221668
-1222123
-1224587
-1225047
-1224169
-1231961
-1233383
-1228894
-1228007
-1227868
-1224099
-1225164
-1227036
-1227314
-1226217
-1233905
-1235160
-1231675
-1229762
-1229155
-1225276
-1225387
-1227694
-1227891
-1226746
-1234578
-1235740
-1231299
-1229731
-1229312
-1225273
-1225310
-1227642
-1227710
-1226495
-1234140
-1235010
-1230541
-1229065
-1228496
-1224599
-1224536
-1226732
-1226797
-1225884
-1233363
-1234459
-1229912
-1228488
-1228132
-1224118
-1224241
-1226527
-1226736
-1225845
-1233264
-1234598
-1229937
-1228710
-1228321
-1224378
-1224583
-1226748
-1227154
-1226296
-1234098
-1235396
-1231067
-1229720
-1229398
-1225711
-1225861
-1228392
-1228721
-1227664
-1235521
-1236954
-1232619
-1231318
-1231127
-1227411
-1227523
-1230056
-1230643
-1229613
-1237429
-1238891
-1234807
-1233392
-1233197
-1229506
-1229651
-1232192
-1232677
-1231684
-1239476
-1241024
-1236647
-1235572
-1235466
-1231675
-1231864
-1234258
-1234714
-1233880
-1241529
-1243227
-1238865
-1237681
-1237065
-1233570
-1233624
-1236318
-1236788
-1235853
-1243672
-1245051
-1240750
-1239493
-1239330
-1235500
-1235623
-1238225
-1238793
-1237813
-1245641
-1247026
-1242710
-1241368
-1241165
-1237423
-1237691
-1240046
-1240756
-1239783
-1247439
-1249065
-1244771
-1243489
-1243197
-1239284
-1239522
-1242095
-1242599
-1241446
-1249189
-1250769
-1246643
-1245377
-1245143
-1241156
-1241402
-1244007
-1244531
-1243668
-1251299
-1252893
-1248612
-1247345
-1247191
-1243145
-1243301
-1245865
-1246404
-1245441
-1252997
-1254511
-1250288
-1248921
-1248724
-1244786
-1245092
-1247629
-1248314
-1247310
-1254694
-1256129
-1251902
-1250674
-1250448
-1246389
-1246489
-1248949
-1249645
-1248667
-1256169
-1257646
-1253436
-1252073
-1251807
-1247832
-1248141
-1250315
-1251026
-1250046
-1257685
-1259141
-1254776
-1253467
-1253336
-1249363
-1249479
-1251910
-1252565
-1251449
-1259059
-1260594
-1256201
-1254953
-1254820
-1250755
-1251041
-1253490
-1254205
-1253030
-1260503
-1262113
-1258063
-1256466
-1256311
-1252531
-1252703
-1255203
-1255930
-1254866
-1262516
-1263932
-1259727
-1258518
-1258493
-1254355
-1254537
-1257083
-1257665
-1256476
-1264226
-1265752
-1261730
-1260345
-1260107
-1256034
-1256369
-1258808
-1259436
-1258240
-1266037
-1267751
-1263514
-1262135
-1261929
-1257848
-1258303
-1260858
-1261367
-1260295
-1267822
-1269573
-1265367
-1264003
-1263846
-1259864
-1260806
-1262941
-1263434
-1262183
-1269813
-1271600
-1267400
-1266170
-1265894
-1261885
-1262168
-1264781
-1265369
-1264341
-1271852
-1273702
-1269454
-1268209
-1268130
-1264062
-1264272
-1266938
-1267253
-1266666
-1274140
-1275974
-1271842
-1270642
-1270368
-1266468
-1266908
-1269399
-1270201
-1269246
-1276736
-1278632
-1274340
-1273264
-1273142
-1268911
-1269178
-1271627
-1272492
-1271045
-1278323
-1280053
-1275246
-1273453
-1272506
-1267477
-1266758
-1268033
-1267296
-1264609
-1270106
-1269749
-1263286
-1259856
-1257379
-1250918
-1248669
-1248821
-1247356
-1243937
-1248972
-1248660
-1242228
-1238954
-1236914
-1230787
-1229236
-1230182
-1229368
-1226992
-1232738
-1233304
-1227773
-1225357
-1224042
-1218970
-1218218
-1220396
-1220202
-1218452
-1225119
-1226571
-1221702
-1219928
-1219431
-1214997
-1214753
-1216974
-1217702
-1216545
-1223651
-1225583
-1221140
-1219998
-1219964
-1215718
-1216008
-1218661
-1219580
-1218596
-1225907
-1227945
-1223855
-1222763
-1222657
-1218656
-1219031
-1221460
-1222570
-1221788
-1229123
-1231353
-1227177
-1225847
-1225819
-1221778
-1222039
-1224550
-1225471
-1224463
-1231443
-1233780
-1229462
-1228257
-1227849
-1223808
-1223922
-1226312
-1227059
-1225957
-1232800
-1234937
-1230639
-1229184
-1228629
-1224406
-1224445
-1226600
-1227428
-1226126
-1232740
-1234918
-1230649
-1228985
-1228512
-1224068
-1224273
-1226532
-1227036
-1225585
-1232189
-1234509
-1230061
-1228661
-1228017
-1223834
-1223957
-1226183
-1226704
-1225439
-1232035
-1234529
-1230104
-1228905
-1228544
-1224377
-1224525
-1226896
-1227641
-1226694
-1232880
-1235777
-1231763
-1230532
-1230491
-1226462
-1226715
-1229086
-1230091
-1229075
-1235785
-1238421
-1234238
-1233022
-1232878
-1228442
-1229139
-1231360
-1232280
-1231151
-1237417
-1240110
-1235855
-1234478
-1234262
-1230018
-1230127
-1232391
-1232803
-1231473
-1237586
-1240103
-1235967
-1234344
-1233946
-1229376
-1229858
-1231793
-1232382
-1231050
-1236963
-1239422
-1235143
-1233757
-1233159
-1228931
-1228902
-1230985
-1231512
-1230308
-1236159
-1238609
-1234490
-1233164
-1232703
-1228521
-1228518
-1230521
-1231290
-1229999
-1235772
-1238537
-1234431
-1233380
-1232813
-1228769
-1228813
-1231147
-1231938
-1230891
-1236485
-1239320
-1235434
-1234141
-1233946
-1229968
-1230264
-1232296
-1233198
-1232405
-1238026
-1240962
-1237259
-1236080
-1235832
-1232044
-1232248
-1234262
-1235098
-1234160
-1239792
-1243079
-1239255
-1238039
-1237865
-1234051
-1234196
-1236305
-1237278
-1236546
-1241853
-1245097
-1241429
-1240319
-1239890
-1236269
-1236457
-1238586
-1239493
-1238740
-1243986
-1247361
-1243560
-1242520
-1242295
-1238622
-1238563
-1240644
-1241693
-1240816
-1246128
-1249402
-1245575
-1244488
-1244436
-1240676
-1240947
-1242939
-1243847
-1242930
-1248061
-1251463
-1247858
-1246847
-1246515
-1242885
-1242869
-1244920
-1246047
-1245003
-1249995
-1253487
-1249992
-1248792
-1248481
-1245028
-1245079
-1247229
-1248073
-1247303
-1252044
-1255549
-1251921
-1250650
-1250524
-1246965
-1246998
-1248982
-1249843
-1248925
-1253865
-1257444
-1253857
-1252426
-1252237
-1248827
-1248755
-1250822
-1251689
-1250709
-1255394
-1259188
-1255341
-1254236
-1254033
-1250398
-1250138
-1252195
-1253281
-1252367
-1257043
-1260799
-1257086
-1255770
-1255637
-1252056
-1251824
-1253863
-1255077
-1253991
-1258534
-1262337
-1258637
-1257469
-1257171
-1253816
-1253291
-1255521
-1256568
-1255582
-1260110
-1263873
-1260083
-1258813
-1258710
-1255277
-1254778
-1256782
-1257868
-1256907
-1261290
-1265320
-1261579
-1260189
-1260090
-1256916
-1256377
-1258453
-1259606
-1258471
-1262728
-1266979
-1263256
-1261940
-1261868
-1258526
-1257831
-1260106
-1261292
-1260145
-1264318
-1268585
-1265085
-1263671
-1263621
-1260452
-1259563
-1261724
-1262966
-1261838
-1266078
-1270360
-1266981
-1265477
-1265277
-1262298
-1261458
-1263684
-1264764
-1263723
-1267822
-1272416
-1268748
-1267320
-1267168
-1264186
-1263388
-1265512
-1266700
-1265702
-1269703
-1274262
-1270629
-1269299
-1269091
-1266287
-1265428
-1267577
-1268796
-1267801
-1271653
-1276302
-1272820
-1271469
-1270974
-1268472
-1267528
-1269673
-1271060
-1269859
-1273825
-1278496
-1275075
-1273857
-1273545
-1270954
-1269921
-1272087
-1273592
-1272392
-1276091
-1280884
-1277644
-1276115
-1275854
-1273217
-1271942
-1273988
-1275129
-1273767
-1277165
-1281674
-1277711
-1275414
-1274273
-1270669
-1268258
-1268844
-1268400
-1265440
-1267038
-1269945
-1264156
-1260395
-1257911
-1253160
-1249628
-1249360
-1248174
-1244843
-1246341
-1249497
-1243980
-1240411
-1238391
-1234322
-1231048
-1231763
-1231657
-1229145
-1231115
-1235207
-1230781
-1228167
-1226898
-1223647
-1221343
-1222568
-1223285
-1221561
-1224295
-1229162
-1225382
-1223394
-1222828
-1220250
-1218417
-1220328
-1221621
-1220369
-1223556
-1228865
-1225539
-1223927
-1223571
-1221406
-1219987
-1222162
-1223551
-1222454
-1225728
-1231386
-1228453
-1226855
-1226731
-1224895
-1223549
-1225566
-1227191
-1226174
-1229259
-1234972
-1232090
-1230439
-1230328
-1228656
-1226957
-1229178
-1230539
-1229517
-1232228
-1237950
-1234847
-1233288
-1233125
-1231191
-1229434
-1231312
-1232620
-1231455
-1234032
-1239711
-1236700
-1234839
-1234510
-1232548
-1230441
-1232480
-1233780
-1232243
-1234617
-1240319
-1237215
-1235330
-1234938
-1234064
-1231151
-1232758
-1234011
-1232699
-1235060
-1240633
-1237794
-1235264
-1235203
-1233735
-1231515
-1233343
-1234809
-1233602
-1235808
-1241802
-1238984
-1237294
-1237033
-1235740
-1234256
-1235609
-1237025
-1235838
-1238153
-1244156
-1241578
-1239695
-1239582
-1238192
-1236030
-1237992
-1239260
-1238022
-1240231
-1246177
-1243475
-1241377
-1241048
-1239835
-1237399
-1238880
-1240091
-1238665
-1240291
-1246279
-1243544
-1241235
-1240838
-1239266
-1236609
-1238111
-1239215
-1237702
-1239195
-1244931
-1242248
-1239649
-1239235
-1237931
-1235122
-1236410
-1237533
-1236010
-1237326
-1243144
-1240629
-1238196
-1237792
-1236542
-1233662
-1235126
-1236374
-1235009
-1236273
-1242307
-1240025
-1237536
-1237211
-1236213
-1233550
-1235041
-1236424
-1235263
-1236337
-1242755
-1240642
-1238242
-1237912
-1237172
-1234554
-1236129
-1237735
-1236406
-1237631
-1244157
-1242101
-1239833
-1239639
-1239167
-1236357
-1237932
-1239668
-1238540
-1239614
-1246301
-1244265
-1242098
-1241953
-1241601
-1238757
-1240334
-1242083
-1241016
-1241896
-1248693
-1246754
-1244531
-1244306
-1244216
-1241318
-1242761
-1244317
-1243294
-1244003
-1250989
-1249286
-1246899
-1246665
-1246719
-1243696
-1245154
-1246700
-1245599
-1246408
-1253417
-1251749
-1249230
-1249061
-1249193
-1246070
-1247539
-1249200
-1248009
-1248741
-1255698
-1254036
-1251617
-1251519
-1251620
-1248503
-1249926
-1251587
-1250534
-1251155
-1258047
-1256646
-1254159
-1253946
-1254128
-1250836
-1252187
-1253725
-1252802
-1253465
-1260575
-1259078
-1256560
-1256330
-1256682
-1253132
-1254590
-1256190
-1256058
-1256063
-1262793
-1261150
-1258706
-1258346
-1258891
-1255518
-1256657
-1258057
-1256952
-1257592
-1264672
-1263342
-1260913
-1260612
-1261065
-1257314
-1258625
-1260022
-1258925
-1259667
-1266909
-1265496
-1262717
-1262244
-1262791
-1259163
-1260374
-1262033
-1260775
-1261415
-1268518
-1266904
-1264167
-1263411
-1264277
-1260540
-1261739
-1263521
-1262281
-1263031
-1269999
-1268478
-1265725
-1265259
-1266122
-1262170
-1263281
-1264918
-1263790
-1264401
-1271255
-1269647
-1267236
-1266716
-1267629
-1263480
-1264690
-1266128
-1265097
-1265699
-1272999
-1271552
-1268733
-1268320
-1269246
-1264975
-1266154
-1267670
-1266754
-1267512
-1274597
-1273205
-1270159
-1269660
-1270645
-1266452
-1267498
-1269251
-1268193
-1268913
-1275885
-1274707
-1271761
-1271287
-1271949
-1267986
-1269140
-1270713
-1269730
-1270335
-1277548
-1276193
-1273384
-1272536
-1273699
-1269408
-1270600
-1272184
-1271323
-1271951
-1279149
-1277973
-1274812
-1274384
-1275132
-1271019
-1272270
-1274007
-1273140
-1273700
-1280936
-1279920
-1276836
-1276374
-1277191
-1272954
-1274269
-1276028
-1275279
-1275849
-1283001
-1282022
-1278900
-1278413
-1279304
-1275005
-1275880
-1277454
-1276549
-1276810
-1283459
-1281911
-1278086
-1276617
-1276163
-1270488
-1270100
-1269935
-1267393
-1265954
-1271083
-1267615
-1262257
-1259186
-1257578
-1250957
-1249607
-1249111
-1245890
-1244415
-1249753
-1246496
-1241237
-1238996
-1237838
-1231969
-1231545
-1231579
-1229533
-1228842
-1234865
-1232699
-1228488
-1226797
-1226762
-1221526
-1222051
-1222874
-1221599
-1221536
-1228451
-1227069
-1223279
-1222301
-1222825
-1218186
-1218952
-1220890
-1219920
-1220587
-1227649
-1226747
-1223296
-1222694
-1223452
-1219452
-1220498
-1222559
-1221765
-1222485
-1229893
-1229135
-1226020
-1225606
-1226415
-1222215
-1223459
-1225532
-1224987
-1225573
-1233045
-1232208
-1228830
-1228301
-1229802
-1225226
-1226032
-1227803
-1227198
-1227911
-1235190
-1234495
-1231001
-1230365
-1230861
-1226600
-1227399
-1229296
-1228566
-1229065
-1236092
-1235320
-1231695
-1230937
-1231347
-1227153
-1227752
-1229496
-1228692
-1229002
-1236041
-1235363
-1231675
-1230715
-1231323
-1226717
-1227268
-1229365
-1228326
-1228628
-1235661
-1234962
-1231201
-1230460
-1230917
-1226643
-1227233
-1229101
-1228403
-1228782
-1235811
-1235310
-1231542
-1230820
-1231554
-1227340
-1228127
-1230169
-1229450
-1229911
-1237207
-1236933
-1233334
-1232757
-1233410
-1229364
-1230018
-1232420
-1231682
-1232140
-1239464
-1239210
-1235653
-1235083
-1235659
-1231503
-1232246
-1234529
-1233845
-1234086
-1241107
-1240761
-1237023
-1236309
-1236705
-1232673
-1233278
-1235351
-1234263
-1234492
-1241668
-1241050
-1237105
-1236147
-1236558
-1232421
-1232903
-1235062
-1233961
-1234100
-1241098
-1240432
-1236407
-1235657
-1236067
-1231929
-1232349
-1234398
-1233254
-1233278
-1240229
-1239901
-1235819
-1235082
-1235575
-1231532
-1231890
-1234250
-1233057
-1233192
-1240465
-1239888
-1235897
-1235276
-1235747
-1231828
-1232375
-1234720
-1233742
-1233923
-1241237
-1240846
-1236941
-1236378
-1237104
-1233078
-1233714
-1236172
-1235253
-1235515
-1242642
-1242497
-1238836
-1238209
-1238876
-1235201
-1235717
-1238199
-1237190
-1237529
-1244775
-1244582
-1240855
-1240343
-1240921
-1236973
-1237860
-1240495
-1239422
-1239493
-1246962
-1246816
-1242939
-1242489
-1243089
-1239684
-1240229
-1242734
-1241601
-1241729
-1249010
-1249067
-1245281
-1244709
-1245354
-1241690
-1242361
-1245063
-1243827
-1243877
-1251148
-1251261
-1247209
-1246912
-1247369
-1243759
-1244449
-1247313
-1246020
-1245914
-1253404
-1253339
-1249677
-1249029
-1249541
-1245788
-1246440
-1249159
-1247982
-1247867
-1255460
-1255449
-1251797
-1251023
-1251591
-1247926
-1248443
-1251026
-1249941
-1250002
-1257504
-1257416
-1253738
-1253007
-1253535
-1249777
-1250361
-1252861
-1251845
-1251657
-1259274
-1259260
-1255693
-1254754
-1255268
-1251631
-1252174
-1254922
-1253789
-1253538
-1261164
-1260989
-1257246
-1256501
-1257096
-1253284
-1253977
-1256477
-1255505
-1255268
-1262787
-1262620
-1259038
-1258129
-1258607
-1254846
-1255496
-1257892
-1257015
-1256792
-1264298
-1264214
-1260537
-1259795
-1260283
-1256659
-1257185
-1259500
-1258659
-1258228
-1266005
-1265860
-1262020
-1261321
-1261689
-1258069
-1258752
-1261059
-1260227
-1259866
-1267570
-1267409
-1263902
-1262978
-1263493
-1259811
-1260494
-1262826
-1262024
-1261741
-1269381
-1269385
-1265619
-1264840
-1265255
-1261522
-1261897
-1264487
-1263813
-1263329
-1270614
-1270812
-1267355
-1266485
-1266842
-1263100
-1263766
-1266331
-1265587
-1265241
-1272936
-1272799
-1269294
-1268454
-1268803
-1265140
-1266327
-1268892
-1267654
-1267205
-1274677
-1274725
-1271028
-1270237
-1270688
-1267016
-1267738
-1270011
-1269282
-1268872
-1276503
-1276482
-1273039
-1272169
-1272342
-1268723
-1269672
-1272012
-1271255
-1270746
-1278675
-1278454
-1275108
-1274236
-1274455
-1271074
-1271811
-1274282
-1273512
-1273074
-1280899
-1280809
-1277223
-1276505
-1276765
-1273427
-1274219
-1276435
-1275795
-1275142
-1283011
-1282965
-1279230
-1278416
-1278286
-1274408
-1274504
-1276196
-1274797
-1273291
-1279949
-1278152
-1273039
-1270450
-1268515
-1262789
-1261145
-1261191
-1258143
-1255042
-1260322
-1257794
-1251731
-1248586
-1246434
-1240794
-1239413
-1239725
-1237213
-1234627
-1240757
-1238680
-1233248
-1231251
-1229934
-1225118
-1224633
-1225886
-1224110
-1222326
-1229366
-1228230
-1224065
-1222618
-1221931
-1218061
-1218191
-1219960
-1218941
-1217830
-1225475
-1225033
-1221419
-1220436
-1220452
-1216670
-1217653
-1219785
-1219105
-1218284
-1226284
-1226148
-1222763
-1222104
-1222259
-1218797
-1219778
-1222239
-1221613
-1220941
-1229176
-1229024
-1225703
-1224981
-1225085
-1221750
-1222700
-1225075
-1224719
-1223817
-1231721
-1231476
-1228349
-1227493
-1227446
-1223845
-1224757
-1227002
-1226504
-1225493
-1233443
-1233149
-1229632
-1228622
-1228559
-1224899
-1225809
-1227844
-1227034
-1226043
-1233594
-1233124
-1229804
-1228762
-1228410
-1224678
-1225509
-1227582
-1226815
-1225722
-1233358
-1233005
-1229447
-1228329
-1228027
-1224432
-1225113
-1226985
-1226483
-1225186
-1232898
-1232585
-1229053
-1228298
-1227985
-1224401
-1225208
-1227301
-1226925
-1225930
-1233765
-1233234
-1229957
-1229188
-1229243
-1225756
-1226655
-1228826
-1228622
-1227648
-1235708
-1235534
-1232304
-1231634
-1231411
-1228019
-1228995
-1231196
-1230963
-1229895
-1237888
-1237536
-1234096
-1233305
-1233100
-1229449
-1230501
-1232613
-1232084
-1231047
-1238667
-1238157
-1234736
-1233806
-1233475
-1229832
-1230552
-1232690
-1232088
-1230891
-1238578
-1237974
-1234433
-1233320
-1232903
-1229070
-1229933
-1231851
-1231188
-1229954
-1237624
-1237038
-1233446
-1232430
-1232092
-1228211
-1229017
-1230978
-1230314
-1229421
-1236903
-1236321
-1233092
-1232076
-1231882
-1228075
-1228979
-1230998
-1230567
-1229501
-1237396
-1236879
-1233471
-1232723
-1232574
-1228910
-1229824
-1232039
-1231527
-1230660
-1238268
-1237976
-1234746
-1233987
-1233911
-1230255
-1231315
-1233467
-1233224
-1232399
-1240072
-1239600
-1236434
-1235839
-1235633
-1232080
-1233015
-1235301
-1234926
-1234208
-1241932
-1241690
-1238614
-1237841
-1237822
-1234119
-1235028
-1237435
-1237137
-1236265
-1244052
-1243839
-1240575
-1239904
-1239785
-1236213
-1238322
-1239724
-1238971
-1238352
-1246051
-1245699
-1242658
-1241987
-1241697
-1238453
-1239460
-1241631
-1241371
-1240711
-1248221
-1247959
-1244904
-1243992
-1243946
-1240482
-1241404
-1243604
-1243316
-1242675
-1250207
-1249811
-1246620
-1246038
-1245949
-1242357
-1242906
-1245482
-1245223
-1244661
-1252156
-1251718
-1248642
-1248029
-1247820
-1243949
-1245167
-1247487
-1247090
-1246539
-1253984
-1253610
-1250599
-1249708
-1249655
-1246047
-1247146
-1249322
-1248994
-1248233
-1255845
-1255592
-1252371
-1251690
-1251428
-1247838
-1248874
-1250949
-1250722
-1250067
-1257568
-1257142
-1254174
-1253206
-1252925
-1249527
-1250617
-1252662
-1252397
-1251445
-1259065
-1258910
-1255862
-1254919
-1254702
-1251178
-1252216
-1254268
-1253980
-1253289
-1260682
-1260404
-1257196
-1256599
-1256192
-1252674
-1253573
-1255677
-1255366
-1254940
-1262286
-1262055
-1258811
-1257791
-1257503
-1254170
-1255045
-1257343
-1257150
-1256640
-1263959
-1263685
-1260617
-1259635
-1259268
-1255821
-1256798
-1259066
-1258770
-1258323
-1265808
-1265567
-1262404
-1261597
-1261301
-1257548
-1258284
-1260347
-1260407
-1260005
-1267553
-1267120
-1264058
-1263219
-1262908
-1259545
-1260550
-1262610
-1262306
-1261916
-1269246
-1269136
-1265874
-1264965
-1264657
-1261313
-1262304
-1264249
-1264032
-1263642
-1271026
-1270870
-1267582
-1266657
-1266454
-1262920
-1263952
-1265990
-1265815
-1265392
-1272877
-1272601
-1269532
-1268627
-1268365
-1264948
-1265953
-1268190
-1268106
-1267594
-1274967
-1274885
-1271657
-1270500
-1270378
-1266994
-1267992
-1270962
-1270504
-1269881
-1277301
-1277145
-1274058
-1273323
-1272824
-1269488
-1270449
-1272581
-1272390
-1271904
-1279047
-1278698
-1275134
-1273756
-1272747
-1268526
-1268724
-1269707
-1268232
-1266372
-1272112
-1270156
-1264638
-1261830
-1259406
-1253508
-1252297
-1252214
-1249877
-1247032
-1252312
-1249972
-1244376
-1241580
-1239286
-1234116
-1233152
-1233714
-1232015
-1229926
-1236070
-1234657
-1229957
-1227853
-1226589
-1222001
-1221972
-1223207
-1222505
-1221119
-1227997
-1227453
-1223683
-1222187
-1221451
-1217711
-1218318
-1220198
-1219949
-1219026
-1226407
-1226288
-1222848
-1221987
-1221666
-1218201
-1219087
-1221403
-1221354
-1220763
-1228472
-1228610
-1225262
-1224445
-1224393
-1221101
-1222156
-1224452
-1224618
-1224005
-1231958
-1231997
-1228659
-1228108
-1227936
-1224636
-1225545
-1227785
-1227777
-1227021
-1235124
-1235252
-1231878
-1230910
-1230603
-1226939
-1228046
-1230129
-1230002
-1229043
-1237037
-1237074
-1233766
-1232586
-1232202
-1228594
-1229291
-1231368
-1231178
-1230109
-1237794
-1237813
-1234036
-1232988
-1232574
-1228811
-1229281
-1231234
-1231569
-1230385
-1237979
-1237834
-1234108
-1233068
-1232774
-1228964
-1229656
-1231619
-1231408
-1230417
-1238293
-1238414
-1234739
-1233797
-1233538
-1230057
-1230708
-1232905
-1232909
-1231966
-1239980
-1240373
-1236885
-1235513
-1235642
-1232095
-1232614
-1235000
-1235110
-1234007
-1242079
-1242351
-1238616
-1237522
-1237125
-1233671
-1234148
-1236126
-1235977
-1234804
-1242565
-1242768
-1238729
-1237643
-1237129
-1233394
-1233734
-1235588
-1235378
-1234070
-1241745
-1241818
-1237632
-1236189
-1235706
-1231886
-1232092
-1234083
-1233679
-1232367
-1241082
-1240538
-1236358
-1234818
-1234195
-1230429
-1230693
-1232736
-1232519
-1231116
-1238930
-1239228
-1235254
-1233949
-1233501
-1229791
-1230310
-1232195
-1232365
-1231216
-1239138
-1239701
-1235609
-1234443
-1234245
-1230635
-1231013
-1233201
-1233251
-1232076
-1240058
-1240907
-1236882
-1235896
-1235628
-1232250
-1232583
-1234894
-1235001
-1234234
-1242163
-1243029
-1239138
-1238046
-1237807
-1234315
-1234849
-1237185
-1237300
-1236566
-1244480
-1245400
-1241452
-1240433
-1240034
-1236509
-1237046
-1239352
-1239626
-1238765
-1246757
-1247700
-1243780
-1242702
-1242517
-1239042
-1239415
-1241761
-1242086
-1241112
-1248931
-1250058
-1246120
-1244749
-1244714
-1241111
-1241420
-1243898
-1244151
-1243312
-1250976
-1252333
-1248196
-1247015
-1246734
-1243136
-1243605
-1245726
-1246198
-1245202
-1253155
-1254321
-1250254
-1249207
-1248923
-1245266
-1245744
-1248000
-1248446
-1247407
-1255245
-1256501
-1252448
-1251299
-1251019
-1247361
-1247428
-1250086
-1250468
-1249447
-1257105
-1258442
-1254223
-1252970
-1252746
-1249070
-1249262
-1251815
-1252221
-1251116
-1258927
-1260061
-1256022
-1254625
-1254447
-1250703
-1250756
-1253431
-1253609
-1252826
-1260254
-1261498
-1257280
-1256034
-1255885
-1251921
-1252140
-1254711
-1255038
-1253971
-1261575
-1262817
-1258641
-1257448
-1257097
-1253177
-1253313
-1255831
-1256339
-1255302
-1262713
-1263739
-1259606
-1258232
-1257946
-1254401
-1254618
-1256928
-1257174
-1256175
-1263726
-1264912
-1260323
-1259352
-1259312
-1255427
-1255640
-1258011
-1258500
-1257492
-1264815
-1266218
-1261933
-1260538
-1260435
-1256520
-1256850
-1259106
-1259660
-1258643
-1257831
-1260347
-1260795
-1259867
-1267372
-1268605
-1264565
-1263304
-1262516
-1259084
-1259381
-1261681
-1262336
-1261294
-1268645
-1269866
-1265876
-1264563
-1264317
-1260566
-1260864
-1263329
-1264039
-1262846
-1270434
-1272073
-1267522
-1266212
-1266338
-1262648
-1263029
-1265291
-1266123
-1265188
-1272746
-1274161
-1269914
-1268711
-1268223
-1264509
-1264426
-1266936
-1267462
-1266004
-1273091
-1274154
-1269162
-1267117
-1265866
-1260708
-1259766
-1260793
-1259430
-1257042
-1262596
-1262319
-1256416
-1252888
-1250553
-1244416
-1242664
-1243224
-1241835
-1238949
-1244731
-1244295
-1239502
-1235658
-1234237
-1228571
-1228322
-1228837
-1227933
-1225842
-1232221
-1232616
-1227431
-1225251
-1224286
-1219248
-1219027
-1221041
-1221039
-1219325
-1226345
-1227681
-1223139
-1221511
-1221670
-1216932
-1217014
-1218989
-1219791
-1218528
-1225865
-1227716
-1223656
-1222277
-1222055
-1218108
-1218302
-1220770
-1221746
-1220865
-1228272
-1230027
-1226152
-1224974
-1224819
-1220919
-1221238
-1223382
-1224634
-1223605
-1231350
-1233220
-1229167
-1227979
-1227774
-1223664
-1223822
-1226271
-1227158
-1226077
-1233417
-1235252
-1231032
-1229655
-1229619
-1225384
-1225338
-1227696
-1228521
-1227295
-1234476
-1237008
-1232135
-1230530
-1230029
-1225651
-1225770
-1228093
-1228441
-1227384
-1234506
-1236343
-1231915
-1230428
-1229960
-1225579
-1225546
-1228538
-1228700
-1227375
-1234447
-1236274
-1231985
-1230506
-1230560
-1226055
-1226112
-1228342
-1229280
-1228598
-1235456
-1237449
-1233967
-1232011
-1232616
-1227450
-1228286
-1230109
-1231171
-1230393
-1237370
-1239595
-1235642
-1234464
-1234319
-1230028
-1230310
-1232788
-1233693
-1232520
-1239556
-1242077
-1237506
-1235980
-1235638
-1231352
-1231370
-1233360
-1234410
-1233304
-1239922
-1241918
-1237653
-1236055
-1235531
-1231025
-1231067
-1233324
-1233883
-1232618
-1238937
-1241743
-1236912
-1235087
-1234319
-1229900
-1229877
-1232719
-1232708
-1231327
-1237469
-1239648
-1235250
-1233662
-1233158
-1228741
-1228514
-1230632
-1231186
-1230223
-1236818
-1239238
-1234824
-1233411
-1232864
-1228491
-1228453
-1230767
-1231561
-1230584
-1236999
-1239595
-1235293
-1233940
-1233633
-1229353
-1229441
-1231982
-1232814
-1231803
-1238082
-1241026
-1237922
-1236611
-1235787
-1231451
-1231511
-1233864
-1234720
-1233803
-1239797
-1242891
-1238819
-1237425
-1237118
-1233275
-1233396
-1235768
-1236733
-1235883
-1241869
-1244966
-1240981
-1239603
-1239371
-1235315
-1235422
-1237876
-1238767
-1237893
-1243706
-1247033
-1242932
-1241676
-1241436
-1237417
-1237539
-1239813
-1240885
-1239992
-1245686
-1249140
-1245063
-1243839
-1243637
-1239778
-1239649
-1242002
-1243072
-1242261
-1247819
-1251297
-1247257
-1246121
-1245888
-1241905
-1241919
-1244304
-1245330
-1244601
-1249972
-1253550
-1249649
-1248378
-1248067
-1244205
-1244197
-1246548
-1247570
-1246813
-1252023
-1255652
-1251753
-1250600
-1250178
-1246453
-1246225
-1248542
-1249445
-1248767
-1253834
-1257850
-1253798
-1252416
-1252202
-1248399
-1248166
-1250558
-1251457
-1250671
-1255759
-1259695
-1255794
-1254539
-1254197
-1250536
-1250109
-1252333
-1253326
-1252536
-1257327
-1261413
-1257508
-1256144
-1255835
-1252156
-1251650
-1253865
-1254910
-1254066
-1258857
-1263047
-1259028
-1257763
-1257409
-1253974
-1253428
-1255751
-1256711
-1255822
-1260397
-1264465
-1260459
-1259215
-1259087
-1255564
-1255055
-1257203
-1258144
-1257213
-1261747
-1266134
-1262107
-1260628
-1260546
-1257213
-1256437
-1258775
-1259618
-1258676
-1263065
-1267568
-1263643
-1262176
-1261901
-1258618
-1257746
-1260006
-1261149
-1260014
-1264531
-1269194
-1265169
-1263813
-1263577
-1260283
-1259345
-1261479
-1262577
-1261591
-1265825
-1270524
-1266665
-1265150
-1264949
-1261834
-1260938
-1263003
-1263949
-1263095
-1267295
-1272339
-1268548
-1267003
-1266699
-1263650
-1262731
-1265064
-1266031
-1265071
-1269029
-1274189
-1270118
-1268700
-1268708
-1265753
-1264563
-1266549
-1267613
-1266147
-1269908
-1274741
-1270590
-1268545
-1267627
-1264070
-1261654
-1262495
-1262145
-1259435
-1261635
-1264974
-1259530
-1255736
-1253425
-1248582
-1245159
-1245069
-1244009
-1240687
-1242514
-1245830
-1240379
-1236920
-1234886
-1230532
-1227428
-1228087
-1227655
-1225087
-1227367
-1231544
-1226953
-1224196
-1222924
-1219451
-1217283
-1218511
-1218986
-1217165
-1219773
-1224692
-1220680
-1218703
-1218085
-1215305
-1213574
-1215458
-1216570
-1215065
-1218101
-1223450
-1220082
-1218362
-1217997
-1215801
-1214383
-1216338
-1217319
-1216136
-1219423
-1225176
-1222002
-1220226
-1220026
-1218183
-1216554
-1218507
-1219750
-1218630
-1221574
-1227465
-1224338
-1222773
-1222393
-1220334
-1218410
-1220524
-1221631
-1220396
-1223390
-1229173
-1225984
-1223951
-1223612
-1221677
-1219801
-1221715
-1222637
-1221466
-1223829
-1229582
-1226609
-1224407
-1223829
-1222024
-1219851
-1221663
-1222679
-1221428
-1223661
-1229133
-1226274
-1223998
-1223428
-1221630
-1219175
-1220893
-1221920
-1220643
-1222688
-1228405
-1225429
-1223094
-1222848
-1220927
-1218609
-1220238
-1221444
-1220061
-1222155
-1227910
-1225243
-1223121
-1222579
-1221268
-1218905
-1220640
-1222025
-1220746
-1222831
-1228935
-1226399
-1224362
-1224111
-1222928
-1220664
-1222520
-1224038
-1223049
-1224917
-1230916
-1228755
-1226672
-1226373
-1225249
-1222910
-1224590
-1226058
-1224995
-1226500
-1232650
-1230314
-1228036
-1227667
-1226684
-1224029
-1225726
-1227009
-1225432
-1226757
-1232943
-1230562
-1228321
-1227851
-1226802
-1223932
-1225354
-1226416
-1224939
-1226038
-1232233
-1229967
-1227593
-1226978
-1226031
-1223181
-1224571
-1225728
-1224133
-1225138
-1231494
-1229412
-1226837
-1226414
-1225625
-1222819
-1224140
-1225471
-1224078
-1224890
-1231361
-1229469
-1226915
-1226631
-1225941
-1223052
-1224445
-1225870
-1224609
-1225368
-1232179
-1230168
-1227797
-1227498
-1227356
-1224193
-1225645
-1226960
-1225764
-1226529
-1233452
-1231755
-1229357
-1229170
-1229053
-1225906
-1227193
-1228825
-1227485
-1228189
-1235185
-1233487
-1231207
-1231163
-1231239
-1227998
-1229308
-1230941
-1229545
-1230186
-1237410
-1235679
-1233200
-1232893
-1233216
-1229886
-1231085
-1232701
-1231614
-1232289
-1239123
-1237754
-1235315
-1235107
-1235373
-1231921
-1233209
-1234768
-1233502
-1234299
-1241300
-1239836
-1237162
-1236869
-1237535
-1234045
-1235280
-1236596
-1235575
-1236216
-1243463
-1241899
-1239236
-1239062
-1239820
-1236007
-1237167
-1238590
-1237510
-1238262
-1245326
-1243841
-1241185
-1240792
-1241694
-1237872
-1238849
-1240409
-1239429
-1240005
-1247068
-1245739
-1243067
-1242569
-1243595
-1239388
-1240394
-1241924
-1241006
-1241748
-1248653
-1247272
-1244561
-1244167
-1245158
-1241012
-1242058
-1243612
-1242598
-1243311
-1250322
-1248977
-1246208
-1245751
-1246523
-1242413
-1243490
-1244972
-1243975
-1244497
-1251889
-1250534
-1247656
-1247113
-1248004
-1243964
-1244996
-1246504
-1245451
-1246172
-1253296
-1252103
-1249090
-1248545
-1249497
-1245393
-1246512
-1248070
-1246882
-1247610
-1255077
-1253929
-1250600
-1250098
-1251164
-1246959
-1247841
-1249431
-1248466
-1249170
-1256650
-1255529
-1252394
-1251733
-1252635
-1248498
-1249674
-1251019
-1250135
-1250769
-1258258
-1257220
-1253852
-1253485
-1254255
-1250074
-1251194
-1252687
-1251749
-1252545
-1260057
-1258892
-1255604
-1254977
-1255784
-1251720
-1252760
-1254341
-1253585
-1254118
-1261579
-1260646
-1257335
-1256766
-1257608
-1253530
-1254509
-1256202
-1255444
-1255915
-1263384
-1262452
-1259022
-1258502
-1259250
-1255202
-1256209
-1257952
-1257104
-1257700
-1265011
-1264406
-1260931
-1260268
-1261150
-1257132
-1258084
-1259715
-1258692
-1259310
-1266899
-1266230
-1262775
-1262327
-1263213
-1259129
-1260052
-1261836
-1261048
-1261671
-1269057
-1268393
-1264866
-1264361
-1265018
-1261075
-1261926
-1263976
-1263026
-1263529
-1270765
-1269921
-1266135
-1265208
-1265556
-1260744
-1260896
-1262204
-1260487
-1259602
-1265669
-1263508
-1258142
-1255574
-1254289
-1248090
-1246699
-1246562
-1243654
-1241672
-1246666
-1244018
-1238380
-1235635
-1234309
-1228357
-1227052
-1227468
-1224973
-1223847
-1229424
-1227547
-1222631
-1220622
-1220016
-1214867
-1214416
-1215649
-1213915
-1213470
-1219996
-1218871
-1214520
-1213207
-1213401
-1208798
-1208998
-1210938
-1209840
-1210084
-1217057
-1216461
-1212538
-1211684
-1212179
-1208085
-1208788
-1211342
-1210243
-1210674
-1217816
-1217577
-1213801
-1213308
-1213874
-1209903
-1210735
-1213286
-1212493
-1212742
-1219901
-1219833
-1215981
-1215440
-1215990
-1212062
-1212641
-1215151
-1214256
-1214505
-1221683
-1221382
-1217397
-1216570
-1217287
-1213243
-1213716
-1216061
-1215021
-1215108
-1221948
-1221799
-1217508
-1216846
-1217148
-1213065
-1213467
-1215827
-1214710
-1214582
-1221304
-1220914
-1216826
-1216124
-1216321
-1212109
-1212588
-1214958
-1213837
-1213596
-1220392
-1220064
-1215876
-1215169
-1215295
-1211188
-1211511
-1214325
-1212917
-1212748
-1219678
-1219467
-1215400
-1214683
-1215216
-1211159
-1211729
-1214485
-1213315
-1213293
-1220283
-1220190
-1216268
-1215805
-1216375
-1212476
-1213102
-1216140
-1215229
-1215119
-1222325
-1222273
-1218391
-1217884
-1218522
-1214606
-1215317
-1218015
-1216979
-1217111
-1224245
-1224190
-1220259
-1219563
-1220014
-1216027
-1216454
-1219104
-1217976
-1217808
-1224986
-1224544
-1220596
-1219717
-1220082
-1215852
-1216243
-1218526
-1217629
-1217266
-1224411
-1223983
-1219961
-1218988
-1219169
-1214887
-1215295
-1217736
-1216601
-1216302
-1223469
-1222935
-1219104
-1218067
-1218302
-1214076
-1214488
-1216867
-1216040
-1215586
-1222857
-1222788
-1218658
-1217866
-1218052
-1214136
-1214645
-1217177
-1216135
-1215796
-1223225
-1223017
-1219394
-1218471
-1218902
-1215100
-1215679
-1218066
-1217226
-1217009
-1224577
-1224480
-1220714
-1219943
-1220435
-1216701
-1217332
-1219887
-1219143
-1218905
-1226418
-1226306
-1222609
-1222014
-1222382
-1218475
-1219235
-1221806
-1221256
-1221038
-1228511
-1228501
-1224866
-1224208
-1224595
-1220758
-1221458
-1224162
-1223381
-1223201
-1230860
-1230592
-1227177
-1226356
-1226610
-1223008
-1223735
-1226201
-1225644
-1225185
-1232841
-1233032
-1229432
-1228574
-1228963
-1225142
-1225839
-1228314
-1227652
-1227259
-1234994
-1234924
-1231384
-1230744
-1231005
-1227255
-1228018
-1230607
-1229906
-1229351
-1237146
-1237037
-1233396
-1232792
-1232874
-1229319
-1230115
-1232463
-1231817
-1231181
-1239003
-1238788
-1235252
-1234540
-1234719
-1231038
-1231664
-1234181
-1233444
-1232885
-1240583
-1240470
-1236811
-1236005
-1236159
-1232563
-1233308
-1235572
-1234853
-1234132
-1241881
-1241759
-1238132
-1237335
-1237485
-1233966
-1234528
-1236896
-1236226
-1235411
-1243357
-1243150
-1239618
-1238658
-1238755
-1235086
-1235788
-1238155
-1237493
-1236674
-1244508
-1244285
-1240727
-1240075
-1240001
-1236326
-1237117
-1239430
-1238649
-1237944
-1245828
-1245521
-1242087
-1241217
-1241421
-1237868
-1238544
-1240978
-1240282
-1239393
-1247380
-1247167
-1243705
-1242969
-1242954
-1239321
-1240233
-1242615
-1242037
-1241243
-1249232
-1249000
-1245727
-1244942
-1244957
-1241481
-1242326
-1244517
-1244083
-1243260
-1251034
-1251067
-1247787
-1246815
-1246917
-1243538
-1244265
-1246689
-1246057
-1245304
-1253213
-1253040
-1249634
-1248907
-1249018
-1245560
-1246588
-1248827
-1248190
-1247360
-1255303
-1255064
-1251861
-1251220
-1251177
-1247610
-1248556
-1250889
-1250398
-1249515
-1257543
-1257131
-1253816
-1253072
-1252717
-1249372
-1250536
-1252819
-1252382
-1251402
-1259394
-1259037
-1255782
-1255024
-1254935
-1251514
-1252508
-1254847
-1254255
-1253247
-1261201
-1261036
-1257988
-1257126
-1257213
-1253744
-1254586
-1256928
-1256470
-1255370
-1263413
-1263269
-1260024
-1259190
-1259188
-1255845
-1256760
-1258700
-1258124
-1256896
-1264872
-1264222
-1260655
-1259490
-1258676
-1254567
-1254510
-1255655
-1254012
-1251417
-1258057
-1255975
-1250917
-1248181
-1246214
-1240805
-1239619
-1239735
-1237007
-1233840
-1239890
-1237637
-1232468
-1229928
-1228136
-1222882
-1222296
-1222837
-1220858
-1218304
-1225117
-1223498
-1218997
-1217043
-1216017
-1211563
-1211744
-1213033
-1211601
-1209876
-1217475
-1216591
-1212829
-1211603
-1211099
-1207417
-1207984
-1209811
-1209124
-1208093
-1215896
-1215471
-1212210
-1211416
-1211293
-1208005
-1208973
-1211274
-1210599
-1209901
-1217799
-1217638
-1214555
-1214186
-1214170
-1210911
-1211988
-1214250
-1213985
-1213166
-1221337
-1221033
-1218055
-1217512
-1217367
-1214135
-1215228
-1217497
-1216906
-1215943
-1223983
-1223664
-1220440
-1219634
-1219518
-1216252
-1216773
-1219050
-1218530
-1217455
-1225364
-1225017
-1221689
-1220950
-1220522
-1217145
-1218140
-1219978
-1219110
-1218035
-1225707
-1225285
-1222080
-1221277
-1220809
-1217367
-1218191
-1220675
-1219422
-1218325
-1226101
-1225550
-1222233
-1221406
-1220994
-1217377
-1218448
-1220448
-1219695
-1218881
-1226712
-1226416
-1223172
-1222408
-1222306
-1219022
-1220108
-1222119
-1221579
-1220744
-1228746
-1228593
-1225335
-1224799
-1224668
-1221258
-1222413
-1224401
-1223941
-1223030
-1230944
-1230384
-1227354
-1226359
-1226146
-1222665
-1223458
-1225405
-1224804
-1223720
-1231458
-1230909
-1227516
-1226586
-1225997
-1222415
-1223248
-1224948
-1224018
-1223095
-1230521
-1229893
-1226339
-1225122
-1224581
-1220917
-1221604
-1223223
-1222525
-1221381
-1228852
-1228348
-1224897
-1223638
-1222998
-1219457
-1220259
-1221954
-1221207
-1220406
-1227919
-1227533
-1224158
-1223002
-1222609
-1219015
-1219884
-1221853
-1221163
-1220437
-1227944
-1227627
-1224261
-1223455
-1223069
-1219738
-1220721
-1222715
-1222144
-1221392
-1229103
-1229035
-1225645
-1224803
-1224613
-1221422
-1222377
-1224327
-1223995
-1223188
-1230902
-1230726
-1227741
-1226886
-1226625
-1223177
-1224295
-1226346
-1225945
-1225383
-1233102
-1233040
-1229775
-1229051
-1228617
-1225470
-1226387
-1228438
-1228160
-1227572
-1235349
-1235122
-1231966
-1231198
-1230920
-1227837
-1228691
-1230848
-1230456
-1229902
-1237624
-1237467
-1234216
-1233415
-1233205
-1229777
-1230800
-1232919
-1232622
-1232075
-1239897
-1239600
-1236507
-1235759
-1235115
-1232050
-1233135
-1235168
-1234854
-1234242
-1241919
-1241764
-1238697
-1237879
-1237572
-1234458
-1235173
-1237224
-1236986
-1236345
-1244209
-1243994
-1240753
-1239781
-1239544
-1236154
-1237031
-1239153
-1238870
-1238111
-1245874
-1245724
-1242366
-1241592
-1241279
-1237837
-1238751
-1240836
-1240666
-1239897
-1247575
-1247491
-1244108
-1243271
-1242861
-1239455
-1240328
-1242139
-1242033
-1241390
-1249102
-1248968
-1245458
-1244535
-1244363
-1240976
-1241350
-1243636
-1243426
-1242690
-1250368
-1250232
-1246836
-1246029
-1245518
-1242238
-1242976
-1244992
-1244803
-1243917
-1251571
-1251494
-1248062
-1247079
-1246720
-1243285
-1243980
-1246049
-1245840
-1245103
-1252733
-1252515
-1249061
-1248144
