PPG
-886218
-886682
-883506
-882450
-882173
-878119
-878091
-880612
-882031
-882180
-887125
-887619
-884268
-883236
-882960
-878971
-878991
-881541
-882931
-883164
-888009
-888465
-885313
-884167
-883898
-879664
-879962
-882289
-883586
-883814
-888655
-889112
-885923
-884836
-884579
-880392
-880466
-882947
-884196
-884508
-889473
-889835
-886576
-885623
-885328
-881181
-881279
-883920
-884912
-885253
-890325
-890759
-887531
-886631
-886371
-882434
-882629
-885285
-886758
-887119
-892160
-892714
-889644
-888772
-888591
-884594
-884799
-887390
-888686
-888757
-893727
-894188
-890989
-889888
-889599
-885512
-885639
-888058
-889269
-889493
-894277
-894608
-891392
-890315
-889911
-885938
-886044
-888526
-889494
-889595
-894206
-894437
-890995
-889594
-888997
-884463
-884063
-885873
-886209
-885531
-889622
-888946
-884645
-882687
-881201
-875879
-874940
-876249
-876143
-875058
-878659
-877682
-873383
-871064
-869288
-864237
-863384
-864613
-864825
-863815
-867692
-866878
-862953
-860988
-859902
-854877
-854397
-856121
-856635
-856157
-860381
-860012
-856248
-854527
-853642
-849081
-848772
-850783
-851453
-851156
-855510
-855311
-851819
-850502
-849710
-845339
-845297
-847543
-848362
-848276
-852838
-852957
-849601
-848550
-848165
-843896
-844056
-846421
-847552
-847553
-852347
-852507
-849276
-848160
-847776
-843585
-843892
-846284
-847206
-847259
-852169
-852096
-848998
-847858
-847576
-843434
-843715
-845945
-847004
-847078
-851935
-851953
-848714
-847635
-847319
-843149
-843352
-845766
-846707
-846855
-851684
-851728
-848622
-847460
-847160
-843077
-843604
-845924
-847060
-847150
-852087
-852179
-849259
-848283
-848098
-844286
-844789
-847201
-848353
-848659
-853591
-853720
-850795
-849980
-849866
-845939
-846361
-848709
-849794
-849959
-854950
-855026
-852118
-851062
-850779
-846661
-847137
-849398
-850355
-850444
-855414
-855409
-852397
-851394
-851028
-846973
-847213
-849559
-850447
-850520
-855448
-855310
-852357
-851414
-851019
-846830
-847300
-849555
-850584
-850709
-855479
-855460
-852325
-851301
-850834
-846821
-847217
-849502
-850426
-850397
-855040
-854924
-851921
-850923
-850374
-846282
-846676
-848920
-849861
-849834
-854577
-854447
-851465
-850422
-850071
-845930
-846456
-848659
-849642
-849666
-854435
-854230
-851335
-850252
-849929
-845765
-846306
-848475
-849450
-849655
-854401
-854177
-851318
-850101
-849928
-845945
-846624
-848801
-849884
-850050
-854855
-854758
-851902
-850947
-850702
-846825
-847295
-849621
-850708
-851018
-855798
-855659
-852857
-852462
-851944
-847921
-848421
-850657
-851834
-852065
-856931
-856735
-854009
-853096
-852894
-849065
-849750
-852040
-853011
-853313
-858263
-857813
-855118
-854285
-854117
-850195
-850805
-853099
-854034
-854296
-859179
-858896
-856204
-855258
-855070
-851069
-851781
-854118
-855131
-855422
-860393
-860150
-857449
-856617
-856418
-852657
-853342
-855647
-856651
-856895
-861738
-861576
-858848
-858164
-857839
-854050
-854661
-856954
-857913
-858274
-863148
-862851
-860066
-859307
-859036
-855345
-856055
-858422
-859389
-859765
-864553
-864307
-861603
-860876
-860635
-856777
-857405
-859716
-860684
-861000
-865738
-865352
-862659
-861884
-861615
-857810
-858599
-860722
-861659
-861987
-866776
-866657
-863793
-863166
-862869
-858952
-859657
-862005
-862816
-863243
-868154
-867896
-865188
-864296
-863969
-860192
-861056
-863295
-864293
-864635
-869361
-869115
-866407
-865677
-865378
-861483
-862284
-864571
-865406
-865618
-870364
-870165
-867275
-866494
-866229
-862417
-863191
-865455
-866351
-866712
-871143
-870906
-868330
-867587
-867341
-863605
-864359
-866470
-867540
-867908
-872610
-872246
-869587
-868926
-868507
-864757
-865475
-867832
-868782
-869160
-873861
-873503
-870999
-870233
-870025
-866277
-867095
-869495
-870415
-870845
-875675
-875426
-872776
-872160
-871983
-868230
-869194
-871417
-872451
-872909
-877699
-877224
-874404
-873690
-873242
-869355
-869911
-872317
-872418
-872209
-876236
-875217
-871745
-870296
-868841
-864297
-864048
-865213
-864881
-864039
-867499
-865888
-861801
-859873
-858150
-853022
-852450
-853284
-852771
-851771
-855030
-853312
-849465
-847427
-845885
-840902
-840490
-841656
-841425
-840792
-844453
-843088
-839549
-837711
-836616
-832131
-832164
-833648
-833793
-833464
-837686
-836640
-834021
-832428
-831516
-827343
-827710
-829634
-830146
-830255
-834686
-833876
-831098
-830257
-829749
-825843
-826511
-828685
-829352
-829569
-834265
-833884
-831094
-830273
-829823
-826080
-826831
-829021
-829769
-830154
-834802
-834462
-831732
-830992
-830573
-826815
-827544
-829739
-830525
-830784
-835402
-834919
-832114
-831402
-830933
-827140
-827819
-829865
-830679
-830858
-835455
-834870
-832167
-831219
-830653
-826738
-827512
-829436
-830204
-830528
-835154
-834511
-831780
-831060
-830659
-826873
-827671
-829795
-830642
-830958
-835680
-835384
-832774
-832074
-831768
-828123
-829047
-831381
-832269
-832690
-837523
-837175
-834704
-834129
-833786
-830180
-831200
-833396
-834356
-834752
-839552
-839227
-836599
-836048
-835568
-831805
-832777
-834928
-835756
-836145
-840800
-840280
-837674
-836936
-836495
-832655
-833484
-835638
-836298
-836560
-841177
-840672
-837948
-837141
-836694
-832606
-833653
-835833
-836563
-836775
-841496
-840887
-838234
-837571
-837213
-833351
-834267
-836399
-837222
-837492
-842080
-841624
-839020
-838320
-838063
-834206
-834978
-837096
-837845
-838053
-842899
-842388
-839782
-839506
-838904
-834941
-836201
-837971
-838512
-838720
-843371
-842709
-840079
-839432
-839020
-835184
-836110
-838175
-838896
-839133
-843828
-843358
-840669
-839886
-839550
-835832
-836700
-838880
-839588
-839914
-844676
-844218
-841724
-841141
-840829
-837220
-838207
-840516
-841289
-841468
-846288
-845881
-843222
-842651
-842367
-838618
-839600
-841803
-842516
-842777
-847532
-847214
-844587
-843839
-843557
-839908
-840815
-842966
-843808
-844021
-848750
-848337
-845776
-845088
-844939
-841001
-842015
-844368
-845168
-845422
-850255
-849931
-847402
-846813
-846706
-843102
-844176
-846499
-847483
-847792
-852784
-852384
-849938
-849554
-849332
-845808
-846943
-849282
-850266
-850474
-855625
-855168
-852825
-852316
-852248
-848660
-849782
-852200
-853001
-853286
-858142
-857606
-855197
-854682
-854425
-850713
-851638
-853929
-854612
-854788
-859564
-858998
-856492
-855772
-855687
-851887
-852770
-855149
-855687
-855916
-860991
-860488
-857852
-857345
-857185
-853399
-854522
-857258
-857752
-857894
-862754
-862356
-859808
-859270
-859251
-855524
-856603
-858866
-859704
-859818
-864781
-864276
-861746
-861111
-860881
-857164
-858182
-860398
-861170
-861137
-866029
-865577
-862935
-862417
-862193
-858329
-859308
-861464
-862236
-862374
-867219
-866743
-864150
-863337
-863312
-859511
-860584
-862888
-863560
-863580
-868449
-867955
-865330
-864853
-864755
-861007
-862019
-864301
-864825
-864974
-869959
-869554
-866923
-866358
-866216
-862442
-863406
-865807
-866418
-866547
-871443
-870990
-868345
-867742
-867622
-863726
-864716
-866992
-867655
-867758
-872536
-871855
-869220
-868491
-868225
-864164
-864895
-866730
-866973
-866575
-870967
-869857
-866572
-865180
-864224
-859451
-859545
-860799
-860480
-859460
-863181
-861641
-857826
-856182
-854730
-849621
-849409
-850535
-850032
-848908
-852522
-850861
-847027
-845424
-844131
-839212
-839110
-840451
-840143
-839226
-842901
-841590
-838147
-836711
-835745
-831165
-831299
-832880
-832965
-832404
-836502
-835290
-832284
-831106
-830608
-826341
-826780
-828603
-828845
-828482
-832999
-832182
-829243
-828342
-828035
-824055
-824667
-826824
-827417
-827321
-831958
-831383
-828617
-828029
-827776
-824037
-824882
-827241
-828016
-828115
-832967
-832428
-829708
-829166
-829129
-825330
-826270
-828568
-829215
-829387
-834311
-833675
-831118
-830588
-830414
-826439
-827653
-829911
-830653
-830672
-835509
-835038
-832282
-831565
-831442
-827497
-828320
-830570
-831319
-831240
-835965
-835441
-832677
-832035
-831955
-828100
-828968
-831153
-831885
-831912
-836843
-836175
-833607
-833141
-833089
-829258
-830257
-832474
-833401
-833240
-838331
-837780
-835180
-834746
-834751
-830877
-831946
-834379
-835144
-835113
-840694
-839677
-836861
-836366
-836267
-832327
-833409
-835609
-836285
-836321
-841056
-840450
-837661
-836907
-836816
-832731
-833571
-835707
-836227
-835977
-840669
-840431
-837212
-836204
-835837
-831724
-832206
-834441
-834827
-834456
-839134
-838349
-835305
-834485
-834171
-830039
-830662
-832849
-833429
-833171
-837834
-837248
-834274
-833637
-833339
-829361
-830138
-832510
-833102
-832959
-837676
-837062
-834291
-833497
-833332
-829481
-830423
-832769
-833310
-833286
-838078
-837435
-834563
-833866
-833779
-829841
-830646
-832979
-833499
-833438
-838166
-837753
-834888
-834363
-834240
-830240
-831244
-833668
-834494
-834523
-839518
-838807
-836153
-835639
-835453
-831674
-832817
-835229
-835787
-835800
-840735
-840377
-837701
-837110
-836987
-833262
-834165
-836719
-837339
-837423
-842304
-841843
-839171
-838487
-838572
-834733
-835753
-838165
-838937
-838840
-843742
-843377
-840546
-839624
-839740
-835989
-836828
-839251
-839908
-840362
-845105
-844407
-841653
-841069
-841073
-837195
-838139
-841073
-841380
-841202
-846229
-845747
-843024
-842371
-842301
-838516
-839475
-841893
-842488
-847368
-846957
-844255
-843420
-844042
-839588
-840476
-842946
-843633
-843575
-848563
-847998
-845303
-844730
-844599
-840720
-841607
-844075
-844740
-844823
-849706
-849258
-846900
-846006
-845962
-842077
-842866
-845490
-846137
-846241
-851210
-850862
-848622
-847682
-847512
-843812
-844700
-847255
-847926
-847965
-853043
-852590
-849622
-849173
-849112
-845329
-846375
-848851
-849500
-849534
-854425
-853978
-851299
-850683
-850717
-846895
-847752
-850159
-850832
-850930
-855757
-855350
-852580
-851864
-851867
-847949
-848719
-851194
-851767
-851701
-856404
-855643
-852692
-851752
-851378
-847129
-847400
-849296
-849171
-848359
-852473
-851142
-847538
-846016
-844883
-840040
-839836
-841085
-840748
-839645
-843424
-841873
-837971
-836240
-835080
-830075
-829756
-831307
-830912
-830001
-833920
-832497
-828725
-827198
-826305
-821545
-821699
-823470
-823361
-822653
-826590
-825726
-822265
-820911
-820401
-816036
-816172
-818303
-818478
-818010
-822518
-821812
-818535
-817507
-817214
-813019
-813446
-815769
-816106
-815846
-820560
-819979
-816912
-816165
-815952
-811970
-812676
-815111
-815678
-815661
-820615
-820200
-817164
-816564
-816486
-812614
-813489
-816067
-816736
-816816
-821690
-821337
-818446
-817955
-818005
-814080
-814941
-817473
-818208
-818223
-823184
-822686
-819742
-819222
-819147
-815192
-815988
-818542
-819058
-818963
-823783
-823305
-820519
-819710
-819672
-815881
-816550
-819114
-820122
-819929
-824777
-824381
-821582
-820970
-821019
-817322
-818264
-820867
-821567
-821756
-826741
-826507
-823634
-823191
-823340
-819549
-820352
-822937
-823617
-823745
-828765
-828374
-825531
-824930
-824937
-821089
-821820
-824438
-824993
-825002
-829848
-829360
-826531
-825808
-825596
-821768
-822356
-824837
-825275
-825189
-829948
-829414
-826426
-825524
-825455
-821276
-821909
-824433
-824882
-824642
-829463
-828859
-825860
-825026
-824832
-820754
-821417
-823919
-824413
-824124
-829056
-828632
-825677
-824875
-824935
-821005
-821683
-824330
-824905
-824694
-829709
-829322
-826340
-825698
-825681
-821842
-822557
-825125
-825706
-825724
-830619
-830141
-827186
-826687
-826695
-822794
-823525
-826158
-826725
-826750
-831663
-831200
-828269
-827660
-827639
-823757
-824535
-827108
-827680
-827551
-832576
-832095
-829008
-828433
-828399
-824434
-825172
-827961
-828399
-828338
-833346
-833045
-830020
-829519
-829580
-825751
-826490
-829419
-829904
-830099
-834995
-834695
-831742
-831288
-831429
-827377
-828253
-831153
-831705
-831875
-836748
-836455
-833475
-832890
-833108
-829266
-829914
-832762
-832959
-833251
-838171
-837650
-834660
-834152
-834139
-830211
-830894
-833623
-833980
-834021
-838846
-838358
-835284
-834800
-834749
-830682
-831550
-834250
-834790
-834810
-839632
-839391
-836290
-835852
-835877
-831887
-832762
-835775
-836272
-836362
-841378
-840968
-838019
-837539
-837766
-834059
-834875
-837838
-838522
-838730
-843744
-843599
-840614
-840118
-840357
-836512
-837219
-840079
-840485
-840562
-845502
-845061
-841954
-841452
-841595
-837491
-838180
-841115
-841371
-841210
-846114
-845742
-842743
-842315
-842682
-838947
-839818
-842558
-842959
-842976
-847940
-847724
-844801
-844341
-844402
-840441
-841219
-844156
-844406
-844482
-849374
-849076
-845985
-845481
-845675
-841747
-842570
-845490
-845813
-845954
-850633
-850405
-847326
-846850
-847044
-843170
-843907
-846766
-847185
-847438
-852255
-852067
-849116
-848747
-849004
-845354
-846224
-849223
-849812
-850005
-854826
-854764
-851973
-851551
-851859
-848214
-848779
-851744
-852389
-852548
-857408
-857215
-854438
-853814
-853945
-850328
-851001
-853612
-854086
-854088
-858867
-858521
-855479
-854709
-854592
-850827
-851139
-853585
-853720
-853325
-857486
-856752
-853202
-851956
-851242
-846461
-846292
-848179
-847548
-846661
-850333
-848921
-844840
-842730
-841899
-837008
-836586
-838033
-837402
-836289
-839622
-838235
-834095
-832334
-831111
-826294
-825796
-827401
-827031
-826115
-829700
-828508
-824724
-823259
-822436
-817868
-817746
-819699
-819404
-818901
-822975
-821925
-818441
-817342
-816645
-812433
-812419
-814742
-814827
-814655
-819035
-818402
-815216
-814327
-814086
-810023
-810503
-813001
-813360
-813363
-818022
-817608
-814713
-813875
-814012
-810122
-810821
-813522
-813964
-814116
-818889
-818639
-815738
-815161
-815328
-811495
-812331
-814868
-815217
-815468
-820044
-819667
-816523
-815939
-815914
-811978
-812949
-815164
-815597
-815346
-819805
-819162
-816124
-815439
-815214
-811009
-811656
-813844
-814231
-814250
-818914
-818421
-815393
-814607
-814606
-810541
-811328
-813868
-814246
-814406
-819034
-818757
-816006
-815333
-815346
-812152
-812435
-814923
-815454
-815593
-820497
-820058
-817279
-816612
-816656
-812743
-813481
-815853
-817092
-816987
-821554
-821101
-818363
-817625
-818505
-813853
-814539
-817005
-817496
-817746
-822484
-821968
-819206
-818404
-818530
-814496
-815382
-817842
-818480
-818561
-823398
-822816
-820153
-819463
-819381
-815451
-816208
-818638
-819052
-819196
-823993
-823439
-820601
-819900
-819823
-815811
-816688
-819288
-819736
-819671
-825121
-824223
-821402
-820754
-820626
-816601
-817366
-819915
-820348
-820416
-825028
-824568
-821745
-820921
-820863
-816706
-817414
-819727
-820079
-820199
-824874
-824156
-821187
-820456
-820274
-816124
-816842
-819238
-819570
-819801
-824513
-823857
-821136
-820474
-820545
-816451
-817303
-819938
-820598
-820848
-825765
-825307
-822563
-821925
-821919
-818117
-819122
-821706
-822404
-822779
-827753
-827156
-824679
-824177
-824253
-820215
-821239
-823748
-824334
-824741
-829606
-829029
-826462
-825712
-825770
-821788
-822736
-825066
-825593
-825871
-830634
-829898
-827299
-826590
-826493
-822337
-823325
-825812
-826205
-826970
-831423
-830612
-827947
-827236
-827173
-823136
-824069
-826583
-827097
-827387
-832320
-831664
-828938
-828258
-828405
-824272
-825340
-827833
-828271
-828625
-833522
-832871
-830210
-829582
-829702
-825541
-826635
-829133
-829752
-829962
-834981
-834405
-831706
-831177
-831152
-826947
-828052
-830658
-831132
-831367
-836444
-835641
-833094
-832576
-832534
-828432
-829396
-831964
-832511
-832783
-837842
-837098
-834485
-833907
-833999
-829982
-830961
-833512
-834025
-834424
-839620
-838755
-836147
-835606
-835589
-831372
-832416
-834904
-835428
-835692
-840798
-840041
-837495
-836878
-836687
-832618
-833770
-836169
-836784
-837083
-842129
-841358
-838679
-838069
-838094
-833817
-834950
-837459
-837803
-838014
-843119
-842284
-839680
-838972
-838978
-834599
-835692
-838158
-838582
-838916
-843884
-843061
-840402
-839762
-839760
-835258
-836553
-838826
-839334
-839692
-844644
-843744
-841058
-840387
-840358
-836040
-837134
-839522
-840084
-840348
-845496
-844956
-842017
-841274
-841303
-837013
-838169
-840654
-841081
-841392
-846499
-845499
-843135
-842346
-842274
-838135
-839434
-841642
-842104
-842488
-847427
-846408
-843930
-843254
-843195
-839031
-840160
-842564
-842959
-843167
-848269
-847253
-844775
-843958
-843941
-839720
-840948
-843247
-843601
-843943
-848856
-847973
-845636
-844987
-845130
-841069
-842230
-844665
-845218
-845632
-850627
-849565
-847300
-846878
-847042
-842970
-844186
-846724
-847279
-847739
-852898
-852173
-849746
-849304
-849393
-845472
-846738
-849138
-849816
-850282
-855334
-854529
-852210
-851865
-851942
-847857
-849112
-851395
-851889
-852420
-857233
-856379
-853606
-852865
-852622
-848256
-849096
-851028
-850899
-850614
-854816
-853164
-849769
-848340
-847392
-842314
-842443
-843492
-842851
-841959
-845845
-843511
-839928
-838208
-837032
-831660
-831748
-832741
-832020
-831315
-835129
-832972
-829480
-827792
-826668
-821667
-821739
-823075
-822588
-821963
-826026
-824050
-820922
-819578
-818822
-814116
-814715
-816311
-816253
-815987
-820224
-818832
-815976
-815009
-814754
-810358
-811192
-813135
-813097
-813071
-817678
-816450
-813996
-813153
-812878
-808780
-809899
-811830
-812068
-812183
-816860
-815773
-813298
-812728
-812512
-808702
-809916
-812068
-812735
-812663
-817382
-816271
-813927
-813434
-813151
-809416
-810810
-813073
-813355
-813634
-818398
-817460
-815231
-814785
-814582
-810864
-812207
-814326
-814790
-815014
-819851
-818847
-816513
-815984
-815711
-812119
-813557
-815840
-816144
-816452
-821377
-820394
-818134
-817712
-817376
-814201
-815293
-817411
-817766
-818033
-822717
-821721
-819600
-819097
-818831
-815336
-816735
-818912
-819308
-819582
-824401
-823306
-821089
-820589
-820259
-816686
-818029
-820231
-820613
-820966
-825617
-824542
-822349
-821800
-821351
-818071
-819414
-821369
-821602
-821875
-826587
-825513
-823086
-822591
-821943
-818417
-819856
-821939
-822141
-822322
-826873
-825634
-823104
-822575
-821825
-818310
-819578
-821614
-821741
-821862
-826294
-825123
-822741
-822117
-821436
-818072
-819251
-821170
-821342
-821716
-826015
-824811
-822584
-822015
-821050
-817735
-818933
-820974
-821047
-821446
-825720
-824389
-822192
-821566
-820607
-817375
-818905
-820774
-820984
-821478
-825778
-824467
-822357
-821851
-820766
-817700
-818954
-820885
-821043
-821508
-825957
-824652
-822412
-821982
-821005
-817953
-819373
-821259
-821596
-822014
-826262
-825139
-823001
-822563
-821635
-818710
-820228
-822220
-822593
-823371
-827637
-826204
-824232
-823943
-822964
-820045
-821570
-823697
-824169
-825031
-829267
-827982
-826002
-825624
-824379
-821821
-823428
-825456
-825786
-826776
-830953
-829654
-827634
-827244
-826109
-823288
-824859
-827026
-827316
-828218
-832392
-831146
-829075
-828804
-827603
-824764
-826315
-828436
-828752
-829586
-833788
-832425
-830485
-830054
-828731
-826203
-827755
-829756
-830136
-831140
-835320
-833869
-831908
-831668
-830513
-827899
-829544
-831643
-832063
-833166
-837286
-835941
-834026
-833715
-832486
-829883
-831583
-833653
-834097
-835351
-839331
-837992
-836038
-835542
-833941
-831533
-833296
-835307
-835578
-836634
-840673
-839222
-837196
-836729
-835069
-832494
-834112
-836002
-836243
-837398
-841293
-839833
-837689
-837233
-835694
-833091
-834762
-836710
-837088
-838350
-842164
-840574
-838743
-838385
-836865
-834444
-836130
-838156
-838489
-839925
-843743
-842010
-840243
-839938
-838398
-836001
-837688
-839674
-839991
-841566
-845331
-843573
-841674
-841297
-839737
-837377
-838890
-841128
-841322
-842958
-846573
-844898
-842917
-842432
-840815
-838432
-840110
-842108
-842356
-843761
-847565
-845625
-843494
-842969
-840996
-838352
-839943
-841680
-841515
-842606
-845713
-843281
-840858
-839774
-837138
-833922
-834978
-836079
-835269
-836031
-838614
-835779
-832811
-831428
-828331
-824858
-825800
-826616
-825843
-826534
-828923
-825916
-823070
-821783
-818841
-815494
-816461
-817482
-816953
-817744
-820610
-817881
-815378
-814402
-811719
-808792
-810085
-811549
-811254
-812513
-815644
-813341
-811094
-810242
-807814
-805258
-806915
-808548
-808535
-810279
-813473
-811253
-809353
-808738
-806465
-804093
-805897
-807795
-808016
-809770
-813162
-810934
-809141
-808768
-806252
-804268
-806113
-808139
-808308
-810312
-813694
-811567
-809744
-809261
-807197
-804963
-806825
-808742
-809046
-811083
-814363
-812217
-810443
-810059
-807742
-805533
-807495
-809467
-809547
-811663
-815008
-812736
-810930
-810540
-808318
-806231
-808327
-810367
-810645
-812848
-816187
-813922
-812339
-811964
-809662
-807662
-809849
-812016
-812384
-814736
-818210
-815703
-814416
-814169
-811984
-809954
-812246
-814177
-814465
-816757
-820199
-817842
-816210
-815953
-813564
-811513
-813585
-815521
-815733
-817861
-821103
-818673
-816931
-816512
-813971
-811806
-813867
-815691
-815840
-818010
-821740
-818892
-816860
-816501
-813928
-811880
-813908
-815843
-816050
-818239
-821392
-818836
-816998
-816663
-814024
-812028
-813921
-815949
-816196
-818461
-821816
-819063
-817315
-816982
-814257
-812243
-814398
-816283
-816421
-818781
-821776
-819076
-817186
-816708
-813815
-811827
-813809
-815506
-815647
-817974
-820917
-818238
-816279
-815830
-812954
-810963
-813327
-814861
-814971
-817425
-820424
-817738
-816026
-815600
-812832
-810999
-813220
-815143
-815414
-818085
-821196
-818517
-816847
-816502
-813877
-812112
-814526
-816531
-816913
-819627
-822798
-820255
-818807
-818533
-815861
-814193
-816577
-818649
-818926
-821736
-824812
-822162
-820750
-820437
-817621
-815974
-818332
-820208
-820484
-823294
-826312
-823552
-822054
-821799
-818904
-817321
-819717
-821605
-821858
-824713
-827620
-824960
-823316
-822985
-820099
-818510
-820958
-822847
-823135
-826186
-829010
-826388
-824984
-824886
-821819
-820438
-822842
-824734
-825099
-828287
-831234
-828508
-826999
-826902
-824002
-822555
-825012
-827396
-827383
-830429
-833287
-830519
-829027
-828854
-825767
-824230
-826663
-828596
-828774
-831837
-834613
-831836
-830265
-829989
-826887
-825440
-827818
-829675
-829981
-833095
-835797
-832926
-831503
-831216
-828090
-826658
-829110
-831041
-831236
-834516
-837196
-834309
-833000
-832760
-829828
-828337
-830815
-832670
-833071
-836373
-839599
-836387
-834881
-834618
-831516
-830225
-832678
-834640
-834826
-838114
-840781
-837804
-836455
-836277
-833213
-831814
-834309
-836297
-836700
-839998
-842623
-839714
-838487
-838299
-835000
-833754
-836264
-838000
-838319
-841775
-844259
-841323
-840015
-839828
-836418
-835029
-837287
-838762
-838801
-841939
-844142
-840884
-839111
-838332
-834331
-832463
-834211
-835286
-834794
-837224
-838754
-834742
-832484
-831129
-826650
-824474
-825901
-826510
-825756
-828049
-829298
-825224
-822909
-821555
-817157
-814983
-816509
-817269
-816662
-819235
-820681
-816758
-814600
-813515
-809144
-807401
-809101
-810067
-809586
-812473
-814114
-810552
-808692
-807783
-803788
-802332
-804337
-805539
-805545
-808704
-810540
-807957
-805852
-805135
-801255
-799960
-802304
-803812
-803993
-807616
-809561
-806397
-805122
-804755
-801215
-800226
-802660
-804392
-804816
-808478
-810531
-807520
-806305
-806056
-802571
-801654
-804272
-806063
-806504
-810095
-812190
-809084
-808017
-807541
-803910
-803012
-805446
-807034
-807360
-811057
-812994
-809693
-808451
-807998
-804294
-803504
-805583
-807244
-807746
-811383
-813208
-810077
-808711
-808321
-804650
-803893
-806327
-807939
-808398
-812249
-814159
-811217
-810003
-809797
-806255
-805571
-808223
-810062
-810489
-814495
-816534
-813477
-812458
-812231
-808762
-808007
-810624
-812377
-812935
-816848
-818727
-815514
-814332
-814026
-810327
-809423
-812082
-813749
-814160
-818113
-819788
-816608
-815341
-814996
-811091
-810332
-812698
-814249
-814441
-818353
-819932
-816510
-815223
-814739
-810666
-809896
-812224
-813768
-813966
-817849
-819480
-816133
-814566
-814324
-810548
-809833
-812234
-813917
-814059
-818205
-819440
-816223
-815039
-814650
-810763
-810129
-812415
-814055
-814445
-818608
-820052
-816810
-815487
-815076
-811033
-810545
-812969
-814504
-814713
-818852
-820342
-817076
-815707
-815329
-811154
-810805
-813279
-814870
-814995
-819222
-820715
-818240
-816338
-815861
-811802
-811255
-813756
-815391
-815728
-819859
-821446
-818369
-817402
-817133
-813264
-812838
-815517
-817293
-817613
-822126
-823596
-820402
-819427
-819163
-815337
-815014
-817530
-819336
-819772
-824188
-825706
-822551
-821466
-821196
-817424
-817056
-819608
-821272
-821584
-826135
-827570
-824398
-823227
-823096
-819212
-818869
-821407
-823038
-823335
-827952
-829186
-826014
-824852
-824548
-820644
-820304
-822920
-824585
-824794
-829482
-830764
-827392
-826509
-826308
-822379
-821999
-824648
-826214
-826594
-831315
-832589
-829350
-828410
-828203
-824265
-824163
-826578
-828329
-828669
-833462
-834773
-831457
-830512
-830415
-826497
-826324
-828845
-830612
-831046
-835767
-837007
-833845
-832787
-832740
-828892
-828655
-831162
-832873
-833104
-837703
-838931
-835612
-834394
-834169
-830856
-830002
-832276
-833842
-833971
-838593
-839659
-836327
-835156
-834904
-830751
-830443
-832931
-834479
-834800
-839543
-840646
-837301
-836326
-836120
-832228
-832084
-834583
-836313
-836586
-841401
-842520
-839351
-838328
-838216
-834325
-834157
-836713
-838443
-838852
-843678
-844769
-841498
-840470
-840489
-836512
-836420
-838920
-840693
-841065
-845800
-846847
-843729
-842758
-843252
-838852
-838496
-841149
-842902
-843277
-848147
-849228
-845939
-844954
-844817
-840934
-840869
-843498
-845212
-845612
-850429
-851423
-848190
-847166
-846839
-842782
-842635
-845028
-846483
-846557
-851139
-851717
-848034
-846548
-845748
-841086
-840430
-841978
-842619
-841996
-845742
-845628
-841153
-838948
-837683
-832422
-831101
-832258
-832530
-831564
-834967
-834500
-829927
-827674
-826112
-820879
-819639
-820853
-821376
-820570
-824232
-824116
-819944
-817991
-816881
-812022
-811154
-812786
-813586
-813184
-817238
-817487
-813680
-811925
-811209
-806585
-806008
-807975
-809069
-808896
-813259
-813852
-810173
-808994
-808526
-804223
-803946
-806205
-807582
-807534
-812168
-812647
-809253
-808060
-807627
-803487
-803237
-805575
-806916
-807050
-811782
-812594
-809201
-808059
-807772
-803660
-803650
-806144
-807419
-807660
-812441
-813206
-809934
-808803
-808614
-804550
-804451
-806856
-808269
-808502
-813211
-813991
-810557
-809476
-809197
-805124
-805168
-807424
-808869
-809098
-813823
-814557
-811308
-810165
-809987
-805848
-805824
-808180
-809602
-809813
-814649
-815388
-812053
-810980
-810760
-806732
-806797
-809287
-810769
-811087
-815998
-816824
-813566
-812592
-812382
-808405
-809127
-811077
-812572
-812654
-817626
-818495
-815290
-814337
-814286
-810375
-810398
-812934
-814532
-814810
-819706
-820502
-817303
-816298
-816048
-812027
-811927
-814441
-815812
-815870
-820740
-821287
-818004
-816666
-816314
-812152
-812125
-814467
-815717
-815833
-820463
-820972
-817558
-816384
-815872
-811709
-811538
-813835
-815130
-815132
-819721
-820130
-816708
-815522
-815111
-810810
-810659
-813045
-814278
-814270
-819022
-819547
-816250
-815058
-814697
-810605
-810480
-812946
-814116
-814267
-819190
-819739
-816404
-815351
-815060
-810965
-811024
-813564
-814884
-815135
-819931
-820518
-817191
-816170
-815782
-811704
-811725
-814176
-815541
-815735
-820597
-821232
-817991
-817066
-816756
-812782
-812811
-815365
-816672
-817006
-821867
-822562
-819362
-818406
-818154
-814273
-814278
-816921
-818366
-818648
-823473
-824161
-816125
-818745
-820109
-820420
-825299
-825836
-822669
-821689
-821518
-817677
-817728
-820274
-821739
-821980
-826856
-827437
-824302
-823353
-823073
-819045
-819269
-821791
-823181
-823396
-828261
-828820
-825584
-824549
-824017
-820277
-820477
-822983
-824212
-824462
-829371
-829770
-826588
-825592
-825395
-821367
-821476
-823996
-825298
-825673
-830551
-831046
-827929
-827082
-826829
-822910
-823105
-825589
-827117
-827409
-832443
-832829
-829793
-828815
-828789
-824847
-824996
-827559
-828962
-829172
-834064
-834451
-831299
-830359
-830145
-826294
-826479
-829139
-830323
-830847
-835624
-836140
-833034
-831942
-831840
-827943
-828098
-830627
-831959
-832218
-837135
-837430
-834492
-833548
-833301
-829239
-829472
-831964
-833179
-833567
-838474
-838686
-835632
-834708
-834489
-830547
-830897
-833344
-834565
-834852
-839635
-839923
-836842
-835772
-835602
-831468
-831794
-834226
-835474
-835706
-840502
-840874
-837737
-836810
-836588
-832545
-832730
-835326
-836519
-836813
-841763
-842105
-839077
-838312
-838237
-834248
-834684
-837131
-838481
-838756
-843843
-844154
-841250
-840466
-840347
-836431
-837121
-839634
-840928
-841174
-846089
-846311
-843441
-842638
-842497
-838615
-839026
-841523
-842775
-843069
-848018
-848121
-845276
-844355
-844220
-840260
-840713
-843225
-844440
-844578
-849558
-849573
-846748
-845776
-845618
-841652
-842112
-844463
-845679
-845969
-851006
-851154
-848376
-847546
-847424
-843584
-844147
-846560
-847815
-848118
-853229
-853358
-850677
-849804
-849699
-845807
-846467
-848843
-850144
-850306
-855027
-855275
-852528
-851696
-851495
-847551
-848136
-850448
-851642
-851934
-856798
-856787
-853889
-852958
-852824
-848989
-849510
-851782
-852900
-853237
-858088
-857881
-855050
-854269
-854020
-850124
-850728
-853028
-854149
-854453
-859322
-859168
-856454
-855781
-855617
-851654
-852333
-854660
-855619
-856147
-861148
-861141
-858412
-857612
-857352
-853543
-854288
-856653
-857629
-857907
-862663
-862511
-859713
-858983
-858670
-854887
-855587
-857916
-858981
-859239
-864002
-863913
-861147
-860285
-860032
-856252
-857064
-859328
-860465
-860777
-865611
-865621
-863005
-862272
-861887
-858047
-858734
-861073
-862048
-862380
-867156
-866806
-864119
-863418
-862911
-858818
-859490
-861392
-862037
-861807
-865879
-864934
-861468
-859877
-858872
-854087
-853614
-854837
-854663
-853825
-857204
-855691
-851614
-849510
-847947
-842722
-842066
-843079
-842661
-841548
-844901
-843340
-839366
-837320
-835723
-830711
-830264
-831368
-831152
-830355
-833961
-832587
-828770
-827004
-825845
-821047
-820916
-822387
-822543
-822181
-826252
-825091
-821855
-820429
-819700
-815317
-815629
-817368
-817835
-817809
-822021
-821484
-818441
-817358
-816720
-812534
-813034
-815127
-815724
-815911
-820441
-819899
-817012
-816113
-815641
-811666
-812325
-814524
-815281
-815761
-820382
-820126
-817421
-816632
-816157
-812509
-813193
-815420
-816409
-816764
-821323
-821055
-818399
-817698
-817434
-813685
-814518
-816774
-817652
-818049
-822731
-822270
-819599
-818907
-818458
-814605
-815321
-817584
-818475
-818767
-823510
-823101
-820355
-819651
-819246
-815433
-816133
-818224
-819170
-819450
-824137
-823678
-820811
-820123
-819644
-815967
-816704
-818952
-819736
-820071
-824760
-824392
-821748
-820928
-820389
-816611
-817381
-819457
-820114
-820547
-825078
-824585
-821915
-821151
-820677
-816921
-817665
-819707
-820507
-820804
-825381
-824910
-822291
-821534
-821047
-817236
-817917
-819949
-820694
-820916
-825484
-824923
-822199
-821431
-820880
-816901
-817667
-819751
-820328
-820628
-825101
-824600
-821659
-820839
-820282
-816319
-817029
-819044
-819639
-819694
-824250
-823678
-820643
-819935
-819435
-815378
-816125
-818183
-818759
-818929
-823400
-822758
-819997
-819131
-818545
-814599
-815367
-817424
-817995
-818175
-822764
-822123
-819351
-818543
-818106
-814246
-815016
-817290
-817961
-818084
-822802
-822236
-819661
-818983
-818646
-814728
-815496
-817695
-818432
-818587
-823023
-822686
-820117
-819417
-819030
-815184
-816059
-818137
-818843
-819091
-823956
-823582
-820877
-820160
-819916
-816140
-817051
-819264
-820051
-821222
-825432
-824777
-822314
-821687
-821492
-817747
-818800
-821055
-821790
-822188
-827032
-826853
-824245
-823765
-823584
-819917
-821052
-823417
-824210
-824623
-829417
-828964
-826450
-825999
-825899
-822196
-823176
-825648
-826434
-826747
-831711
-831310
-828772
-828173
-828058
-824310
-825153
-827457
-828242
-828325
-833165
-832575
-829989
-829405
-829165
-825286
-826270
-828394
-829198
-829229
-834139
-833688
-831180
-830495
-830339
-826520
-827568
-829786
-830648
-830844
-835781
-835226
-832732
-832214
-832157
-828343
-829353
-831698
-832556
-833208
-837755
-837168
-834550
-833870
-833820
-829968
-831008
-833278
-834073
-834303
-838912
-838557
-835946
-835354
-835215
-831304
-832278
-834575
-835371
-835440
-840194
-840057
-837583
-836567
-836420
-832564
-833169
-835684
-836533
-836684
-841422
-840974
-838417
-837764
-837607
-833753
-834812
-837013
-837611
-837715
-842492
-841993
-839315
-838752
-838638
-834649
-835588
-837837
-838538
-838608
-843418
-842874
-840188
-839582
-839423
-835485
-836510
-838677
-839502
-839464
-844290
-843652
-841004
-840333
-840164
-836327
-837327
-839637
-840351
-840556
-845386
-844936
-842241
-841672
-841604
-837707
-838762
-841247
-841907
-841986
-846891
-846376
-843908
-843306
-843378
-839573
-840569
-842881
-843667
-843650
-848593
-847762
-845370
-844843
-844669
-840828
-841842
-844169
-844804
-844833
-849624
-848950
-846006
-845236
-844896
-840691
-841417
-843281
-843406
-842879
-847159
-845938
-842432
-841011
-840682
-835495
-835305
-836791
-836462
-835488
-839358
-837770
-833973
-832418
-831327
-826266
-826103
-827511
-827173
-826093
-829976
-828342
-824657
-822961
-822072
-817266
-817450
-818870
-818799
-817945
-822128
-820721
-817390
-815941
-815183
-810733
-811078
-812850
-812894
-812432
-816501
-815506
-812371
-811113
-810697
-806430
-806844
-809027
-809480
-809211
-813858
-813186
-810248
-809291
-808982
-805091
-805798
-808142
-808700
-808730
-813505
-812985
-810247
-809551
-809408
-805644
-806601
-809021
-810065
-809784
-814610
-814234
-811433
-810817
-810767
-807006
-807842
-810216
-810918
-810915
-815874
-815300
-812493
-811895
-811718
-807728
-808627
-811060
-811710
-811520
-816334
-815897
-812956
-812453
-812367
-808422
-809279
-811673
-812320
-812432
-817331
-816873
-814088
-813614
-813617
-809844
-810763
-813386
-814081
-814303
-819305
-819102
-816367
-815936
-816036
-811946
-813089
-815773
-816570
-816722
-821577
-821150
-818533
-817932
-817956
-813993
-814951
-817400
-817995
-817950
-822805
-822233
-819447
-818709
-818545
-814791
-815399
-817726
-818392
-818345
-822936
-822557
-819676
-818897
-818769
-814764
-815425
-817832
-818444
-818376
-823096
-822555
-819719
-818884
-818718
-814788
-815380
-817833
-818383
-818267
-823115
-822478
-819438
-818711
-818530
-814552
-815160
-818038
-818212
-818065
-822818
-822276
-819444
-818668
-818526
-814526
-815333
-817813
-818224
-818163
-822827
-822408
-819405
-818645
-818379
-814410
-815120
-817575
-817980
-817969
-822871
-822318
-819335
-818715
-818542
-814694
-815487
-818010
-818692
-818745
-823660
-823295
-820402
-819762
-819685
-815787
-816554
-819330
-819952
-820019
-825027
-824691
-822044
-821486
-821562
-817648
-818447
-821210
-821932
-822046
-826970
-826718
-823872
-823301
-823313
-819364
-819932
-822721
-823356
-823476
-828200
-827925
-824955
-824564
-824640
-820768
-821451
-824262
-824824
-824909
-829691
-829345
-826447
-825933
-825972
-822595
-822956
-825723
-826313
-826376
-831292
-831037
-828174
-827747
-827768
-823966
-824718
-827629
-828162
-828342
-833159
-832941
-830273
-829923
-829716
-825842
-826638
-829414
-829837
-830092
-835047
-834699
-831669
-831271
-831231
-827336
-828158
-830956
-831412
-831464
-836077
-835826
-832723
-832167
-832253
-828159
-828804
-831585
-831879
-831940
-836481
-836082
-833021
-832453
-832628
-828592
-829432
-832291
-832604
-832692
-837546
-837028
-834136
-833544
-833634
-829720
-830927
-833146
-833564
-833648
-838554
-838224
-835097
-834622
-834627
-830824
-831532
-834451
-834836
-834898
-839844
-839431
-836555
-836074
-836239
-832409
-833184
-836049
-836537
-836721
-841581
-841223
-839215
-838257
-838059
-834345
-835124
-837939
-838443
-838361
-843337
-843228
-840356
-839913
-839930
-836242
-836861
-839592
-840104
-840170
-844872
-844511
-841591
-840960
-840887
-837114
-837834
-840500
-840991
-841074
-845545
-845190
-842159
-841511
-841449
-837535
-837838
-840255
-840465
-840133
-844333
-843679
-840121
-838875
-838268
-833824
-833556
-835329
-834757
-833933
-837569
-835891
-832036
-830371
-829163
-824249
-823579
-825075
-824256
-823136
-826631
-825040
-820823
-819088
-817784
-812857
-812396
-813865
-813520
-812381
-815789
-814499
-810836
-809412
-808497
-803835
-803780
-805530
-805245
-804729
-808777
-807779
-804524
-803395
-802657
-798393
-798622
-800740
-800835
-800646
-804918
-804183
-801019
-800062
-799812
-795588
-795969
-798283
-798548
-798706
-803329
-803029
-800378
-799534
-799406
-795482
-796253
-798921
-799324
-799288
-803839
-803138
-800355
-799506
-799376
-795479
-796329
-798883
-799388
-799577
-804232
-803588
-800589
-799652
-799632
-795680
-796571
-799103
-799782
-800047
-804964
-804572
-801814
-801245
-801167
-797017
-797659
-799935
-800208
-800357
-805146
-804433
-801892
-801167
-801072
-796962
-797802
-800114
-800843
-801291
-806170
-805875
-803577
-803206
-803317
-799531
-800457
-802935
-803473
-803872
-808934
-808276
-805742
-805026
-804975
-801157
-802215
-804817
-805747
-805832
-810552
-810040
-807539
-806857
-806677
-802614
-803664
-806166
-806678
-806971
-811792
-811055
-808221
-807468
-807276
-803149
-803913
-806071
-806472
-806445
-811211
-810422
-807576
-806812
-806616
-802520
-803111
-805614
-805943
-806163
-811002
-810226
-807408
-806687
-806524
-802219
-803183
-805438
-805831
-806020
-810829
-809932
-807279
-806531
-806349
-802200
-803226
-805456
-805863
-806161
-811037
-810113
-807426
-806677
-806627
-802324
-803360
-805522
-805853
-805981
-810847
-809881
-807223
-806500
-806378
-801996
-802985
-805288
-805625
-805835
-810661
-809825
-807351
-806774
-806808
-802347
-803665
-806157
-806703
-807102
-812346
-811519
-809135
-808627
-808736
-804723
-806089
-808482
-809805
-809786
-814789
-814034
-811612
-811140
-811291
-807333
-808536
-810966
-811445
-811895
-817043
-816086
-813672
-813134
-813191
-809074
-810341
-813149
-813229
-813608
-818523
-817605
-815197
-814679
-814708
-810728
-811911
-814252
-814663
-814861
-819793
-818678
-816182
-815656
-815559
-811409
-812777
-814833
-815258
-815543
-820470
-819468
-817148
-816617
-816626
-812786
-814220
-816491
-817014
-817401
-822248
-821331
-819030
-818515
-818627
-814652
-816123
-818312
-818880
-819249
-824187
-823161
-820997
-820674
-820651
-816931
-818261
-820365
-820930
-821351
-826260
-825310
-823209
-822644
-822623
-819072
-820431
-822672
-823107
-823517
-828459
-827450
-825358
-825047
-824768
-821790
-822751
-824832
-825249
-825458
-830132
-829215
-827053
-826470
-825970
-822412
-823783
-825762
-826122
-826388
-830996
-829674
-827464
-826946
-826302
-822849
-824160
-826150
-826445
-826696
-831179
-830052
-827857
-827396
-826743
-823437
-824837
-826958
-827174
-827637
-832184
-830879
-828836
-828350
-827694
-824642
-826053
-828137
-828376
-829021
-833475
-832294
-830210
-830150
-829150
-826034
-827647
-830439
-830233
-830901
-835236
-834120
-832147
-831836
-831000
-828061
-829546
-831721
-832084
-832842
-837149
-835883
-834047
-833610
-832745
-829973
-831503
-833543
-833924
-834973
-839117
-837722
-835713
-835358
-834117
-831282
-832677
-834619
-834720
-835434
-839060
-837186
-834786
-833863
-831942
-828541
-829268
-830511
-829906
-830116
-832924
-830218
-827213
-825586
-823127
-819171
-819492
-820181
-819150
-819072
-821668
-818710
-815469
-813768
-811014
-807148
-807741
-808421
-807564
-807825
-810369
-807651
-804687
-803391
-800612
-797456
-798326
-799408
-798835
-799590
-802538
-800060
-797649
-796603
-794251
-791297
-792534
-794003
-793816
-794881
-798032
-795748
-793511
-792732
-790537
-787807
-789163
-790868
-790769
-792151
-795340
-793057
-790915
-790271
-788028
-785530
-787167
-788973
-789081
-790707
-794025
-791824
-789880
-789436
-787307
-784956
-786865
-788748
-788950
-790959
-794345
-792215
-790551
-790177
-788178
-786048
-788210
-790125
-790532
-792700
-796097
-793979
-792270
-791960
-789853
-787794
-789754
-791633
-791916
-794112
-797381
-794979
-793214
-792809
-790361
-788101
-790138
-792095
-792258
-794482
-797750
-795279
-793547
-793135
-790645
-788597
-790629
-792523
-792766
-795107
-798359
-795936
-794286
-793910
-791430
-789578
-791655
-793707
-794096
-796574
-800098
-797403
-795696
-795470
-792949
-791100
-793496
-795590
-795923
-798520
-801730
-799275
-797685
-797435
-794833
-793001
-795296
-797171
-797438
-799914
-802928
-800260
-798597
-798128
-795222
-793326
-795440
-797169
-797246
-799813
-802585
-799864
-797957
-797430
-794475
-792453
-794541
-796043
-796040
-798500
-801287
-798337
-796464
-796000
-792970
-790891
-792997
-794679
-794677
-797469
-800104
-797249
-795528
-795181
-791934
-790320
-792606
-794263
-794475
-797437
-800273
-797347
-795795
-795414
-792380
-790820
-793111
-795022
-795303
-798217
-800775
-798028
-796466
-796130
-793039
-791400
-793795
-795501
-795750
-798769
-801376
-798372
-796855
-796489
-793379
-791838
-794112
-795812
-796060
-799026
-801551
-798458
-796814
-796511
-793256
-791885
-794294
-796036
-796347
-799490
-802063
-799047
-797814
-798021
-794389
-792959
-795439
-797279
-797528
-800865
-803426
-800596
-799281
-799103
-795973
-794783
-797336
-799269
-799660
-803187
-805711
-802793
-801682
-801522
-798225
-797281
-799767
-801661
-802026
-805611
-807880
-804857
-803669
-803477
-800043
-798990
-801173
-803105
-803613
-807794
-809621
-806508
-805250
-804965
-801524
-800530
-802991
-804844
-805236
-808740
-810835
-807828
-806542
-806216
-802724
-801682
-804314
-805888
-806330
-809937
-812032
-808993
-807904
-807590
-804119
-803244
-805642
-807457
-807926
-811767
-813684
-810612
-809612
-809410
-805820
-805077
-807724
-809365
-809688
-813629
-815605
-812400
-811314
-810918
-807385
-806708
-809229
-811019
-811454
-815263
-817020
-813787
-812741
-812474
-808706
-807907
-810298
-812032
-812282
-816261
-817967
-814778
-813604
-813451
-809671
-808893
-811433
-813130
-813446
-817579
-819318
-816126
-815010
-814656
-810880
-810454
-812904
-814627
-814954
-819236
-820731
-817542
-816455
-816298
-812381
-811880
-814387
-815960
-816257
-820559
-821930
-818643
-817604
-817308
-813302
-812690
-815229
-816806
-817063
-821214
-822523
-819198
-818040
-817653
-813734
-813224
-815566
-817208
-817543
-821837
-823151
-819929
-818783
-818513
-814502
-814167
-816733
-818374
-818782
-823303
-824678
-821382
-820303
-820277
-816312
-815997
-818587
-820430
-820818
-825466
-826732
-823693
-822630
-822613
-818676
-818515
-821036
-822722
-823024
-827704
-828957
-825827
-824679
-824296
-820222
-819640
-821982
-823365
-823073
-827371
-828033
-824225
-822279
-821439
-816543
-815439
-817037
-817622
-816790
-820493
-820463
-816120
-813862
-812433
-807216
-805920
-807211
-807667
-806631
-810167
-810020
-805667
-803471
-802019
-796953
-795721
-797164
-797793
-796973
-800653
-800744
-796531
-794498
-793491
-788742
-787794
-789420
-790310
-789798
-793947
-794361
-790421
-788649
-787862
-783298
-782608
-784752
-785868
-785579
-789764
-790323
-786786
-785318
-784766
-780460
-780012
-782305
-783561
-783538
-788034
-788943
-785516
-784193
-783806
-779604
-779424
-781865
-783354
-783500
-788278
-789075
-785755
-784668
-784445
-780337
-780326
-782744
-784284
-784460
-789288
-790048
-786745
-785571
-785431
-781356
-781191
-783585
-785118
-785301
-789968
-790733
-787370
-786177
-785938
-781847
-781724
-784142
-785577
-785661
-790464
-791107
-787806
-786659
-786340
-782249
-782206
-784637
-786124
-786295
-790984
-791649
-788361
-787376
-787200
-783096
-783077
-785613
-787059
-787414
-792280
-793092
-789792
-788874
-788753
-784664
-784661
-787350
-788873
-788857
-793860
-794739
-791581
-790531
-790406
-786325
-786330
-788925
-790358
-790640
-795491
-796184
-792900
-791890
-791637
-787540
-787436
-790012
-791179
-791355
-796010
-796565
-793283
-792051
-791723
-787445
-787411
-789772
-790998
-791055
-795762
-796366
-793052
-791762
-791385
-787338
-787178
-789494
-790802
-790896
-795620
-796159
-792901
-791747
-791441
-787355
-787272
-789665
-791005
-791203
-795965
-796569
-793323
-792265
-792017
-787984
-787591
-790366
-791648
-791851
-796645
-797074
-793781
-792850
-792522
-788504
-788415
-790943
-792189
-792390
-797155
-797799
-794452
-793387
-793147
-789047
-789195
-791723
-793008
-793182
-798009
-798639
-795390
-794415
-794146
-790172
-790349
-792839
-794160
-794470
-799253
-799740
-796627
-795605
-795426
-791428
-791556
-794050
-795476
-795663
-800560
-800973
-797950
-797011
-796701
-792846
-793101
-795611
-797003
-797228
-802155
-802644
-799668
-798706
-798566
-794618
-794916
-797272
-798645
-798910
-803856
-804259
-801135
-800362
-800252
-796283
-796598
-799114
-800419
-800792
-805727
-806188
-803128
-802207
-802093
-798184
-798580
-801025
-802410
-802633
-807651
-808009
-804931
-804084
-803741
-799606
-800060
-802693
-804004
-804200
-809149
-809456
-806463
-805522
-805421
-801466
-801955
-804304
-805661
-805853
-810760
-810954
-807973
-807017
-806994
-802975
-803409
-805767
-807034
-807250
-812072
-812210
-809240
-808400
-808199
-804367
-804707
-807156
-808340
-808495
-813452
-813559
-810560
-809707
-809602
-805718
-806247
-808509
-809692
-809997
-814966
-814928
-812081
-811277
-811044
-807207
-807680
-810098
-811295
-811469
-816383
-816403
-813632
-812772
-812504
-808651
-809261
-811732
-812861
-813141
-818066
-818087
-815315
-814457
-814368
-810431
-811137
-813447
-814712
-815041
-819879
-819709
-817018
-816245
-816009
-812154
-812750
-815128
-816193
-816478
-821440
-821357
-818571
-817832
-817660
-813890
-814492
-816761
-817850
-818205
-823070
-822996
-820201
-819435
-819318
-815405
-816167
-818386
-819457
-819795
-824560
-824483
-821784
-820982
-820664
-816903
-817640
-819904
-820888
-821227
-825989
-825770
-823121
-822420
-822135
-818268
-819059
-821401
-822260
-822615
-827407
-827165
-824560
-823763
-823496
-819826
-820588
-822760
-823761
-824239
-828852
-828558
-825787
-825223
-824895
-821103
-822071
-824267
-825140
-825642
-830408
-830163
-827457
-826805
-826481
-822793
-823655
-825962
-826740
-827235
-832104
-831809
-829285
-828645
-828364
-824739
-825576
-827874
-828859
-829271
-833999
-833707
-831109
-830421
-830080
-826339
-827180
-829434
-830170
-830454
-835017
-834430
-831661
-830459
-829735
-825491
-825821
-827489
-827668
-827362
-831126
-829956
-826315
-824587
-823322
-818524
-818315
-819466
-819196
-818362
-821863
-820243
-816489
-814548
-813060
-808089
-807718
-808746
-808306
-807614
-811181
-809584
-805989
-804173
-802783
-798239
-798117
-799361
-799369
-798793
-802628
-801295
-797975
-796539
-795515
-791011
-791267
-792801
-792940
-792782
-796908
-795979
-792882
-791875
-791121
-786981
-787509
-789421
-789843
-789659
-794165
-793411
-790612
-789733
-789345
-785294
-786112
-788147
-788856
-788912
-793597
-793023
-790410
-789641
-789428
-785559
-786437
-788587
-789364
-789528
-794315
-793875
-791332
-790727
-790541
-786711
-787730
-789926
-790535
-790786
-795563
-795058
-792516
-791713
-791440
-787555
-788502
-790780
-791495
-791640
-796366
-795945
-793295
-792716
-792465
-788775
-789614
-791879
-792555
-792701
-797509
-796936
-794415
-793895
-793735
-789977
-790904
-793208
-794009
-794176
-798937
-798516
-796085
-795560
-795497
-791656
-792598
-794990
-795754
-795917
-801453
-800423
-797693
-797126
-796930
-793085
-794178
-796395
-797110
-797165
-802002
-801422
-798781
-798064
-797737
-793863
-794805
-797047
-797610
-797640
-802489
-801785
-799046
-798224
-798042
-794001
-794865
-796944
-797578
-797582
-802368
-801610
-798823
-797957
-797689
-793751
-794631
-796799
-797252
-797175
-801864
-801142
-798364
-797613
-797519
-793338
-794117
-796415
-797038
-796856
-801812
-801090
-798380
-797639
-797400
-793511
-794460
-796529
-797195
-797050
-801996
-801298
-798590
-797951
-797856
-793835
-794839
-797001
-797682
-797591
-802379
-801899
-799056
-798471
-798372
-794500
-795310
-797747
-798401
-798522
-803354
-802832
-800063
-799601
-799499
-795697
-796682
-799217
-799899
-799885
-804845
-804382
-801815
-801244
-801228
-797480
-798430
-801007
-801641
-801840
-806802
-806360
-803689
-803119
-803178
-799340
-800276
-802822
-803467
-803560
-808662
-808203
-805450
-804898
-805001
-801258
-802204
-804715
-805449
-805582
-810481
-810091
-807399
-806773
-806776
-802967
-803973
-806387
-807048
-807204
-812175
-811740
-808925
-808455
-808438
-804609
-805442
-807973
-808697
-808688
-813699
-813222
-810541
-809958
-810397
-806084
-806913
-809385
-810050
-810212
-815117
-814660
-811988
-811394
-811438
-807470
-808356
-810987
-811534
-811598
-816635
-816203
-813393
-813022
-812988
-809088
-809945
-812489
-813173
-813394
-818249
-817878
-815143
-814543
-814467
-810659
-811532
-814011
-814726
-814855
-819748
-819209
-816350
-815698
-815596
-811565
-812350
-814793
-815395
-815478
-820888
-820079
-816997
-816343
-816346
-812322
-813075
-815556
-816312
-816339
-821210
-820611
-817879
-817313
-817295
-813366
-814141
-816800
-817272
-817381
-822311
-821843
-819019
-818430
-818488
-814581
-815323
-817966
-818385
-818534
-823562
-823170
-820235
-819583
-819696
-815784
-816464
-819170
-819367
-819601
-824499
-824240
-821281
-820730
-820811
-816918
-817656
-820377
-820899
-820988
-825803
-825505
-822362
-821846
-821861
-818017
-818727
-821461
-821866
-821982
-826897
-826609
-823482
-823052
-823078
-819316
-820036
-822886
-823309
-823385
-828343
-827917
-824972
-824468
-825315
-820851
-821476
-824118
-824588
-824717
-829419
-829188
-826236
-825249
-825578
-821721
-822283
-824826
-825174
-825034
-829488
-829426
-825578
-824266
-823711
-819334
-819188
-821096
-820767
-820020
-823697
-822490
-818553
-816954
-815833
-811087
-810493
-812135
-811485
-810389
-813913
-812533
-808485
-806779
-805767
-800841
-800500
-802121
-801597
-800749
-804391
-803760
-799499
-798072
-797253
-792665
-792506
-794505
-794118
-793667
-797615
-796753
-793458
-792349
-791790
-787543
-787833
-789994
-790174
-790055
-794422
-793702
-790615
-789481
-789280
-785171
-785560
-788012
-788165
-788245
-792840
-792271
-789215
-788445
-788262
-784141
-784830
-787246
-787662
-787887
-792597
-792056
-789417
-788756
-788680
-784893
-785763
-788228
-788732
-788844
-793891
-793381
-790696
-789995
-790005
-785984
-786804
-789289
-789728
-790031
-794799
-794257
-791540
-790866
-790835
-786737
-787374
-790058
-790533
-790877
-795837
-795167
-792490
-791929
-791839
-787823
-788701
-791234
-791899
-792309
-797390
-797259
-794423
-793787
-793898
-789891
-790888
-793563
-794161
-794568
-799734
-799089
-796519
-796341
-796231
-791970
-793119
-795438
-796109
-796456
-801563
-800761
-798308
-797577
-797680
-793384
-794475
-796907
-797362
-797618
-802641
-801862
-799117
-798474
-798269
-794060
-795057
-797291
-797601
-797916
-802862
-801951
-799120
-798501
-798343
-793869
-794898
-797098
-797411
-797675
-802445
-801413
-798794
-797972
-797782
-793557
-794588
-796672
-796963
-797259
-801926
-800839
-798185
-797522
-797293
-792972
-794035
-796166
-796371
-796589
-801355
-800111
-797468
-796839
-796680
-792563
-793620
-795749
-796012
-796247
-801036
-799956
-797435
-796796
-796654
-792663
-793929
-795969
-796071
-796542
-801335
-800375
-798112
-797497
-797318
-793450
-794858
-797087
-797478
-797833
-802725
-801645
-799382
-798925
-798708
-795107
-796512
-798809
-799304
-799679
-804450
-803426
-801262
-800957
-800625
-797243
-798646
-800823
-801326
-801687
-806444
-805364
-803279
-802907
-802339
-799201
-800574
-802741
-803078
-803459
-808054
-807001
-804917
-804548
-803757
-800745
-802133
-804322
-804629
-805262
-809651
-808465
-806351
-805900
-805026
-801994
-803585
-805725
-806025
-806831
-811157
-809774
-807795
-807531
-806391
-803718
-805296
-807512
-807808
-808837
-813035
-811773
-809945
-809691
-808559
-805918
-807746
-809883
-810237
-811521
-815639
-814380
-812572
-812355
-810869
-808582
-810391
-812372
-812768
-814101
-818102
-816474
-814586
-814254
-812558
-810206
-812051
-814094
-814278
-815782
-819513
-817709
-815750
-815371
-813512
-811118
-812869
-814847
-814965
-816726
-820181
-818142
-816351
-816075
-814008
-811822
-813779
-815660
-816036
-817849
-821271
-819170
-817380
-817090
-814878
-812580
-814697
-816637
-816812
-818991
-822253
-819879
-818091
-817829
-815494
-813332
-815404
-817244
-817455
-819718
-822876
-820403
-818729
-818287
-815873
-813837
-815924
-817791
-818079
-820336
-823623
-821117
-819440
-819173
-816631
-814688
-817008
-818962
-819330
-822114
-825165
-822555
-820921
-820651
-818189
-816334
-818703
-820787
-821145
-823916
-826894
-824370
-822880
-822553
-819958
-818369
-820734
-822723
-823000
-825840
-828734
-826139
-824574
-824298
-821427
-819513
-821719
-823583
-823754
-826580
-829301
-826428
-824422
-823936
-820748
-818742
-820620
-822005
-821761
-824202
-826174
-822563
-820186
-819158
-815192
-812692
-814011
-814832
-814074
-816059
-817600
-813646
-811168
-809709
-805384
-802810
-804050
-804721
-803921
-806067
-807613
-803479
-800948
-799585
-795223
-792844
-794209
-795037
-794349
-796728
-798263
-794459
-792280
-791196
-786985
-784979
-786800
-787884
-787527
-790276
-792099
-788535
-786664
-785953
-782190
-780476
-782583
-783945
-783803
-787018
-788879
-785672
-784197
-783630
-780061
-778890
-781180
-782789
-783107
-786668
-788659
-785434
-784245
-783700
-780150
-779162
-781660
-783382
-783754
-787442
-789537
-786311
-785076
-784779
-781097
-780219
-782643
-784300
-784717
-788400
-790347
-787130
-785908
-785504
-781837
-780890
-783377
-784840
-785141
-788998
-790754
-787364
-786064
-785570
-781671
-781143
-783411
-785043
-785285
-789260
-790921
-787680
-786347
-786169
-782210
-781617
-783998
-785610
-786019
-790133
-791727
-788528
-787424
-787269
-783405
-782839
-785352
-787097
-787423
-791889
-793317
-790086
-788927
-788613
-784730
-784201
-786739
-788418
-788603
-793199
-794325
-790903
-789823
-789504
-785496
-785108
-787589
-789120
-789369
-793989
-795203
-791846
-790622
-790413
-786366
-786074
-788231
-789967
-790246
-794725
-795804
-792488
-791379
-791110
-787135
-786654
-789021
-790702
-790814
-795382
-796268
-792936
-791766
-791414
-787185
-786780
-789095
-790495
-790656
-795240
-796043
-792568
-791299
-790891
-786586
-786286
-788501
-789969
-790065
-794556
-795359
-791885
-790646
-790278
-786082
-785796
-788200
-789694
-789759
-794422
-795342
-792050
-790938
-790702
-786651
-786581
-789085
-790620
-790841
-795678
-796426
-793246
-792144
-791958
-787978
-787869
-790350
-791847
-792131
-797027
-797851
-794575
-793478
-793495
-789394
-789545
-792068
-793768
-794015
-798927
-799726
-796648
-795625
-795478
-791628
-791679
-794320
-795954
-796774
-801125
-802103
-799012
-798210
-798277
-794316
-794418
-797134
-798662
-799120
-804007
-804718
-801611
-800781
-800631
-796614
-796805
-799373
-800848
-801241
-806069
-806699
-803494
-802580
-802421
-798342
-798419
-801030
-802361
-802664
-807516
-808220
-805064
-804077
-803832
-799918
-799911
-802603
-803911
-804138
-809006
-809686
-806500
-805649
-805482
-801553
-801712
-804221
-805664
-805850
-810822
-811574
-808409
-807549
-807291
-803473
-803633
-806088
-807373
-807759
-812546
-813161
-810157
-809155
-809082
-805013
-805181
-807728
-809166
-809423
-814299
-814951
-811825
-810975
-810812
-806910
-807180
-809711
-810981
-811216
-816339
-816739
-813642
-812615
-812269
-808368
-808649
-811122
-812357
-812442
-817276
-817369
-814336
-813316
-812927
-809040
-809202
-811656
-812789
-812997
-817835
-818001
-814942
-813989
-813668
-809769
-810199
-812608
-813680
-813993
-818950
-819218
-816292
-815559
-815386
-811447
-811887
-814373
-815687
-815877
-820908
-821159
-818399
-817430
-817481
-813557
-814107
-816591
-817790
-818064
-823011
-823098
-820194
-819384
-819333
-815362
-815830
-818246
-819373
-819478
-824372
-824197
-821260
-820168
-819921
-815914
-816071
-818049
-818872
-818551
-822826
-822180
-818840
-817125
-816199
-811544
-811157
-812555
-812622
-811722
-815581
-814355
-810497
-808569
-807250
-802250
-801725
-802713
-802603
-801788
-805394
-804031
-800178
-798143
-796778
-791754
-791495
-792583
-792455
-791782
-795463
-794327
-790663
-788964
-787756
-783090
-783163
-784615
-784789
-784350
-788329
-787447
-784021
-782750
-781950
-777649
-777833
-779654
-780111
-780170
-784534
-783756
-780669
-779763
-779223
-775223
-775809
-777913
-778704
-778841
-783318
-782989
-780298
-779487
-779142
-775393
-776220
-778423
-779279
-779694
-784488
-784051
-781493
-780839
-780421
-776659
-777576
-779668
-780667
-781629
-785881
-785314
-782676
-782038
-781541
-777745
-778614
-780669
-781499
-781555
-786297
-785859
-783266
-782639
-782088
-778327
-779180
-781272
-782094
-782349
-787080
-786624
-784076
-783314
-782976
-779248
-780235
-782478
-783284
-783698
-788349
-787992
-785497
-784880
-784752
-781070
-782021
-784484
-785384
-785739
-790569
-790149
-787694
-787258
-787093
-783314
-784323
-786649
-787367
-787679
-792457
-791863
-789330
-788753
-788367
-784597
-785389
-787652
-788237
-788308
-793042
-792304
-789694
-788910
-788572
-784755
-785638
-787600
-788179
-788347
-792934
-792242
-789534
-788724
-788548
-784562
-785374
-787534
-788210
-788121
-792789
-792069
-789360
-788697
-788466
-784584
-785472
-787685
-788622
-788402
-793093
-792502
-789861
-789279
-789048
-785242
-786031
-788267
-789056
-789022
-793736
-793170
-790509
-789728
-789513
-785504
-786378
-789143
-789369
-788877
-793682
-793035
-790269
-789608
-789346
-785285
-786297
-788465
-789044
-788880
-793622
-793068
-790417
-789680
-789708
-785716
-786736
-789045
-789715
-789734
-794607
-794483
-791635
-790919
-790861
-787180
-788123
-790564
-791397
-791435
-796366
-795806
-793211
-792763
-792760
-788955
-790036
-792440
-793211
-793318
-798299
-797903
-795308
-794727
-794861
-791062
-792000
-794467
-795269
-795893
-800470
-799861
-797155
-796686
-796646
-792846
-793677
-795987
-796773
-796740
-802024
-801279
-798469
-797791
-797808
-793857
-794857
-797482
-798120
-798297
-803293
-802794
-800067
-799468
-799434
-795596
-796426
-798938
-799542
-799763
-804611
-804227
-801299
-800733
-800659
-796809
-797654
-800219
-800829
-801006
-805952
-805403
-802549
-801935
-801746
-798069
-798962
-801535
-802264
-802292
-807284
-806892
-804080
-803525
-803413
-799508
-800442
-803127
-803918
-803943
-808953
-808491
-805605
-804969
-805236
-801348
-802250
-804743
-805438
-805573
-810375
-810062
-807296
-806646
-806644
-802669
-803496
-806170
-806687
-806703
-811638
-811183
-808114
-807543
-807545
-803542
-804278
-806946
-807227
-807044
-811847
-811197
-808004
-807073
-806783
-802585
-802918
-805301
-805268
-804637
-808872
-807802
-803982
-802668
-801864
-797103
-796855
-798737
-798201
-797219
-801025
-799620
-795637
-793866
-792751
-787961
-787676
-789333
-788701
-787727
-791416
-790084
-785933
-784598
-783708
-778964
-778622
-780529
-780031
-779285
-783043
-782042
-778422
-777033
-776456
-772076
-772125
-774275
-774268
-773827
-777898
-777137
-773960
-772988
-772597
-768484
-768832
-771288
-771495
-771324
-775765
-775709
-772410
-771578
-771320
-767366
-768006
-770570
-771018
-771029
-775672
-775232
-772482
-771856
-771819
-767714
-768642
-771231
-771739
-771931
-776746
-776309
-773589
-772932
-772911
-768972
-769839
-772405
-772912
-773052
-777867
-777302
-774508
-774027
-773947
-769875
-770772
-773239
-773777
-774071
-779016
-778436
-776401
-775322
-775219
-771215
-772142
-774598
-775089
-775345
-780320
-779771
-777197
-776720
-776807
-772722
-773806
-776326
-776969
-777309
-782357
-781762
-779262
-778752
-778831
-774818
-776385
-778537
-779103
-779382
-784457
-783831
-781363
-780688
-780746
-776520
-777687
-780103
-780605
-780977
-786048
-785228
-782606
-782082
-782056
-777853
-778940
-781353
-781758
-781970
-786807
-785883
-783390
-782660
-782516
-778102
-779161
-781435
-781664
-781716
-786589
-785431
-782817
-782087
-781931
-777817
-778802
-780859
-781173
-781318
-785903
-784880
-782354
-781753
-781548
-777471
-778756
-780857
-781084
-781350
-786236
-785029
-782648
-782134
-781967
-778128
-779313
-781347
-781607
-781863
-786577
-785395
-783168
-782671
-782308
-778858
-780191
-782305
-782667
-782921
-787606
-786476
-784324
-783975
-783358
-780097
-781409
-783667
-783963
-784429
-788899
-787548
-785548
-785090
-784265
-781212
-782744
-784847
-785244
-785811
-790195
-788868
-786908
-786533
-785613
-782764
-784383
-786458
-786947
-788001
-792199
-790816
-788842
-788595
-787343
-784786
-786608
-788704
-789137
-790431
-794417
-793038
-791121
-790866
-789345
-787026
-788789
-790863
-791068
-792880
-796683
-794898
-793119
-792724
-790919
-788556
-790370
-792253
-792538
-794311
-797853
-795816
-794090
-793925
-792047
-790127
-792311
-794386
-794697
-796685
-800322
-798083
-796243
-795938
-793744
-791546
-793604
-795523
-795848
-798017
-801476
-799280
-797571
-797254
-794948
-793035
-795220
-797318
-797658
-800049
-803519
-801149
-799536
-799358
-796933
-795200
-797521
-799524
-799948
-802528
-805719
-803168
-801555
-801184
-798533
-796547
-798856
-800750
-800962
-803722
-806762
-804197
-802666
-802406
-799658
-798010
-800392
-802453
-802714
-805606
-808392
-805528
-804021
-803700
-800669
-798918
-801354
-803283
-803494
-806632
-809400
-806557
-805148
-804921
-801688
-800238
-802543
-804439
-804429
-807495
-809781
-806620
-804881
-804109
-800378
-798439
-800268
-801225
-800713
-803200
-804661
-800695
-798275
-796891
-792248
-789896
-791111
-791456
-790713
-792889
-793775
-789473
-787065
-785433
-780798
-778609
-779836
-780475
-779621
-782121
-782990
-778911
-776685
-775270
-770798
-768858
-770421
-771315
-770917
-773848
-775120
-771397
-769455
-768638
-764507
-763069
-765056
-766231
-766240
-769638
-771148
-767520
-766052
-765437
-761420
-760492
-762804
-764338
-764496
-768462
-769933
-766542
-765289
-764903
-760898
-760283
-762634
-764258
-764578
-768816
-770219
-766926
-765771
-765421
-761484
-760818
-763427
-765088
-765341
-769632
-771000
-767634
-766487
-766181
-762158
-761666
-764116
-765812
-766110
-770540
-771725
-768387
-767112
-766929
-762918
-762531
-765272
-766691
-766791
-771413
-772477
-769071
-767958
-767650
-763622
-763359
-765814
-767468
-767762
-772559
-773667
-770380
-769279
-769163
-765119
-764990
-767651
-769294
-769683
-774494
-775519
-772357
-771287
-771168
-767166
-767051
-769669
-771216
-771602
-776304
-777277
-774067
-773041
-772857
-768724
-768559
-771071
-772690
-772951
-777757
-778522
-775211
-774113
-773882
-769819
-769712
-772163
-773647
-773852
-778669
-779289
-775893
-774842
-774590
-770476
-770274
-772647
-774206
-774398
-778960
-779718
-776304
-775074
-774789
-770628
-770486
-772893
-774280
-774301
-779034
-779658
-776251
-774962
-774675
-770514
-770334
-772718
-774036
-774020
-778735
-779275
-775821
-774536
-774194
-770042
-770006
-772327
-773679
-773743
-778469
-779224
-775744
-774711
-774478
-770368
-770299
-772805
-774289
-774571
-779457
-780036
-776887
-775907
-775943
-771984
-772331
-774843
-776302
-776711
-781698
-782461
-779409
-778457
-778495
-774739
-774937
-777729
-779095
-779585
-784555
-785171
-782124
-781362
-781180
-777370
-777802
-780511
-782047
-782392
-787361
-787941
-784912
-784031
-784122
-780124
-780490
-783174
-784497
-784910
-789789
-790087
-787627
-786474
-786259
-782402
-782855
-785405
-786796
-786977
-792048
-792328
-789245
-788594
-788641
-784756
-785235
-787756
-789127
-789450
-794341
-794554
-791773
-790996
-790849
-787088
-787662
-790179
-791380
-791729
-796657
-796925
-794163
-793315
-793206
-789426
-790105
-792488
-793611
-793896
-798825
-798729
-795997
-795125
-794873
-791032
-791566
-793993
-795046
-795211
-800097
-799824
-796932
-796185
-795970
-792014
-792683
-794977
-796095
-796367
-801148
-800907
-798177
-797232
-797132
-793343
-794152
-796449
-797518
-797918
-802580
-802222
-799485
-798972
-798623
-794981
-795807
-798072
-799011
-799382
-804087
-803933
-801366
-800649
-800322
-796714
-797672
-799916
-800812
-801359
-805942
-805701
-803160
-802378
-801956
-798255
-799178
-801386
-802307
-802735
-807263
-806825
-804258
-803644
-803306
-799542
-800460
-802699
-803691
-804108
-808691
-808265
-805782
-805187
-804897
-801209
-802138
-804312
-805254
-805565
-810188
-809704
-807091
-806288
-805945
-802080
-802710
-804669
-805232
-805094
-809172
-808129
-804949
-803551
-802485
-797975
-797948
-799088
-798811
-797970
-801483
-799579
-795761
-793859
-792309
-787318
-786908
-787718
-787139
-785962
-789460
-787631
-783797
-781787
-780416
-775365
-775092
-776293
-775945
-775009
-779439
-777401
-773799
-772228
-771305
-766665
-766814
-768307
-768365
-767870
-771996
-770898
-767835
-766633
-765973
-761622
-762220
-764131
-764438
-764076
-768523
-767860
-764883
-763970
-763564
-759296
-760296
-762332
-762842
-762737
-767432
-766763
-764051
-763211
-763035
-759122
-759981
-762203
-762814
-762818
-767612
-767051
-764291
-763593
-763592
-759684
-760671
-762895
-763573
-763510
-768371
-767733
-764983
-764402
-764310
-760429
-761421
-763747
-764323
-764281
-769102
-768575
-765708
-765113
-764941
-761164
-761981
-764402
-765059
-765037
-770069
-769437
-766677
-766108
-766056
-762256
-763133
-765672
-766384
-766559
-771486
-770967
-768317
-767787
-767838
-763786
-764988
-767693
-768378
-768389
-773346
-772962
-770204
-769566
-769531
-765788
-766660
-769045
-769703
-770338
-774774
-774095
-771272
-770723
-770493
-766555
-767292
-769833
-770376
-770207
-775035
-774470
-771581
-770895
-770872
-766812
-767398
-769929
-770462
-770290
-775096
-774604
-771601
-770884
-770692
-766630
-767360
-770086
-770959
-770614
-775326
-774886
-771822
-771084
-771096
-766946
-767694
-770245
-770756
-775041
-771894
-771191
-771151
-767015
-767626
-770292
-770722
-770597
-775441
-774854
-771789
-771038
-771397
-767126
-767588
-770207
-770533
-770366
-775157
-774698
-771651
-770936
-770897
-766947
-767568
-770130
-770328
-770432
-775222
-774749
-771710
-771097
-771128
-767134
-767757
-770566
-771094
-771076
-775890
-775572
-772644
-772024
-772019
-768324
-769089
-771806
-772235
-772467
-777147
-776920
-774126
-773328
-773585
-769659
-770579
-773347
-773922
-774135
-778772
-778576
-775757
-775123
-775169
-771392
-772191
-774967
-775413
-775698
-780423
-780075
-777273
-776885
-776943
-773080
-773991
-776644
-777126
-777338
-782197
-781791
-779103
-778532
-778606
-774743
-775629
-778234
-778862
-779146
-784000
-783405
-780728
-780100
-780077
-776208
-777037
-779557
-780106
-780468
-785182
-784530
-781879
-781382
-781429
-777457
-778328
-780795
-781544
-781800
-786770
-786120
-783557
-782991
-782948
-778938
-779831
-782395
-782823
-783171
-788187
-787592
-784833
-784292
-784239
-780091
-781061
-783591
-784136
-784492
-789512
-788667
-786299
-785690
-785674
-781636
-782713
-785243
-785819
-786132
-791229
-790482
-787966
-787511
-787470
-783369
-784630
-786999
-787623
-788031
-793033
-792131
-789655
-789018
-789106
-785016
-786302
-788673
-788973
-789428
-794256
-793238
-790829
-790253
-790255
-786142
-787398
-789613
-790048
-790254
-794962
-793927
-791624
-790972
-790971
-786951
-788253
-790434
-790830
-791103
-795962
-794831
-792526
-792011
-791761
-788056
-789521
-791593
-792004
-792287
-797058
-795983
-793726
-793396
-792958
-789585
-790941
-793171
-793516
-794044
-798712
-797567
-795511
-795112
-794032
-791042
-792676
-794812
-795097
-795769
-800143
-799002
-796803
-796387
-795363
-792437
-793965
-796020
-796208
-797031
-801191
-799746
-797721
-797301
-795883
-793176
-794833
-796811
-797150
-798311
-802122
-800573
-798654
-798149
-796560
-793954
-795620
-797525
-797567
-798742
-802170
-799939
-797494
-796567
-794049
-790929
-791764
-792913
-792287
-792986
-795339
-792192
-789252
-787702
-784417
-780837
-781537
-782252
-781110
-781622
-783923
-780380
-777168
-775543
-772037
-768482
-769328
-770043
-769075
-769939
-772163
-768720
-765829
-764545
-761177
-758170
-759414
-760405
-759801
-761288
-763822
-760745
-758301
-757468
-754254
-751750
-753424
-755004
-754745
-756927
-759714
-756752
-754732
-754162
-751135
-749021
-751063
-752842
-752896
-755507
-758366
-755215
-753521
-753043
-750059
-748217
-750600
-752331
-752521
-755280
-757986
-755125
-753374
-753082
-749836
-748167
-750513
-752292
-752444
-755431
-758084
-755200
-753695
-753396
-750035
-748575
-751031
-752827
-753025
-756199
-758726
-755728
-754217
-753907
-750495
-749186
-751411
-753106
-753385
-756773
-759165
-756117
-754857
-754526
-751055
-749852
-752336
-754150
-754551
-758179
-760371
-757284
-756172
-755882
-752429
-751518
-754035
-755812
-755949
-759982
-762158
-759029
-757867
-757480
-753885
-753010
-755537
-757239
-757631
-761619
-763331
-760217
-759021
-758525
-754670
-753891
-756304
-757955
-758268
-762239
-763883
-760566
-759341
-758948
-754850
-754135
-756651
-758275
-758388
-762703
-764115
-760716
-759420
-759000
-754976
-754296
-756564
-758129
-758283
-762653
-763866
-760574
-759323
-758858
-754737
-754185
-756600
-758178
-758384
-762809
-763785
-760417
-759072
-758687
-754450
-754001
-756405
-757942
-758080
-762594
-763652
-760349
-758970
-758774
-754590
-754325
-756724
-758296
-758440
-763180
-764242
-760859
-759678
-759435
-755261
-755076
-757649
-759172
-759503
-764338
-765311
-762000
-760920
-760755
-756692
-756629
-759170
-760799
-761106
-765909
-766986
-763722
-762748
-762499
-758625
-759004
-761264
-762836
-763069
-768080
-768947
-765704
-764699
-764607
-760316
-760408
-763065
-764693
-765093
-769877
-770565
-767263
-766263
-766005
-761925
-761933
-764554
-766053
-766375
-771006
-771927
-768778
-767788
-767553
-763591
-763608
-766221
-767632
-767964
-772975
-773571
-770393
-769420
-769385
-765347
-765427
-768177
-769691
-770047
-775052
-775922
-772716
-771870
-771741
-767704
-768115
-770810
-772219
-772667
-777665
-778440
-775322
-774339
-774029
-770079
-770350
-773102
-774604
-774853
-779816
-780490
-777271
-776262
-776116
-772070
-772744
-774923
-776177
-776380
-781280
-781862
-778736
-777682
-777484
-773526
-774253
-776576
-777860
-778155
-782967
-783465
-780478
-779513
-779445
-775547
-775910
-778476
-779895
-780244
-785185
-785582
-782594
-781769
-781777
-777805
-778232
-780725
-782050
-782349
-787250
-787505
-784658
-783652
-783323
-779490
-780050
-782547
-783749
-783854
-788992
-789039
-786091
-785111
-784964
-780902
-781484
-783841
-785109
-785281
-790191
-790092
-787277
-786370
-786227
-782173
-782883
-785115
-786309
-786565
-791368
-791241
-788450
-787780
-787497
-783694
-784280
-786732
-787711
-787987
-792675
-792507
-789740
-789070
-788819
-784975
-785738
-788194
-789159
-789521
-794306
-793984
-791312
-790484
-790291
-786585
-787362
-789745
-790722
-791124
-795863
-795586
-792793
-792105
-791814
-788106
-788862
-791332
-792090
-792372
-797112
-796758
-794072
-793398
-793037
-789174
-790574
-792340
-793199
-793576
-798147
-797758
-795241
-794567
-794283
-790442
-791347
-793593
-794659
-795080
-799777
-799355
-796844
-796235
-795812
-792033
-792890
-795129
-795915
-796004
-800493
-799785
-796697
-795515
-794725
-790256
-790706
-792012
-792051
-791521
-795233
-793646
-789990
-788192
-786723
-781793
-781560
-782627
-782243
-781229
-784698
-783027
-779247
-777341
-775858
-770869
-770757
-771989
-771670
-770734
-774505
-772973
-769528
-767989
-766788
-762043
-762153
-763643
-763642
-763010
-767242
-765792
-762689
-761504
-760737
-756162
-756708
-758518
-758810
-758450
-762835
-761745
-758815
-757896
-757361
-753204
-753858
-755917
-756389
-756183
-760870
-760057
-757334
-757168
-756477
-752407
-753261
-755478
-756138
-756189
-761039
-760494
-757822
-757174
-757143
-753284
-754275
-756690
-757438
-757528
-762535
-762024
-759315
-758862
-758906
-755055
-756043
-758477
-759282
-759361
-764336
-763754
-761131
-760569
-760653
-756717
-757706
-760166
-760818
-760824
-765761
-765333
-762602
-761945
-761962
-758079
-759073
-761551
-762340
-762415
-767216
-766750
-764150
-763540
-763587
-759715
-760680
-763183
-763934
-764004
-768917
-768607
-765830
-765195
-765164
-761322
-762251
-764844
-765464
-765479
-770428
-769902
-767596
-766560
-766481
-762401
-763177
-765716
-766739
-766525
-771148
-770641
-767687
-766880
-766905
-762883
-763466
-766084
-766594
-766577
-771331
-770782
-767822
-766952
-766801
-762737
-763326
-765821
-766274
-766180
-770913
-770223
-767171
-766379
-766165
-761969
-762608
-765133
-765424
-765357
-769976
-769532
-766380
-765566
-765367
-761278
-761881
-764455
-764830
-764503
-769532
-769076
-765954
-765356
-765159
-761126
-761895
-764614
-765107
-765121
-769831
-769473
-766352
-765744
-765791
-761735
-762147
-764993
-765539
-765385
-770188
-769878
-767000
-766197
-766200
-762332
-762962
-765692
-766206
-766282
-770959
-770680
-767847
-767229
-767217
-763504
-764134
-766891
-767461
-767593
-772345
-772061
-769254
-768804
-768865
-765122
-765878
-768484
-769111
-769477
-774258
-773869
-771183
-770622
-770637
-766880
-767728
-770397
-771081
-771273
-776273
-775804
-773124
-772354
-772567
-768701
-769542
-772269
-772901
-773223
-778051
-777617
-774928
-774342
-774338
-770415
-771177
-773810
-774401
-774660
-779646
-779053
-776487
-775794
-775838
-771814
-772785
-775327
-776004
-776319
-781332
-780867
-778284
-777739
-777735
-773730
-774861
-777438
-778009
-778445
-783635
-782939
-780291
-779596
-779694
-775685
-776863
-779356
-779892
-780314
-785408
-784727
-782180
-781618
-781670
-777456
-778678
-781096
-781676
-782091
-787104
-786332
-783766
-783204
-783241
-778980
-780169
-782544
-783023
-783449
-788351
-787533
-784986
-784366
-784325
-780202
-781447
-783760
-784147
-784467
-789298
-788466
-785943
-785497
-785544
-781688
-782729
-785261
-785874
-786471
-791381
-790394
-788119
-787673
-787387
-783742
-785135
-787375
-787657
-787982
-792831
-791617
-789552
-788910
-788603
-785367
-786828
-789049
-789438
-789985
-794722
-793622
-791409
-791794
-790547
-787332
-788681
-790878
-791230
-791670
-796099
-794884
-792534
-791992
-790688
-787423
-788655
-790381
-790164
-790506
-794021
-792014
-789529
-788129
-785832
-782294
-782888
-783951
-783129
-783219
-786094
-783502
-780368
-778822
-776049
-772431
-773042
-773895
-773030
-773417
-776000
-773107
-770277
-768927
-765946
-762632
-763655
-764591
-763998
-764919
-767583
-764902
-762187
-761082
-758286
-755347
-756544
-757950
-757645
-759048
-762084
-759369
-757100
-756244
-753488
-750920
-752569
-754210
-754193
-755954
-758998
-756558
-754306
-753799
-751178
-748891
-750994
-752801
-753002
-755245
-758202
-755788
-754121
-753873
-751199
-749259
-751561
-753497
-753894
-756541
-759680
-757221
-755583
-755434
-752749
-751087
-753457
-755466
-755858
-758891
-761829
-759090
-757612
-757413
-754432
-752943
-755339
-757378
-757785
-760809
-763679
-761034
-759569
-759419
-756203
-754793
-757285
-759262
-759647
-762940
-765677
-762994
-761794
-761563
-758315
-757276
-759711
-761732
-762236
-765767
-768356
-765537
-764325
-764215
-760953
-759941
-762572
-764592
-765168
-768891
-771183
-768312
-767150
-766901
-763625
-762707
-765163
-767002
-767517
-771220
-773224
-770170
-768922
-768510
-764824
-763768
-766347
-767945
-768371
-772078
-773753
-770531
-769197
-768721
-764760
-763975
-766201
-767682
-767962
-772029
-773427
-770147
-768525
-768285
-764261
-763478
-765858
-767407
-767686
-771874
-773268
-769754
-768538
-768209
-764055
-763536
-765930
-767531
-767841
-772280
-773588
-769983
-768879
-768640
-764669
-764110
-766605
-768270
-768469
-772996
-774067
-770690
-769339
-769084
-764839
-764468
-766901
-768501
-768739
-773263
-774418
-771060
-769762
-769495
-765372
-765195
-767781
-769297
-769569
-774350
-775352
-772118
-770841
-770736
-766511
-766182
-768802
-770611
-770998
-775786
-777277
-773692
-772656
-772176
-768223
-768211
-770732
-772257
-772631
-777376
-778290
-775008
-774004
-773689
-769584
-769599
-772003
-773582
-774356
-778780
-779477
-776124
-774946
-774702
-770581
-770443
-772937
-774356
-774600
-779504
-780179
-776845
-775740
-775608
-771634
-771416
-774082
-775603
-775849
-780821
-781535
-778474
-777490
-777303
-773490
-773480
-776081
-777542
-777784
-782548
-783213
-779927
-778963
-778769
-774733
-774789
-777398
-778846
-779105
-783957
-784558
-781499
-780668
-780425
-776453
-776548
-779238
-780648
-780941
-785806
-786472
-783311
-782367
-782231
-778228
-778261
-780802
-782217
-782547
-787456
-787907
-784859
-783974
-784411
-779957
-780042
-782685
-784046
-784412
-789288
-789813
-786721
-785808
-785772
-781865
-782140
-784718
-786081
-786523
-791415
-791758
-788785
-788037
-787853
-783866
-784176
-786601
-787974
-788181
-792991
-793180
-790203
-789200
-788874
-784826
-785182
-787687
-788874
-788990
-793752
-793864
-790690
-789659
-789335
-784983
-785158
-787093
-787748
-787406
-791667
-790940
-787276
-785587
-784540
-779578
-779119
-780510
-780529
-779719
-783400
-782106
-778089
-776072
-774693
-769547
-768928
-770115
-770022
-769137
-772744
-771310
-767287
-765402
-763987
-758997
-758681
-759949
-759836
-759056
-762900
-761662
-757996
-756336
-755300
-750632
-750532
-752010
-752211
-751982
-756081
-755115
-751692
-750460
-749600
-745231
-745549
-747430
-747881
-747778
-752187
-751409
-748508
-747518
-746999
-742960
-743513
-745439
-746249
-746618
-751050
-750614
-747931
-747142
-746691
-742933
-743718
-745923
-746862
-747224
-751848
-751453
-748905
-748113
-747775
-744015
-744873
-747141
-747913
-748365
-753043
-752556
-749928
-749320
-748950
-745168
-746003
-748174
-749019
-749316
-754001
-753534
-750853
-750344
-749926
-746086
-746960
-749155
-750019
-750225
-755033
-754585
-751895
-751245
-751050
-747337
-748358
-750725
-751595
-751986
-756919
-756462
-753916
-753541
-753421
-749783
-750836
-753130
-754013
-754351
-759350
-758839
-756297
-755835
-755559
-751799
-752832
-755009
-755686
-755813
-760532
-759995
-757287
-756555
-756258
-752281
-753250
-755575
-756075
-756016
-760846
-760363
-757520
-756717
-756544
-752502
-753395
-755906
-756225
-756076
-760755
-759992
-757154
-756435
-756161
-752215
-752957
-755056
-755661
-755528
-760242
-759473
-756621
-755860
-755666
-751608
-752502
-754710
-755337
-755230
-759835
-759243
-756394
-755617
-755366
-751440
-752276
-754557
-755067
-754961
-759817
-759201
-756303
-755683
-755477
-751593
-752336
-754705
-755369
-755396
-760122
-759620
-756895
-756173
-756015
-752073
-752907
-755362
-756085
-756124
-761060
-760524
-757776
-757207
-757155
-753321
-754130
-756728
-757500
-757581
-762510
-762017
-759186
-758672
-758718
-754897
-755772
-758436
-759165
-759273
-764299
-763925
-761121
-760615
-760639
-756714
-757633
-760215
-760842
-760915
-765928
-765506
-762653
-762007
-762110
-758156
-758888
-761626
-762124
-762256
-767244
-766811
-764005
-763520
-763405
-759647
-760405
-763159
-763915
-764183
-769049
-768802
-765904
-765289
-765323
-761537
-762403
-765152
-765861
-765924
-770927
-770685
-767707
-767237
-767368
-763482
-764234
-767089
-767731
-767855
-772738
-772490
-769396
-768962
-769115
-765104
-765911
-768638
-769360
-769359
-774373
-773943
-770911
-770494
-770572
-766667
-767417
-770388
-770840
-770952
-775743
-775458
-772430
-771930
-772070
-768307
-768927
-771720
-772116
-772290
-776986
-776650
-773630
-773052
-773155
-769391
-769969
-772688
-772969
-773171
-777661
-777403
-774411
-773717
-773479
-769946
-770562
-773303
-773660
-773725
-778376
-778047
-775113
-774558
-774569
-770721
-771372
-774102
-774561
-774696
-779500
-779138
-776161
-775714
-775607
-771809
-772542
-775231
-775772
-775976
-780821
-780336
-777621
-777094
-777146
-773208
-773965
-776705
-777310
-777628
-782495
-781959
-779112
-778517
-778546
-774691
-775524
-778080
-778658
-778935
-783812
-783211
-780372
-779737
-779760
-775531
-776429
-778832
-779284
-779531
-784160
-783442
-780458
-779551
-779118
-774565
-775022
-776976
-776744
-776412
-780464
-778897
-775251
-773660
-772590
-767297
-767222
-768569
-767706
-766734
-770572
-768457
-764491
-762508
-761255
-755678
-755559
-756611
-755817
-755008
-758866
-756760
-752914
-751280
-750189
-744933
-745027
-746529
-745927
-745413
-749510
-747658
-744404
-743033
-742294
-737268
-737892
-739513
-739242
-739109
-743443
-741941
-739008
-737965
-737678
-733202
-734028
-735932
-736065
-736032
-740536
-739259
-736746
-735986
-736190
-731849
-732934
-734885
-735075
-735285
-739735
-738585
-736267
-735685
-735227
-731623
-732962
-735040
-735316
-735610
-740273
-739162
-736921
-736493
-735714
-732493
-733936
-736055
-736298
-736896
-741276
-739944
-737838
-737382
-736499
-733340
-734883
-736829
-737118
-737813
-741914
-740354
-738294
-737779
-736586
-733561
-735094
-737042
-737209
-738086
-741935
-740394
-738233
-737904
-736363
-733690
-735442
-737480
-737797
-739094
-742856
-741157
-739327
-739025
-737415
-735090
-736822
-738885
-739215
-740963
-744754
-742868
-741020
-740812
-739040
-736658
-738572
-740615
-740883
-742697
-746298
-744295
-742421
-741956
-739873
-737908
-739515
-741600
-741772
-743693
-747017
-744722
-742875
-742333
-739879
-737588
-739535
-741387
-741562
-743555
-746791
-744174
-742358
-741911
-739228
-737026
-739021
-740777
-740980
-743307
-746320
-743576
-741703
-741323
-738387
-736349
-738404
-740235
-740398
-742818
-745737
-743013
-740993
-740695
-737788
-735876
-738076
-739949
-740110
-742675
-745535
-742723
-741050
-740633
-737510
-735666
-737875
-739818
-739901
-742721
-745592
-742619
-741075
-740704
-737483
-735969
-738287
-740064
-740362
-743530
-746157
-743231
-741816
-741562
-738388
-736919
-739483
-741286
-741512
-744823
-747375
-744434
-743073
-742935
-739558
-738371
-740849
-742684
-743060
-746491
-748891
-745968
-744625
-744519
-741068
-739954
-742413
-744203
-744620
-748267
-750539
-747523
-746248
-745933
-742442
-741531
-744041
-745807
-746199
-749953
-752107
-749085
-747951
-747640
-744006
-743169
-745723
-747538
-748051
-751886
-753781
-750727
-749569
-749333
-745486
-744791
-747330
-749088
-749509
-753821
-755623
-752422
-751283
-750958
-747162
-746556
-749006
-750822
-751136
-755444
-756992
-753825
-752692
-752483
-748522
-748188
-750857
-752653
-753050
-757489
-759023
-755807
-754658
-754561
-750659
-750295
-752842
-754633
-754995
-759555
-761052
-757874
-756648
-756370
-752365
-752081
-754649
-756329
-756628
-761162
-762491
-759272
-757994
-757689
-753710
-753374
-756017
-757582
-757701
-762555
-763583
-760254
-759164
-758852
-754755
-754531
-757054
-758632
-758878
-763618
-764725
-761467
-760322
-759972
-756017
-755798
-758300
-760001
-760194
-764930
-765880
-762703
-761556
-761287
-757273
-757029
-759591
-761109
-761452
-766216
-767082
-763831
-762800
-762462
-758468
-758333
-760842
-762412
-762721
-767425
-768199
-764957
-763824
-763639
-759517
-759395
-762073
-763617
-763745
-768693
-769342
-766199
-764988
-764772
-760705
-760768
-763250
-764780
-765080
-769911
-770594
-767380
-766282
-766040
-761899
-761844
-764257
-765577
-765488
-769997
-770310
-766660
-765139
-764333
-759462
-758739
-760465
-761066
-760317
-764242
-763807
-759448
-757286
-755941
-750631
-749424
-750842
-750980
-749933
-753724
-753175
-748606
-746344
-744868
-739669
-738475
-740014
-740106
-739204
-743112
-742527
-738243
-736243
-735042
-730068
-729171
-730916
-731563
-730924
-735134
-734994
-731063
-729260
-728650
-724028
-723629
-725857
-726722
-726526
-730974
-730972
-728125
-726382
-725724
-721364
-721219
-723698
-724705
-724768
-729482
-729593
-726403
-725238
-724897
-720766
-721014
-723543
-724730
-724985
-729890
-730027
-726904
-725979
-725726
-721666
-721857
-724340
-725371
-725539
-730423
-730460
-727477
-726483
-726308
-722221
-722516
-724906
-726022
-726249
-731106
-730997
-728172
-727124
-727479
-722914
-723296
-725783
-726781
-727057
-731796
-731732
-728895
-728014
-727833
-723805
-724355
-726762
-727937
-728231
-732955
-733010
-730139
-729392
-729148
-725372
-726028
-728304
-729555
-729896
-734619
-734548
-731601
-730917
-730697
-726609
-727359
-729603
-730741
-731086
-735736
-735437
-732657
-731812
-731375
-727567
-728322
-730511
-731419
-731689
-736358
-736076
-733218
-732408
-732042
-728024
-728643
-730863
-731712
-732078
-736716
-736206
-733393
-732596
-732125
-728266
-728932
-731187
-732084
-732364
-736795
-736345
-733638
-732881
-732334
-728525
-729255
-731418
-732186
-732581
-737194
-736661
-733949
-733062
-732620
-728735
-729507
-731552
-732297
-732635
-737192
-736609
-733894
-733036
-732563
-728715
-729466
-731632
-732454
-732795
-737392
-736805
-734191
-733365
-732998
-729192
-730159
-732301
-733078
-733354
-738030
-737439
-734972
-734311
-733936
-730210
-731177
-733476
-734292
-734704
-739529
-739125
-736400
-735976
-735662
-732013
-733064
-735320
-736259
-736597
-741428
-740917
-738470
-737955
-737698
-734043
-735082
-737344
-738135
-738447
-743242
-742843
-740317
-739761
-739558
-735758
-736755
-739102
-739933
-740093
-745071
-744634
-742112
-741597
-741550
-737821
-738850
-741216
-741900
-742173
-747198
-746874
-744146
-743695
-743600
-739944
-741029
-743487
-744268
-744483
-749465
-748891
-746401
-745879
-745795
-742090
-743155
-745537
-746335
-746405
-751327
-751034
-748443
-747929
-747690
-744062
-745027
-747514
-748310
-748421
-753344
-752877
-750253
-749689
-749733
-745861
-746863
-749237
-750021
-750067
-755037
-754441
-751866
-751356
-751284
-747410
-748423
-750934
-751692
-751787
-756716
-756307
-753781
-753192
-753306
-749457
-750469
-753032
-753784
-753906
-758791
-758466
-755792
-755248
-755175
-751496
-752370
-754947
-756080
-755729
-760563
-760040
-757343
-756674
-756549
-752629
-753526
-756093
-756721
-756773
-761723
-761207
-758520
-757885
-757870
-753995
-754738
-757293
-757834
-757830
-762723
-762243
-759367
-758775
-759370
-754952
-755689
-758122
-758760
-758748
-763612
-763120
-760309
-759715
-759721
-755732
-756558
-759145
-759815
-759949
-764889
-764439
-761624
-761048
-760829
-757091
-758097
-760631
-761394
-761428
-766160
-765965
-763110
-762630
-762574
-758714
-759543
-762236
-762828
-762930
-767825
-767388
-764537
-763978
-763995
-759856
-760671
-763483
-763976
-764052
-769047
-768737
-765825
-765144
-765268
-761514
-762184
-764886
-765432
-765561
-770504
-770294
-767285
-766803
-766864
-763014
-763836
-766816
-767346
-767416
-772471
-772058
-769225
-768806
-769043
-765109
-766573
-769118
-769608
-769575
-774668
-774461
-771450
-770940
-771102
-767223
-767901
-770679
-771152
-771169
-775914
-775347
-772136
-771349
-770935
-766559
-766801
-768884
-768770
-768027
-771941
-770730
-766662
-765072
-763948
-759057
-758456
-759959
-759121
-757904
-761369
-760028
-755710
-753827
-752581
-747544
-746854
-748401
-747703
-746700
-750186
-748731
-744711
-742974
-741972
-737141
-736760
-738526
-737978
-737321
-741263
-740123
-736616
-735231
-734496
-729931
-729942
-731950
-731982
-731660
-736017
-735157
-731999
-730877
-730544
-726319
-726847
-729152
-729367
-729491
-734045
-733373
-730531
-729684
-729481
-725395
-726130
-728544
-729025
-729256
-734136
-733658
-730908
-730329
-730219
-726275
-727113
-729708
-730181
-730566
-735482
-735022
-732365
-731721
-731763
-727744
-728655
-731218
-731727
-732103
-737062
-736547
-733870
-733166
-733098
-729095
-730034
-732396
-732953
-733246
-738282
-737509
-734916
-734161
-734110
-729971
-730995
-733536
-734047
-734371
-739479
-738695
-736101
-735481
-735503
-731320
-732428
-734894
-735315
-735864
-741028
-740410
-737814
-737267
-737230
-733203
-734299
-736827
-737161
-737707
-743000
-742169
-739618
-739151
-739059
-734773
-735969
-738354
-738852
-739208
-744223
-743192
-740717
-740113
-739958
-735876
-736994
-739208
-739592
-739856
-744844
-743772
-741215
-740532
-740505
-736261
-737350
-739501
-739775
-739955
-744894
-743731
-741172
-740399
-740222
-736190
-737260
-739339
-739588
-739696
-744405
-743316
-740841
-740185
-739761
-735877
-737001
-739040
-739279
-739446
-744087
-742906
-740632
-740010
-739478
-735881
-737103
-739224
-739479
-739718
-744361
-743294
-741059
-741230
-740178
-736544
-737773
-739878
-740222
-740556
-745091
-743858
-741702
-741219
-740521
-737161
-738603
-740843
-741216
-741649
-746139
-744911
-742894
-742500
-741607
-738569
-740112
-742261
-742523
-743342
-747576
-746267
-744403
-744030
-742924
-740194
-741866
-744073
-744505
-745583
-749640
-748383
-746561
-746209
-745020
-742359
-744085
-746225
-746539
-747850
-751848
-750340
-748452
-748141
-746698
-744122
-745880
-747880
-748181
-749646
-753459
-751743
-749838
-749450
-747827
-745499
-747343
-749465
-749762
-751436
-755135
-753425
-751573
-751428
-749607
-747281
-749293
-751400
-751692
-753555
-757202
-755456
-753791
-753545
-751552
-749548
-751644
-753762
-754179
-756193
-759751
-757764
-756056
-755933
-753795
-751756
-753845
-755980
-756340
-758445
-761956
-759662
-757946
-757637
-755419
-753336
-755461
-757304
-757711
-760122
-763440
-761063
-759535
-759337
-756865
-754906
-757092
-759262
-759558
-761995
-765280
-762800
-761110
-760858
-758294
-756436
-758702
-760741
-761629
-763667
-766775
-764342
-762698
-762466
-759883
-758140
-760507
-762438
-762722
-765501
-768553
-765903
-764332
-764122
-761233
-759499
-761934
-763871
-764113
-767000
-770017
-767158
-765628
-765374
-762295
-760778
-763036
-764939
-765255
-768378
-771109
-768295
-766797
-766520
-763380
-761915
-764249
-766115
-766368
-769588
-772216
-769336
-767834
-767659
-764409
-762995
-765510
-767343
-767736
-770824
-773345
-770534
-769063
-768956
-765620
-764292
-766650
-768426
-768532
-771857
-774533
-771471
-769989
-769719
-766286
-765175
-767543
-769162
-769623
-773458
-775701
-772516
-771325
-771126
-767716
-766636
-769077
-770919
-771385
-774987
-777255
-774173
-773165
-772803
-769355
-768439
-770921
-772783
-773318
-777039
-779290
-776372
-775164
-774890
-771523
-770776
-773443
-775215
-775672
-779520
-781524
-778503
-777405
-777113
-773519
-772840
-775317
-777075
-777470
-781248
-783108
-779799
-778461
-777610
-773786
-772890
-775025
-776230
-776009
-779349
-780212
-776480
-774317
-773256
-768352
-766811
-768229
-768839
-767824
-770956
-771439
-767007
-764566
-762861
-757746
-756035
-757400
-757929
-757123
-760193
-760582
-756166
-753872
-752462
-747559
-745934
-747339
-748024
-747277
-750931
-751387
-747325
-745263
-744192
-739441
-738377
-740120
-741028
-740732
-744712
-745370
-741626
-739956
-739181
-734741
-733966
-736130
-737392
-737384
-741653
-742373
-738948
-737506
-737511
-732928
-732300
-734699
-736171
-736437
-740915
-741647
-738647
-737896
-737173
-733091
-732646
-735233
-736755
-737093
-741811
-742875
-739647
-738559
-738170
-734203
-733911
-736510
-738196
-738436
-743123
-744190
-740970
-739918
-739803
-735669
-735544
-738042
-739664
-739962
-744731
-745822
-742599
-741522
-741366
-737239
-737057
-739606
-741322
-741543
-746300
-747411
-744737
-743265
-742854
-739008
-739055
-741662
-743413
-743617
-748656
-749601
-746394
-745554
-745223
-741874
-742239
-744341
-745832
-745912
-751028
-751817
-748675
-747618
-747396
-743230
-743247
-745718
-747171
-747306
-752053
-752699
-749425
-748244
-747923
-743629
-743509
-745808
-747119
-747127
-751782
-752311
-748899
-747621
-746936
-742858
-742638
-744814
-745828
-745993
-750653
-751214
-747693
-746349
-745961
-741751
-741585
-743728
-745039
-744974
-750269
-750377
-746906
-745638
-745138
-740937
-740836
-743271
-744476
-744650
-749354
-749731
-746404
-745641
-744749
-740604
-741114
-743171
-744269
-744442
-749120
-749578
-746256
-745773
-744723
-740569
-740820
-742974
-744116
-744254
-749003
-749428
-746093
-745024
-744776
-740745
-740771
-743203
-744447
-744686
-749646
-750588
-746915
-745905
-745724
-741658
-741857
-744451
-745757
-745991
-751003
-751665
-748506
-747574
-747379
-743465
-743591
-746171
-747750
-747977
-752840
-753538
-750421
-749515
-749438
-745460
-745595
-748264
-749632
-749940
-754720
-755426
-752354
-751470
-752050
-747662
-747680
-750184
-751532
-751928
-756825
-757225
-754071
-753222
-752957
-749087
-749309
-751825
-753200
-753413
-758476
-758967
-755882
-755008
-754766
-750903
-751506
-753861
-755130
-755480
-760397
-760852
-757861
-756923
-756795
-752845
-753327
-755888
-757254
-757615
-762449
-762886
-759801
-758952
-758784
-754926
-755331
-757878
-759144
-759361
-764282
-764428
-761380
-760553
-760427
-756386
-756621
-759070
-760211
-760347
-765255
-765345
-762369
-761429
-761200
-757241
-757675
-759892
-761112
-761343
-766032
-766080
-763178
-762229
-762037
-758072
-758590
-761001
-762145
-762342
-767205
-767252
-764382
-763678
-763475
-759610
-760182
-762533
-763777
-763981
-768923
-768900
-766106
-765362
-765151
-761351
-761940
-764307
-765449
-765723
-770619
-770644
-767803
-766914
-766835
-762869
-763530
-765926
-766910
-767120
-771967
-771818
-769033
-768059
-767686
-763735
-764222
-766436
-767437
-767486
-771934
-771490
-768352
-767203
-766596
-762225
-762212
-763985
-764464
-763937
-768001
-766918
-763208
-761509
-760273
-755361
-755042
-756210
-756053
-755184
-758931
-757486
-753614
-751759
-750399
-745515
-745154
-746303
-746211
-745538
-749157
-747896
-744122
-742547
-741452
-736724
-736812
-738227
-738292
-737976
-741924
-740806
-737515
-736195
-735317
-731059
-731299
-733013
-733496
-733367
-737707
-736937
-733906
-732984
-732309
-728218
-728800
-730852
-731534
-731711
-736224
-735728
-733059
-732171
-731800
-727849
-728680
-730745
-731614
-731969
-736682
-736179
-733585
-732887
-732489
-728695
-729573
-731742
-732621
-733002
-737613
-737159
-734555
-733929
-733476
-729665
-730519
-732572
-733455
-733859
-738489
-738106
-735525
-734767
-734410
-730756
-731646
-733801
-734831
-735227
-739950
-739663
-737160
-736625
-736395
-732937
-733943
-736246
-737242
-737786
-742554
-742329
-739866
-739527
-739319
-735771
-736952
-739206
-740174
-740652
-745530
-745217
-742796
-742232
-742018
-738399
-739442
-741643
-742394
-742639
-747340
-746855
-744170
-743498
-743209
-739418
-740347
-742326
-743021
-743216
-747782
-747239
-744428
-743695
-743359
-739454
-740285
-742280
-742939
-743050
-747589
-746987
-744200
-743492
-743043
-739140
-740064
-742127
-742706
-742724
-747187
-746570
-743762
-742974
-742579
-738637
-739405
-741434
-741972
-741873
-746392
-745720
-742859
-742230
-741737
-737813
-738550
-740620
-741065
-741078
-745696
-745032
-742208
-741567
-741136
-737158
-737959
-740157
-740761
-740827
-745395
-744803
-741996
-741308
-741129
-737219
-738149
-740239
-741101
-741150
-745953
-745461
-742871
-742361
-742139
-738417
-739350
-741681
-742433
-742666
-747545
-746962
-744454
-743925
-743751
-739995
-741088
-743428
-744209
-744371
-749319
-748916
-746188
-745755
-745750
-741933
-742870
-745196
-746080
-746257
-751060
-750609
-747998
-747389
-747399
-743618
-744564
-746849
-747543
-747584
-752419
-751981
-749333
-748797
-748824
-744994
-745975
-748431
-749089
-749251
-754171
-753689
-751052
-750462
-750540
-746772
-747880
-750241
-751055
-751185
-756161
-755693
-753110
-752672
-752764
-748946
-749987
-752477
-753491
-753620
-758537
-758133
-755570
-755050
-755143
-751506
-752490
-754914
-755655
-755830
-760751
-760400
-757715
-756956
-756965
-753145
-754168
-756560
-757316
-757351
-762222
-761622
-758971
-758419
-758399
-754522
-755477
-757750
-758516
-758406
-763344
-762840
-760081
-759568
-759619
-755779
-756708
-759243
-759994
-760067
-765008
-764543
-761892
-761214
-761297
-757530
-758314
-760857
-761562
-761539
-766521
-766089
-763347
-762719
-762629
-758801
-759645
-762023
-762753
-762786
-767682
-767161
-764380
-763751
-763636
-759801
-760635
-763045
-763741
-763646
-768539
-768000
-765086
-764456
-764445
-760479
-761294
-763786
-764503
-764628
-769584
-769061
-766163
-765617
-765595
-761747
-762600
-765181
-765945
-766117
-770925
-770496
-767757
-767237
-767286
-763466
-764317
-766901
-767678
-767874
-772802
-772442
-769736
-769102
-769230
-765463
-766469
-769059
-769715
-769869
-774753
-774476
-771524
-770943
-770885
-766910
-767666
-770045
-770498
-770262
-774766
-773933
-770727
-769544
-768931
-764422
-764368
-766073
-765649
-764770
-768538
-767092
-763026
-761246
-759957
-754976
-754360
-755793
-754976
-753676
-757379
-755741
-751509
-749671
-748450
-743251
-742792
-744089
-743581
-742474
-746280
-744786
-740908
-739308
-738202
-733390
-733304
-735069
-734673
-733950
-737979
-736930
-733165
-731795
-731183
-726652
-726849
-729001
-728930
-728547
-732927
-732154
-728695
-727603
-727209
-722949
-723403
-725778
-725952
-725802
-730411
-729685
-726365
-725698
-725484
-721305
-721958
-724606
-724940
-724872
-729580
-729144
-726037
-725393
-725490
-721393
-722065
-724888
-725302
-725356
-730229
-729980
-726968
-726377
-726329
-722529
-723178
-726132
-726478
-726530
-731371
-730996
-728105
-727476
-727437
-723468
-724162
-726923
-727343
-727359
-731983
-731726
-728573
-728083
-727927
-723999
-724589
-727364
-727830
-727737
-732469
-732144
-729087
-728570
-728651
-724883
-725568
-728513
-729063
-729204
-734067
-733815
-730872
-730458
-730706
-726984
-727822
-730643
-731160
-731416
-736165
-736008
-733147
-732752
-732945
-729154
-729791
-732503
-733059
-733260
-737942
-737733
-734847
-734240
-734342
-730637
-731274
-733855
-734207
-734346
-738849
-738523
-735571
-734874
-734699
-730908
-731437
-733937
-734324
-734370
-738943
-738508
-735593
-734836
-734753
-730920
-731361
-733911
-734267
-734318
-738818
-738357
-735459
-734732
-734666
-730549
-731133
-733610
-734015
-734120
-738536
-738136
-735157
-734343
-734308
-730481
-731017
-733491
-733944
-734168
-738815
-738432
-735635
-735027
-735037
-731196
-731952
-734336
-734913
-735088
-739768
-739298
-736464
-735731
-735574
-731584
-732259
-734764
-735156
-735366
-740190
-739767
-736893
-736192
-736185
-732120
-732967
-735420
-736090
-736339
-741058
-740629
-737998
-737339
-737324
-733468
-734248
-736849
-737357
-737682
-742580
-742146
-739443
-739023
-738970
-735077
-735925
-738616
-739143
-739473
-744516
-744035
-741502
-740963
-741050
-737009
-737874
-740578
-741232
-741538
-746421
-746065
-743398
-742783
-742820
-738889
-739865
-742390
-742945
-743338
-748332
-747713
-745047
-744482
-744447
-740442
-741522
-744011
-744603
-744934
-749911
-749404
-746868
-746204
-746282
-742206
-743183
-745768
-746345
-746745
-751741
-751132
-748638
-748012
-748081
-743984
-745126
-747613
-748216
-748540
-753641
-753012
-750482
-749848
-749938
-745775
-746798
-749201
-749740
-750142
-755214
-754454
-751808
-751223
-751174
-746976
-748093
-750437
-751026
-751412
-756561
-755720
-753030
-752362
-752399
-748285
-749308
-751808
-752300
-752564
-757664
-756793
-754231
-753672
-753732
-749629
-750728
-753230
-753690
-754054
-759275
-758381
-755957
-755468
-755474
-751266
-752433
-754949
-755454
-755824
-760839
-760049
-757562
-756951
-756962
-752798
-754011
-756312
-756842
-757252
-762331
-761508
-759050
-758543
-758523
-754283
-755463
-757865
-758365
-758720
-763844
-762945
-760503
-759975
-760110
-756017
-757321
-759534
-760040
-760529
-765634
-764559
-762230
-761756
-761782
-757764
-759055
-761308
-761730
-762094
-767202
-766074
-763732
-763301
-763259
-759200
-760513
-762766
-763124
-763365
-768344
-767315
-764955
-764354
-764374
-760421
-761471
-763747
-764056
-764502
-769369
-768487
-766044
-765578
-765621
-761643
-762930
-765158
-765595
-765910
-770965
-769822
-767531
-767062
-766848
-763049
-764443
-766609
-767052
-767390
-772193
-771158
-768877
-768468
-768327
-764632
-765859
-768121
-768439
-768822
-773564
-772458
-770303
-769873
-769602
-765853
-767160
-769375
-769697
-770084
-774798
-773819
-771573
-771095
-770706
-767124
-768605
-770834
-771166
-771501
-776383
-775278
-773150
-772835
-772307
-768965
-770373
-772529
-772875
-773307
-778120
-777033
-774903
-774445
-773998
-770777
-772176
-774440
-774757
-775403
-780099
-778985
-776862
-776609
-775940
-772743
-774255
-776459
-776722
-777244
-781955
-780570
-778446
-778011
-777251
-773856
-775287
-777064
-777179
-777221
-781162
-779509
-776848
-775423
-773754
-769599
-770106
-771092
-770162
-769503
-772479
-769974
-766387
-764543
-762053
-757669
-757588
-758104
-757129
-756410
-759113
-756432
-752958
-751250
-748829
-744456
-744792
-745520
-744562
-744083
-747139
-744626
-741491
-739961
-737951
-734090
-734651
-735881
-735252
-735462
-738762
-736537
-733901
-732864
-731081
-727801
-728889
-730321
-730041
-730619
-734262
-732391
-730023
-729269
-727654
-724602
-726037
-727702
-727753
-728600
-732461
-730786
-728546
-728005
-726422
-723710
-725186
-727067
-727320
-728466
-732271
-730580
-728556
-728139
-726505
-723936
-725584
-727490
-727705
-729073
-732852
-731104
-729191
-728781
-727174
-724750
-726395
-728527
-728693
-730088
-733842
-732122
-730234
-729807
-728184
-725679
-727527
-729465
-729609
-731091
-734745
-732913
-730999
-730743
-728737
-726244
-728033
-729953
-730198
-731601
-735252
-733478
-731503
-731132
-729332
-726986
-728725
-730741
-730950
-732624
-736367
-734513
-732667
-732360
-730582
-728357
-730255
-732346
-732634
-734442
-738081
-736321
-734330
-733996
-732066
-729781
-731751
-733694
-733989
-735774
-739312
-737340
-735555
-735142
-733126
-730720
-732716
-734643
-734908
-736652
-740144
-737977
-736036
-735637
-733525
-731261
-733031
-734930
-735005
-736830
-740226
-737973
-736083
-735573
-733246
-730847
-732805
-734681
-734660
-736421
-739741
-737431
-735474
-734959
-732606
-730155
-732051
-733850
-733998
-736008
-739040
-736756
-734663
-734310
-731805
-729595
-731652
-733586
-733729
-735822
-739012
-736666
-734836
-734413
-732101
-730011
-732105
-734089
-734355
-736443
-739821
-737482
-735791
-735417
-733144
-731076
-733239
-735257
-735503
-737789
-741119
-738847
-736938
-736703
-734167
-732085
-734399
-736374
-736487
-738881
-742116
-739721
-738016
-737657
-735172
-733199
-735453
-737473
-737797
-740060
-743384
-740896
-739324
-739083
-736563
-734819
-737027
-739035
-739424
-742016
-745143
-742756
-741234
-740982
-738552
-736700
-739030
-741035
-741433
-744101
-747298
-744960
-743329
-743184
-740533
-738757
-741178
-743215
-743574
-745973
-749311
-746877
-745454
-745200
-742540
-740863
-743109
-745125
-745490
-748119
-751215
-748559
-747136
-746811
-744193
-742374
-744786
-746708
-746903
-749800
-752760
-750018
-748621
-748323
-745504
-743886
-746203
-748164
-748460
-751215
-754191
-751535
-749968
-749750
-746936
-745248
-747732
-749671
-749910
-752705
-755758
-753062
-751563
-751359
-748489
-746765
-749051
-751049
-751299
-754087
-757104
-754403
-752851
-752514
-749607
-747995
-750302
-752122
-751987
-755052
-758023
-755244
-753839
-753526
-750637
-748922
-751203
-753167
-753431
-756390
-759100
-756418
-754948
-754688
-751785
-750311
-753145
-754641
-754745
-757757
-760704
-757991
-756474
-756245
-753246
-751807
-754291
-756250
-756568
-759659
-762433
-759722
-758389
-758204
-755067
-753574
-755955
-757667
-757743
-760826
-763240
-760199
-758311
-757769
-754214
-752036
-753986
-755066
-754711
-757034
-758934
-755232
-753401
-751732
-747559
-745014
-746332
-746934
-746032
-748085
-749518
-745377
-743133
-741520
-737049
-734605
-735899
-736713
-735800
-738075
-739599
-735709
-733352
-732165
-727921
-725792
-727499
-728493
-728005
-730285
-732241
-728796
-726839
-726011
-722046
-720333
-722215
-723539
-723338
-726173
-728342
-725000
-723373
-722768
-719224
-717597
-719858
-721461
-721582
-724596
-727000
-723915
-722500
-722134
-718754
-717436
-719802
-721321
-721565
-724979
-727245
-724169
-722801
-722471
-719173
-717975
-720288
-722184
-722381
-725776
-728166
-725075
-723847
-723645
-720135
-718971
-721496
-723269
-723409
-727027
-729431
-726395
-725129
-724919
-721602
-720522
-723070
-724794
-725151
-728743
-731032
-727964
-726823
-726564
-723184
-722545
-724590
-726526
-726986
-730694
-732973
-730081
-728842
-728745
-725371
-724580
-727211
-729015
-729643
-733341
-735632
-732615
-731603
-731462
-728019
-727097
-729675
-731414
-731985
-735727
-737990
-734826
-733718
-733462
-729969
-729131
-731672
-733391
-733746
-737362
-739421
-736333
-735048
-734441
-730974
-730117
-732559
-734163
-734553
-738027
-740043
-736812
-735987
-735148
-731355
-730403
-732647
-734267
-734411
-738038
-739833
-736550
-735231
-734686
-730983
-730040
-732262
-733842
-734049
-737738
-739563
-736184
-734798
-734273
-730462
-729563
-731807
-733407
-733654
-737305
-739004
-735675
-734337
-733876
-730168
-729308
-731752
-733252
-733619
-737511
-739280
-736081
-734849
-734458
-730572
-729897
-732418
-734103
-734600
-738655
-740724
-737579
-736307
-735909
-732120
-731582
-734008
-735741
-736147
-740072
-741917
-738701
-737614
-737234
-733598
-733064
-735506
-737214
-737725
-741737
-743549
-740482
-739425
-739213
-735604
-734953
-737502
-739188
-739591
-743561
-745446
-742221
-741042
-740713
-736878
-736241
-738758
-740428
-740799
-744791
-746573
-743240
-742222
-741878
-738187
-737752
-740214
-741862
-742308
-746472
-748268
-745009
-744072
-743781
-740079
-739715
-742310
-744038
-744458
-748798
-750528
-747459
-746341
-746179
-742447
-742083
-744709
-746439
-746891
-750867
-752648
-749568
-748449
-748202
-744182
-743856
-746375
-748213
-748588
-752945
-755073
-751410
-750108
-749814
-745892
-745376
-747868
-749484
-749718
-754018
-755471
-752282
-751017
-751184
-746879
-746236
-748756
-750366
-750642
-755041
-756573
-753438
-752244
-752024
-748003
-747667
-750166
-752006
-752440
-756817
-758378
-755123
-754083
-753832
-750120
-749890
-752475
-754221
-754629
-759142
-760813
-757620
-756695
-756491
-752748
-752407
-754977
-756815
-757056
-761572
-763001
-759760
-758555
-758136
-754082
-753541
-755769
-756988
-756881
-760853
-761911
-757936
-756160
-754989
-750215
-748969
-750369
-750911
-750104
-753441
-753484
-748916
-746547
-745041
-739890
-738128
-739259
-739845
-738704
-741873
-741919
-737540
-735116
-733717
-728536
-727057
-728403
-728963
-728247
-731801
-732016
-727751
-725734
-724645
-719721
-719230
-720511
-721330
-720851
-724856
-725415
-721402
-719807
-719050
-714475
-713637
-716218
-717038
-716678
-720925
-721627
-717968
-716507
-716073
-711736
-711162
-713408
-714664
-714768
-719211
-720037
-716679
-715834
-715129
-710794
-710334
-712564
-714144
-714332
-718832
-719849
-716523
-715377
-715024
-710968
-710638
-713031
-714618
-714911
-719521
-720657
-717237
-716138
-715916
-711824
-711487
-713971
-715631
-715883
-720538
-721651
-718221
-717068
-716705
-712646
-712445
-714714
-716153
-716304
-721083
-722090
-718721
-717529
-717281
-713150
-712895
-715219
-716817
-717072
-721749
-722818
-719497
-718452
-717948
-714242
-714067
-716598
-718305
-718578
-723371
-724440
-721048
-720004
-719982
-715981
-715800
-718284
-719992
-720303
-725042
-726070
-722833
-721802
-721712
-717514
-717376
-719784
-721381
-721527
-726142
-727099
-723662
-722449
-722136
-717882
-717591
-719849
-721283
-721399
-725999
-726873
-723428
-722162
-721598
-717360
-717037
-719337
-720815
-720752
-725250
-726001
-722463
-721097
-720748
-716490
-715987
-718401
-719726
-719846
-724378
-725157
-721741
-720459
-720095
-715858
-715618
-718011
-719441
-719512
-724157
-725039
-721557
-720310
-719963
-715904
-715649
-718161
-719569
-719669
-724344
-725262
-721882
-720732
-720336
-716253
-716046
-718495
-720140
-720453
-725188
-726066
-722831
-721596
-721390
-717416
-717232
-719731
-721288
-721561
-726329
-727232
-724026
-722895
-722700
-718561
-718442
-720949
-722449
-722781
-727482
-728249
-724982
-723923
-723717
-719692
-719608
-722092
-723606
-723800
-728596
-729474
-726083
-725083
-724941
-720809
-720839
-723434
-725030
-725375
-730211
-731138
-727825
-726881
-726798
-722842
-722734
-725464
-727065
-727379
-732266
-733070
-729857
-728821
-728877
-724738
-724837
-727464
-728961
-729219
-734105
-735044
-731819
-730828
-730653
-726740
-726688
-729145
-730828
-731013
-735988
-736758
-733514
-732481
-732285
-728166
-728085
-730627
-732168
-732315
-737157
-737869
-734651
-733650
-733281
-729313
-729171
-731676
