PPG
-309548
-309490
-309483
-309465
-309446
-309475
-309511
-309690
-309781
-309926
-309890
-309833
-309770
-309735
-309789
-309772
-309774
-309972
-310078
-310183
-310191
-310125
-310100
-310009
-310033
-310124
-310163
-310260
-310467
-310557
-310588
-310481
-310474
-310442
-310531
-310482
-310510
-310701
-311233
-311073
-311004
-310949
-310852
-310901
-310912
-310888
-310936
-311177
-311362
-311390
-311443
-311369
-311271
-311239
-311288
-311367
-311336
-311462
-311661
-311675
-311691
-311567
-311456
-311467
-311510
-311522
-311606
-311723
-312139
-312144
-312073
-311956
-311904
-311892
-311919
-311959
-311996
-312156
-312286
-312418
-312326
-312255
-312133
-311998
-311983
-311917
-311800
-311846
-311793
-311714
-311430
-311089
-310696
-310321
-310053
-309723
-309341
-309138
-308926
-308653
-308158
-307581
-307097
-306650
-306208
-305944
-305481
-305124
-304917
-304612
-304220
-303691
-303217
-302836
-302494
-302214
-301913
-301735
-301551
-301443
-301172
-300824
-300551
-300317
-300141
-299999
-299822
-299834
-299884
-299797
-299671
-299492
-299289
-299169
-299204
-299149
-299158
-299295
-299419
-299487
-299141
-299181
-299198
-299366
-299478
-299612
-299562
-299498
-299406
-299393
-299336
-299370
-299403
-299528
-299688
-299750
-299721
-299596
-299451
-299353
-299276
-299271
-299243
-299300
-299371
-299398
-299251
-299055
-298960
-298837
-298723
-298649
-298560
-298621
-298657
-298659
-298556
-298331
-298141
-298087
-297971
-297836
-297861
-297888
-297993
-298025
-297889
-297926
-297697
-297574
-297558
-297536
-297490
-297667
-297786
-297895
-297809
-297798
-297940
-297770
-297692
-297799
-297850
-298033
-298300
-298447
-298460
-298344
-298354
-298367
-298446
-298470
-298593
-298813
-299039
-299135
-299142
-299134
-299103
-299133
-299174
-299222
-299268
-299608
-299703
-299757
-299763
-299647
-299820
-299602
-299643
-299620
-299699
-299857
-299988
-300033
-300045
-299900
-299802
-299811
-299764
-299784
-299780
-300037
-300144
-300238
-300143
-300095
-300015
-299969
-299941
-299935
-299888
-300090
-300274
-300386
-300334
-300217
-300206
-300115
-300151
-300182
-300191
-300410
-300513
-300618
-300581
-300512
-300428
-300396
-300409
-300442
-300480
-300671
-300821
-300932
-300876
-300791
-300743
-300748
-300732
-300771
-300798
-300963
-301094
-301194
-301133
-301119
-301050
-301035
-301068
-301067
-301143
-301343
-301490
-301598
-301523
-301449
-301451
-301394
-301433
-301469
-301554
-301677
-301870
-301921
-301907
-301787
-301738
-301753
-301788
-301754
-301802
-301945
-302126
-302203
-302230
-302104
-302049
-301983
-302018
-302011
-302118
-302340
-302474
-302655
-302566
-302493
-302456
-302405
-302473
-302543
-302599
-302760
-302982
-303002
-303013
-302877
-302867
-302857
-302881
-303009
-303138
-303259
-303413
-303538
-303577
-303537
-303485
-303431
-303531
-303601
-303702
-303889
-304029
-304119
-304159
-304061
-304045
-304083
-304173
-304275
-304270
-304575
-304704
-304870
-304880
-304677
-304754
-304836
-304936
-305006
-305139
-305350
-305579
-305714
-305637
-305625
-305674
-305712
-305797
-305865
-306135
-306226
-306439
-306409
-306166
-306146
-306174
-306243
-306558
-306480
-306386
-306296
-306156
-306142
-306147
-306017
-306119
-306107
-306118
-305906
-305549
-305274
-305051
-304887
-304639
-304453
-304369
-304207
-303902
-303510
-303106
-302641
-302288
-301878
-301490
-301146
-300993
-300732
-300380
-300039
-299545
-299333
-298736
-298345
-298065
-297786
-297675
-297504
-297316
-297055
-296757
-296508
-296329
-296144
-296008
-295920
-295947
-295939
-295870
-295701
-295468
-295309
-295159
-295072
-295075
-295081
-295209
-295336
-295344
-295398
-295224
-295219
-295205
-295203
-295216
-295345
-295524
-295654
-295742
-295703
-295562
-295490
-295407
-295414
-295428
-295444
-295542
-295614
-295628
-295562
-295577
-295331
-295168
-295153
-295126
-295135
-295277
-295309
-295323
-295152
-294973
-294883
-294811
-294734
-294650
-294727
-294771
-294749
-294733
-294667
-294490
-294276
-294181
-294155
-294079
-294024
-294159
-294216
-294198
-294056
-293924
-293800
-293691
-293666
-293681
-293675
-293804
-293913
-293962
-293947
-293842
-293778
-293785
-293818
-293908
-293990
-294155
-294400
-294500
-294465
-294414
-294323
-294336
-294430
-294541
-294569
-294795
-294983
-295134
-295144
-295113
-295047
-295135
-295178
-295284
-295368
-295564
-295749
-295832
-295751
-295656
-295579
-295544
-295548
-295601
-295554
-295750
-295856
-295912
-295832
-295698
-295576
-295493
-295443
-295457
-295476
-295673
-295696
-295820
-295707
-295542
-295309
-295373
-295351
-295301
-295336
-295579
-295571
-295698
-295626
-295489
-295416
-295389
-295339
-295376
-295406
-295559
-295626
-295731
-295682
-295542
-295408
-295454
-295412
-295450
-295473
-295642
-295833
-295895
-295884
-295837
-295720
-295753
-295728
-295813
-295902
-296011
-296249
-296330
-296333
-296308
-296202
-296181
-296166
-296210
-296290
-296506
-296654
-296730
-296690
-296615
-296529
-296531
-296560
-296574
-296663
-296884
-297044
-297106
-297111
-297031
-297007
-296973
-297025
-297083
-297221
-297576
-297641
-297777
-297710
-297606
-297544
-297579
-297600
-297656
-297768
-298026
-298157
-298300
-298296
-298180
-298094
-298136
-298220
-298259
-298342
-298556
-298743
-298754
-298711
-298648
-298554
-298639
-298657
-298697
-298796
-298931
-299066
-299124
-299132
-299081
-299023
-299011
-299047
-299154
-299187
-299461
-299602
-299646
-299706
-299551
-299472
-299563
-299607
-299630
-299621
-299877
-300003
-300091
-300113
-299993
-300000
-300018
-300032
-300092
-300124
-300402
-300609
-300614
-300597
-300573
-300564
-300581
-300671
-300766
-300863
-301065
-301465
-301389
-301431
-301350
-301274
-301338
-301511
-301524
-301635
-301843
-302054
-302190
-302253
-302146
-302167
-302236
-302304
-302386
-302444
-302688
-302910
-302900
-302910
-302883
-302826
-302904
-302965
-303014
-303143
-303325
-303428
-303458
-303559
-303672
-303436
-303338
-303392
-303395
-303460
-303532
-303534
-303516
-303369
-303045
-302815
-302581
-302413
-302198
-302044
-301921
-301752
-301505
-301187
-300738
-300368
-300029
-299699
-299452
-299194
-298979
-298774
-298458
-298102
-297713
-297300
-296926
-296663
-296427
-296267
-296311
-296066
-295847
-295583
-295270
-294974
-294785
-294656
-294516
-294576
-294645
-294679
-294608
-294520
-294323
-294160
-294147
-294123
-294221
-294423
-294510
-294547
-294458
-294374
-294331
-294328
-294294
-294306
-294425
-294575
-294682
-294675
-294706
-294556
-294408
-294353
-294391
-294309
-294450
-294589
-294713
-294595
-294515
-294443
-294276
-294237
-294223
-294234
-294250
-294330
-294353
-294400
-294260
-294098
-293949
-293944
-293930
-293855
-293935
-294032
-294194
-294137
-294047
-293854
-293769
-293784
-293752
-293772
-293837
-293960
-294098
-294164
-294126
-294064
-293992
-293944
-294009
-294024
-294117
-294391
-294558
-294678
-294571
-294524
-294609
-294567
-294664
-294748
-294782
-295107
-295230
-295318
-295370
-295486
-295340
-295330
-295454
-295466
-295644
-295846
-296030
-296003
-295989
-295864
-295783
-295744
-295804
-295856
-295979
-296144
-296159
-296176
-296086
-295893
-295718
-295704
-295550
-295522
-295597
-295641
-295697
-295588
-295490
-295353
-295196
-295006
-295011
-294926
-294945
-295041
-295134
-295124
-295012
-294888
-294774
-294789
-294812
-294817
-294927
-295087
-295104
-295186
-295124
-295088
-295007
-295037
-295093
-295343
-295360
-295506
-295593
-295551
-295497
-295386
-295323
-295285
-295310
-295336
-295427
-295580
-295655
-295704
-295673
-295590
-295519
-295510
-295543
-295557
-295644
-295906
-296006
-295994
-296001
-295985
-295907
-295890
-295920
-295942
-295912
-296192
-296300
-296354
-296296
-296283
-296326
-296342
-296368
-296516
-296626
-296875
-297059
-297098
-297172
-297090
-297166
-297196
-297317
-297393
-297596
-297729
-297888
-297912
-297976
-297945
-297936
-298030
-298098
-298188
-298297
-298521
-298723
-298757
-298765
-298647
-298653
-298722
-298832
-298904
-299111
-299302
-299409
-299455
-299475
-299375
-299387
-299435
-299557
-299657
-299830
-300020
-300165
-300289
-300309
-300257
-300193
-300374
-300442
-300523
-300778
-300982
-301164
-301199
-301171
-301178
-301210
-301292
-301393
-301424
-301645
-301867
-302049
-302088
-302059
-302042
-302020
-302038
-302114
-302237
-302386
-302582
-302777
-302862
-302818
-302785
-302849
-302865
-302972
-303081
-303283
-303515
-303668
-303715
-303735
-303788
-303797
-303920
-303982
-304108
-304307
-304517
-304707
-304763
-304764
-304774
-304852
-304912
-305014
-305143
-305392
-305628
-305760
-305821
-305879
-305945
-305960
-306073
-306224
-306329
-306633
-306848
-307085
-307303
-307252
-307300
-307296
-307426
-307572
-307653
-307820
-308029
-308166
-308202
-308213
-308292
-308280
-308341
-308416
-308481
-308700
-308888
-309033
-309134
-309078
-309099
-309124
-309128
-309138
-309206
-309423
-309594
-309617
-309564
-309457
-309207
-309274
-309163
-308985
-308931
-308850
-308760
-308550
-308270
-307888
-307526
-307109
-306743
-306473
-306110
-305870
-305658
-305270
-304865
-304397
-303976
-303465
-303147
-302748
-302415
-302178
-302024
-301486
-301145
-300800
-300490
-300257
-300022
-299828
-299859
-299803
-299720
-299575
-299426
-299311
-299078
-299007
-298979
-298959
-299085
-299173
-299209
-299173
-299142
-299020
-298962
-298981
-298962
-299039
-299089
-299349
-299448
-299380
-299368
-299251
-299219
-299254
-299256
-299265
-299388
-299522
-299521
-299543
-299409
-299328
-299284
-299219
-299171
-299182
-299247
-299301
-299328
-299324
-299231
-299095
-298908
-298895
-298846
-298815
-298917
-298998
-299052
-299031
-298900
-298813
-298646
-298615
-298534
-298516
-298621
-298705
-298833
-298845
-298625
-298519
-298460
-298400
-298432
-298412
-298551
-298690
-298742
-298770
-298696
-298694
-298669
-298689
-298687
-298767
-298944
-299078
-299217
-299205
-299133
-299026
-299004
-299073
-299077
-299199
-299304
-299455
-299639
-299651
-299356
-299458
-299545
-299571
-299615
-299643
-299810
-300002
-300112
-300154
-300071
-299994
-299978
-300002
-299984
-300030
-300184
-300410
-300540
-300563
-300470
-300404
-300358
-300374
-300407
-300440
-300567
-300736
-300935
-300951
-300791
-300829
-300720
-300797
-300835
-300866
-301096
-301308
-301426
-301432
-301416
-301419
-301735
-301918
-302084
-302176
-302169
-302218
-302182
-302240
-302391
-302493
-302739
-302938
-303139
-303169
-303163
-303261
-303212
-303358
-303442
-303612
-303806
-304006
-304233
-304321
-304264
-304329
-304327
-304507
-304679
-304772
-304964
-305217
-305423
-305427
-305460
-305515
-305558
-305623
-305704
-305790
-306079
-306310
-306396
-306503
-306541
-306480
-306408
-306594
-306730
-306837
-307029
-307322
-307519
-307497
-307513
-307551
-307524
-307623
-307722
-307837
-307995
-308262
-308378
-308425
-308449
-308438
-308430
-308505
-308668
-308751
-309004
-309236
-309407
-309438
-309443
-309467
-309440
-309533
-309630
-309708
-309926
-310191
-310381
-310366
-310370
-310478
-310422
-310551
-310555
-310679
-310872
-311183
-311313
-311294
-311319
-311323
-311301
-311396
-311534
-311593
-311791
-312100
-312274
-312296
-312214
-312266
-312332
-312448
-312529
-312632
-312802
-312998
-313253
-313362
-313378
-313357
-313381
-313516
-313610
-313735
-313924
-314225
-314413
-314432
-314429
-314486
-314447
-314562
-314639
-314818
-314892
-315217
-315414
-315337
-315408
-315420
-315505
-315509
-315696
-315704
-315874
-316097
-316233
-316239
-316246
-316245
-316183
-316284
-316386
-316400
-316629
-316852
-316885
-316999
-316963
-317017
-316966
-317018
-317136
-317133
-317355
-317567
-317928
-317695
-317576
-317494
-317527
-317531
-317630
-317659
-317782
-317987
-318088
-318071
-318034
-318075
-318051
-318086
-318312
-318311
-318373
-318549
-318701
-318661
-318570
-318603
-318541
-318568
-318684
-318755
-318868
-319023
-319166
-319157
-319114
-319107
-319048
-319088
-319163
-319188
-319292
-319535
-319600
-319616
-319542
-319519
-319474
-319422
-319496
-319565
-319567
-319727
-319657
-319492
-319280
-319091
-318764
-318581
-318360
-318062
-317843
-317673
-317425
-317061
-316601
-316141
-315712
-315330
-314874
-314530
-314161
-313936
-313649
-313153
-312714
-312237
-311778
-311486
-311098
-310751
-310544
-310387
-310202
-309868
-309506
-309241
-308963
-308790
-308621
-308465
-308497
-308447
-308455
-308268
-308071
-307933
-307834
-307805
-307746
-307654
-307712
-307843
-307863
-307766
-307724
-307607
-307568
-307530
-307457
-307479
-307590
-307741
-307807
-307769
-307655
-307724
-307419
-307486
-307487
-307486
-307507
-307674
-307702
-307599
-307500
-307384
-307204
-307142
-307110
-307006
-307084
-307101
-307095
-306973
-306706
-306528
-306391
-306337
-306241
-306070
-306085
-306146
-306116
-305851
-305668
-305584
-305425
-305358
-305305
-305280
-305287
-305323
-305374
-305352
-305184
-305096
-304966
-304979
-305026
-305022
-305142
-305320
-305529
-305484
-305392
-305413
-305430
-305479
-305585
-305682
-305823
-306095
-306167
-306249
-306244
-306241
-306208
-306349
-306382
-306503
-306710
-306890
-307064
-307094
-307074
-307029
-307083
-307156
-307204
-307264
-307388
-307604
-307758
-307694
-307671
-307556
-307581
-307633
-307711
-307767
-307927
-308152
-308186
-308122
-308012
-307938
-307905
-307899
-307895
-307949
-308089
-308232
-308321
-308190
-308156
-308152
-308053
-308072
-308122
-308137
-308279
-308467
-308578
-308563
-308375
-308362
-308388
-308410
-308465
-308510
-308726
-308827
-308970
-308944
-308907
-308896
-308945
-308959
-309057
-309276
-309407
-309473
-309492
-309452
-309437
-309390
-309534
-309593
-309637
-309822
-310070
-310173
-310103
-310110
-310042
-310015
-310133
-310244
-310294
-310443
-310633
-310777
-310742
-310754
-310661
-310715
-310821
-310899
-310962
-311154
-311311
-311552
-311460
-311422
-311418
-311375
-311399
-311519
-311512
-311689
-311874
-311998
-311971
-311942
-311921
-311929
-312013
-312126
-312205
-312347
-312402
-312589
-312587
-312487
-312501
-312492
-312512
-312604
-312658
-312750
-312975
-313048
-313046
-312932
-312914
-312854
-312831
-312906
-312955
-313132
-313234
-313330
-313392
-313279
-313306
-313305
-313270
-313303
-313412
-313564
-313723
-313823
-313838
-313679
-313639
-313665
-313648
-313724
-313903
-314059
-314124
-314132
-314107
-313984
-313927
-313994
-313995
-314039
-314130
-314263
-314442
-314309
-314261
-314272
-314318
-314404
-314501
-314689
-314812
-315010
-315124
-315148
-315172
-315158
-315153
-315274
-315258
-315369
-315524
-315628
-315761
-315824
-315802
-315741
-315699
-315795
-315810
-315881
-316233
-316232
-316307
-316331
-316389
-316433
-316611
-316862
-316870
-316939
-316839
-316899
-316944
-316985
-317056
-317125
-317308
-317493
-317657
-317652
-317655
-317662
-317723
-317769
-317878
-317915
-318075
-318252
-318417
-318429
-318406
-318379
-318442
-318445
-318529
-318566
-318838
-318983
-319122
-319148
-319063
-319008
-319087
-319172
-319484
-319395
-319547
-319741
-319825
-319868
-319867
-319829
-319923
-319936
-320034
-320185
-320297
-320612
-320639
-320601
-320598
-320541
-320601
-320653
-320720
-320896
-321125
-321237
-321330
-321348
-321278
-321230
-321256
-321214
-321199
-321185
-321216
-321282
-321211
-320919
-320692
-320368
-320132
-319860
-319607
-319416
-319126
-318907
-318673
-318293
-317851
-317458
-317070
-316701
-316387
-316051
-315801
-315603
-315289
-314886
-314542
-314118
-313813
-313582
-313196
-313015
-312887
-312807
-312640
-312540
-312154
-311914
-311709
-311592
-311489
-311388
-311451
-311369
-311413
-311336
-311200
-311089
-310939
-310970
-310930
-310982
-311123
-311267
-311261
-311220
-311152
-311274
-311145
-311102
-311125
-311209
-311358
-311435
-311563
-311567
-311464
-311387
-311354
-311332
-311315
-311385
-311569
-311602
-311636
-311535
-311468
-311613
-311397
-311261
-311238
-311221
-311262
-311350
-311346
-311289
-311120
-310981
-310886
-310822
-310727
-310694
-310798
-310848
-310812
-310687
-310628
-310471
-310413
-310425
-310378
-310387
-310492
-310593
-310660
-310573
-310590
-310612
-310537
-310568
-310667
-310715
-310878
-311039
-311221
-311267
-311162
-311235
-311268
-311403
-311471
-311504
-311728
-311946
-311985
-312080
-311996
-311972
-312018
-312099
-312164
-312211
-312404
-312503
-312576
-312541
-312466
-312361
-312384
-312397
-312402
-312337
-312526
-312571
-312554
-312468
-312339
-312187
-312156
-312128
-312090
-312012
-312147
-312221
-312233
-312143
-311955
-311823
-311781
-311663
-311660
-311603
-311653
-311743
-311718
-311590
-311536
-311456
-311415
-311528
-311536
-311532
-311682
-311821
-311907
-311849
-311762
-311733
-311692
-311738
-311777
-311846
-311992
-312094
-312200
-312223
-312148
-312086
-312110
-312117
-312158
-312286
-312484
-312567
-312702
-312690
-312659
-312696
-312664
-312746
-312784
-312917
-313073
-313254
-313330
-313321
-313254
-313253
-313212
-313348
-313381
-313463
-313646
-313838
-314045
-313946
-313905
-313892
-313940
-314004
-314094
-314178
-314393
-314487
-314615
-314622
-314560
-314521
-314528
-314615
-314725
-314772
-314891
-315005
-315135
-315127
-315063
-314988
-315045
-315134
-315172
-315226
-315397
-315582
-315606
-315652
-315636
-315578
-315559
-315656
-315713
-315823
-316086
-316194
-316318
-316346
-316234
-316280
-316267
-316301
-316344
-316393
-316586
-316740
-316835
-316830
-316709
-316776
-316746
-316801
-316817
-316881
-317023
-317109
-317239
-317197
-317048
-317106
-317100
-317201
-317214
-317248
-317415
-317604
-317630
-317618
-317476
-317531
-317580
-317628
-317642
-317664
-317870
-318024
-318123
-318056
-317974
-318023
-318090
-318150
-318300
-318430
-318574
-318722
-318673
-318609
-318606
-318597
-318661
-318746
-318818
-318996
-319188
-319268
-319286
-319196
-319223
-319236
-319273
-319369
-319497
-319638
-319765
-319848
-319811
-319745
-319759
-319827
-319899
-320007
-320186
-320308
-320403
-320430
-320321
-320274
-320303
-320325
-320373
-320422
-320558
-320686
-320794
-320731
-320665
-320610
-320630
-320714
-320697
-320793
-320960
-321074
-321165
-321110
-321045
-320990
-320987
-321042
-321129
-321195
-321345
-321432
-321536
-321499
-321505
-321396
-321433
-321574
-321598
-321735
-321903
-322014
-322122
-322091
-322018
-322040
-322074
-322143
-322240
-322296
-322473
-322585
-322672
-322661
-322499
-322490
-322473
-322462
-322505
-322407
-322483
-322416
-322320
-322163
-321879
-321588
-321280
-321025
-320742
-320471
-320298
-320038
-319766
-319364
-318889
-318473
-318030
-317727
-317371
-317009
-316659
-316401
-316105
-315677
-315231
-314827
-314506
-314178
-313889
-313699
-313482
-313361
-313140
-313053
-312574
-312305
-312102
-311916
-311860
-311815
-311791
-311822
-311784
-311704
-311580
-311468
-311348
-311356
-311330
-311331
-311510
-311589
-311635
-311619
-311541
-311437
-311415
-311446
-311439
-311546
-311702
-311821
-311829
-311767
-311641
-311614
-311571
-311536
-311558
-311570
-311744
-311720
-311775
-311688
-311539
-311463
-311365
-311362
-311249
-311251
-311361
-311374
-311324
-311198
-311038
-310824
-310842
-310785
-310684
-310689
-310750
-310804
-310770
-310674
-310533
-310353
-310408
-310339
-310366
-310398
-310528
-310601
-310667
-310629
-310459
-310477
-310390
-310494
-310569
-310711
-310869
-311028
-311121
-311248
-311200
-311208
-311268
-311351
-311397
-311583
-311776
-311959
-312097
-312079
-312095
-311989
-312092
-312206
-312262
-312340
-312506
-312576
-312593
-312556
-312587
-312738
-312782
-312833
-312746
-312654
-312520
-312475
-312418
-312391
-312426
-312521
-312550
-312557
-312486
-312313
-312163
-312142
-312130
-312091
-312078
-312262
-312255
-312266
-312187
-312051
-311955
-311941
-311946
-311929
-311932
-312110
-312198
-312165
-312126
-311993
-311932
-311966
-312002
-312036
-312052
-312246
-312340
-312356
-312327
-312216
-312135
-312421
-312263
-312296
-312329
-312542
-312574
-312641
-312673
-312642
-312453
-312573
-312632
-312685
-312879
-313070
-313091
-313059
-312974
-312941
-312965
-313024
-313042
-313175
-313318
-313509
-313561
-313545
-313491
-313453
-313491
-313577
-313608
-313698
-313928
-314044
-314123
-314129
-314015
-314044
-314061
-314177
-314155
-314332
-314500
-314613
-314675
-314629
-314611
-314535
-314647
-314690
-314679
-314765
-314923
-314984
-315036
-315018
-314946
-314878
-314941
-315027
-315050
-315157
-315342
-315398
-315432
-315423
-315363
-315312
-315327
-315378
-315454
-315566
-315739
-315885
-315880
-315821
-315765
-315742
-315750
-315801
-315855
-315965
-316142
-316255
-316263
-316298
-316154
-316108
-316137
-316226
-316259
-316377
-316506
-316692
-316688
-316699
-316587
-316562
-316483
-316582
-316632
-316708
-316932
-316960
-317018
-316963
-316919
-316861
-316855
-316935
-316975
-317076
-317215
-317286
-317397
-317410
-317337
-317268
-317231
-317332
-317376
-317454
-317609
-317722
-317728
-317694
-317621
-317564
-317626
-317578
-317735
-317754
-317898
-317997
-317998
-318013
-317956
-317869
-317903
-317996
-317972
-318075
-318161
-318292
-318306
-318286
-318217
-318177
-318218
-318284
-318369
-318412
-318611
-318754
-318738
-318701
-318653
-318622
-318614
-318736
-318751
-318899
-319040
-319104
-319176
-319226
-319115
-319060
-319061
-319179
-319236
-319366
-319645
-319829
-319819
-319762
-319752
-319805
-319907
-319950
-320083
-320270
-320377
-320486
-320503
-320473
-320420
-320448
-320574
-320590
-320758
-320906
-321018
-320974
-320986
-320867
-320716
-320617
-320558
-320514
-320473
-320400
-320316
-320077
-319781
-319427
-319054
-318810
-318450
-318141
-317825
-317591
-317306
-316931
-316532
-316000
-315551
-315142
-314798
-314531
-314138
-313894
-313625
-313288
-312835
-312405
-311967
-311644
-311364
-311122
-310992
-310789
-310619
-310433
-310208
-309830
-309620
-309458
-309318
-309178
-309200
-309178
-309156
-309047
-308944
-308801
-308674
-308616
-308543
-308631
-308612
-308720
-308743
-308718
-308704
-308581
-308513
-308479
-308459
-308485
-308479
-308640
-308699
-308598
-308522
-308382
-308266
-308238
-308194
-308124
-308190
-308246
-308266
-308169
-308035
-307820
-307691
-307587
-307494
-307432
-307433
-307437
-307444
-307316
-307155
-306927
-306777
-306681
-306609
-306582
-306479
-306557
-306510
-306415
-306319
-306124
-305998
-305939
-305848
-305803
-305882
-305833
-305945
-305915
-305892
-305695
-305625
-305565
-305640
-305657
-305726
-305889
-306024
-306050
-306025
-305999
-305920
-306041
-306107
-306208
-306285
-306552
-306677
-306793
-306763
-306735
-306704
-306770
-306832
-306848
-307068
-307188
-307386
-307419
-307333
-307383
-307280
-307312
-307364
-307324
-307488
-307638
-307757
-307711
-307607
-307480
-307433
-307449
-307454
-307401
-307450
-307523
-307593
-307582
-307411
-307332
-307212
-307131
-307120
-307143
-307207
-307291
-307302
-307269
-307129
-306934
-306904
-306835
-306861
-306828
-306870
-307016
-307003
-307023
-306883
-306810
-306720
-306768
-306785
-306793
-306886
-307005
-307120
-307161
-307086
-307053
-306947
-306978
-307024
-307056
-307177
-307322
-307440
-307446
-307433
-307358
-307286
-307380
-307426
-307498
-307620
-307836
-307992
-307978
-307952
-307865
-307940
-307969
-308020
-308102
-308213
-308453
-308544
-308582
-308472
-308475
-308508
-308546
-308616
-308745
-308821
-308950
-309082
-309151
-309131
-309107
-308988
-309116
-309102
-309114
-309318
-309468
-309579
-309549
-309513
-309458
-309372
-309390
-309431
-309538
-309656
-309769
-309873
-309846
-309774
-309696
-309620
-309697
-309672
-309712
-309842
-310009
-310105
-310095
-310104
-310059
-309971
-309988
-310044
-310114
-310185
-310420
-310529
-310574
-310545
-310504
-310424
-310512
-310595
-310611
-310855
-310921
-311079
-311104
-311103
-310985
-310994
-311006
-311046
-311125
-311239
-311396
-311552
-311609
-311525
-311523
-311540
-311537
-311532
-311569
-311708
-311836
-311995
-312033
-312008
-311912
-311872
-311889
-311936
-312039
-312236
-312428
-312544
-312545
-312525
-312552
-312539
-312574
-312585
-312659
-312818
-312985
-313172
-313182
-313172
-313145
-313113
-313140
-313210
-313370
-313538
-313629
-313841
-313881
-313849
-313819
-313796
-313929
-313954
-314038
-314186
-314327
-314451
-314517
-314456
-314436
-314398
-314462
-314527
-314539
-314714
-314933
-315087
-315074
-315042
-315031
-314980
-315022
-315051
-315076
-315250
-315392
-315526
-315632
-315495
-315524
-315488
-315610
-315608
-315624
-315724
-315892
-316086
-316120
-316024
-315997
-316006
-315970
-316057
-316138
-316271
-316412
-316549
-316632
-316588
-316547
-316572
-316639
-316777
-316842
-317014
-317200
-317317
-317350
-317299
-317286
-317321
-317366
-317445
-317410
-317657
-317759
-317898
-317852
-317704
-317619
-317565
-317485
-317303
-317228
-317237
-317092
-316988
-316774
-316396
-316027
-315592
-315246
-314882
-314567
-314276
-314030
-313776
-313261
-312840
-312323
-311872
-311503
-311055
-310659
-310460
-310231
-309961
-309536
-309170
-308782
-308359
-308030
-307810
-307444
-307420
-307253
-307146
-306932
-306692
-306331
-306158
-306085
-305948
-305841
-305847
-305934
-305954
-305883
-305773
-305687
-305549
-305555
-305472
-305542
-305647
-305711
-305842
-305764
-305641
-305667
-305530
-305567
-305546
-305548
-305616
-305731
-305835
-305818
-305665
-305598
-305476
-305435
-305395
-305357
-305418
-305507
-305512
-305429
-305258
-305077
-304948
-304753
-304741
-304764
-304702
-304724
-304753
-304630
-304494
-304323
-304140
-304009
-303942
-303911
-303924
-303941
-303930
-303831
-303688
-303518
-303391
-303290
-303273
-303212
-303328
-303356
-303451
-303418
-303316
-303230
-303143
-303156
-303118
-303105
-303358
-303480
-303551
-303684
-303617
-303550
-303483
-303593
-303628
-303748
-303842
-304085
-304217
-304298
-304156
-304219
-304127
-304187
-304233
-304285
-304415
-304584
-304724
-304707
-304599
-304588
-304569
-304550
-304560
-304595
-304621
-304755
-304868
-304842
-304725
-304660
-304594
-304488
-304467
-304429
-304555
-304676
-304689
-304565
-304489
-304402
-304200
-304164
-304115
-304132
-304174
-304306
-304298
-304244
-304183
-304102
-303985
-303900
-303864
-303948
-304033
-304180
-304187
-304130
-304154
-304143
-304010
-303988
-304044
-304088
-304230
-304397
-304503
-304506
-304468
-304384
-304306
-304372
-304421
-304441
-304588
-304872
-304950
-305015
-304885
-304938
-304881
-304785
-304880
-305018
-305173
-305378
-305526
-305564
-305523
-305496
-305442
-305501
-305575
-305682
-305817
-305994
-306058
-306128
-306136
-306141
-306129
-306187
-306267
-306340
-306457
-306638
-306783
-306837
-306778
-306744
-306781
-306778
-306825
-306873
-307077
-307236
-307398
-307455
-307363
-307337
-307307
-307373
-307412
-307506
-307615
-307822
-308115
-308290
-308006
-307852
-307796
-307858
-307904
-307914
-308042
-308277
-308371
-308458
-308361
-308360
-308244
-308263
-308322
-308534
-308538
-308769
-308875
-308871
-308809
-308812
-308799
-308845
-308865
-309006
-309181
-309348
-309425
-309488
-309429
-309451
-309441
-309480
-309560
-309661
-309829
-310034
-310184
-310232
-310135
-310224
-310176
-310261
-310293
-310412
-310520
-310668
-310814
-310766
-310805
-310855
-310715
-310821
-310880
-310901
-311029
-311188
-311281
-311309
-311193
-311259
-311227
-311230
-311311
-311380
-311470
-311567
-311711
-311743
-311658
-311695
-311651
-311685
-311704
-311769
-311960
-312145
-312262
-312283
-312277
-312239
-312193
-312275
-312390
-312557
-312648
-312869
-313021
-313090
-313084
-313101
-313048
-313081
-313159
-313253
-313386
-313652
-313772
-313758
-313723
-313760
-313750
-313816
-313840
-313955
-314111
-314330
-314433
-314502
-314445
-314503
-314422
-314435
-314483
-314502
-314655
-314889
-315007
-315081
-315000
-314983
-315022
-315044
-315127
-315157
-315329
-315517
-315646
-315608
-315570
-315597
-315546
-315597
-315643
-315702
-315828
-316079
-316176
-316229
-316112
-316199
-316140
-316163
-316276
-316330
-316538
-316675
-316844
-316829
-316857
-316873
-316981
-316963
-317024
-317104
-317272
-317443
-317647
-317609
-317567
-317544
-317504
-317561
-317683
-317731
-317868
-318071
-318249
-318152
-318221
-318166
-318262
-318326
-318362
-318437
-318663
-318673
-318553
-318508
-318264
-318101
-317976
-317820
-317674
-317512
-317418
-317212
-316802
-316305
-316016
-315533
-315142
-314830
-314393
-314043
-313783
-313431
-312970
-312442
-311913
-311432
-311001
-310637
-310282
-310021
-309845
-309526
-309118
-308678
-308479
-308006
-307737
-307437
-307225
-307056
-307016
-306818
-306657
-306471
-306249
-306012
-305920
-305823
-305730
-305779
-305860
-305880
-305731
-305651
-305552
-305410
-305421
-305469
-305760
-305720
-305618
-305526
-305449
-305444
-305482
-305479
-305533
-305716
-305704
-305634
-305570
-305423
-305360
-305333
-305259
-305187
-305282
-305369
-305403
-305284
-305142
-304973
-304782
-304695
-304662
-304566
-304585
-304597
-304629
-304465
-304229
-304050
-303887
-303822
-303739
-303658
-303667
-303755
-303726
-303641
-303459
-303341
-303149
-303129
-303137
-303056
-303202
-303350
-303444
-303374
-303312
-303251
-303234
-303257
-303295
-303310
-303464
-303667
-303778
-303788
-303698
-303741
-303712
-303717
-303827
-303872
-304071
-304232
-304403
-304386
-304288
-304272
-304213
-304287
-304365
-304372
-304522
-304846
-304834
-304827
-304757
-304745
-304756
-304708
-304772
-304757
-304878
-305091
-305181
-305113
-305078
-305005
-304931
-304930
-304935
-304900
-304986
-305168
-305225
-305136
-305015
-304973
-304895
-304890
-304925
-304869
-304929
-305020
-305117
-305066
-304926
-304843
-304754
-304725
-304702
-304693
-304765
-304963
-305109
-304949
-304889
-304795
-304732
-304757
-304868
-304906
-304968
-305109
-305237
-305310
-305193
-305077
-305104
-305140
-305225
-305295
-305436
-305643
-305733
-305729
-305696
-305651
-305636
-305698
-305772
-305847
-305998
-306211
-306286
-306330
-306284
-306279
-306263
-306259
-306398
-306476
-306656
-306810
-306975
-306974
-306924
-306855
-306918
-306911
-306958
-307084
-307213
-307392
-307510
-307532
-307494
-307460
-307468
-307519
-307557
-307610
-307763
-307965
-308244
-308125
-308044
-308015
-308007
-308044
-308105
-308102
-308262
-308424
-308569
-308560
-308452
-308476
-308412
-308586
-308553
-308569
-308714
-308856
-309011
-309021
-308875
-308900
-308912
-308950
-309049
-309067
-309170
-309375
-309496
-309463
-309438
-309420
-309435
-309452
-309575
-309685
-309857
-310028
-310036
-310034
-309965
-309929
-310021
-310099
-310150
-310261
-310463
-310583
-310573
-310560
-310581
-310470
-310481
-310575
-310611
-310736
-310886
-311068
-311088
-311061
-310888
-310917
-310995
-311054
-311068
-311225
-311359
-311500
-311553
-311410
-311377
-311376
-311387
-311485
-311500
-311649
-311839
-311975
-311951
-311894
-311849
-311793
-311893
-312061
-312244
-312440
-312626
-312656
-312636
-312706
-312619
-312719
-312746
-312939
-313075
-313712
-313878
-314042
-314212
-314268
-314216
-314139
-314160
-314144
-314234
-314291
-314414
-314673
-314809
-314822
-314795
-314756
-314782
-314898
-314943
-315056
-315301
-315422
-315455
-315354
-315350
-315466
-315471
-315523
-315502
-315665
-315964
-316092
-316087
-316058
-316041
-316109
-316169
-316222
-316302
-316395
-316641
-316801
-316723
-316718
-316749
-316746
-316784
-316878
-316928
-317091
-317290
-317419
-317465
-317409
-317394
-317329
-317448
-317493
-317531
-317754
-317934
-318060
-318111
-318065
-318075
-318181
-318272
-318370
-318510
-318754
-318936
-318956
-318879
-318945
-318927
-319062
-319126
-319219
-319406
-319574
-319751
-319773
-319726
-319766
-319764
-319866
-319902
-319936
-320086
-320299
-320428
-320345
-320289
-320224
-320087
-319997
-319966
-319826
-319748
-319749
-319692
-319423
-318983
-318664
-318308
-317979
-317591
-317164
-316928
-316710
-316330
-315940
-315442
-314960
-314476
-314032
-313614
-313309
-312983
-312673
-312500
-312107
-311659
-311160
-310795
-310523
-310165
-309904
-309795
-309654
-309508
-309246
-308893
-308662
-308492
-308317
-308141
-308030
-308182
-308142
-308132
-307953
-307842
-307645
-307622
-307530
-307505
-307422
-307610
-307708
-307767
-307697
-307656
-307536
-307479
-307572
-307562
-307546
-307678
-307773
-307859
-307865
-307743
-307641
-307572
-307540
-307514
-307491
-307626
-307701
-307756
-307689
-307496
-307413
-307314
-307228
-307153
-307138
-307198
-307190
-307248
-307177
-306991
-306832
-306598
-306530
-306589
-306495
-306588
-306626
-306715
-306608
-306446
-306291
-306216
-306212
-306198
-306142
-306276
-306348
-306460
-306368
-306223
-306221
-306163
-306283
-306268
-306275
-306412
-306642
-306729
-306752
-306654
-306624
-306567
-306653
-306624
-306702
-306903
-307050
-307217
-307187
-307083
-307063
-307065
-307024
-307126
-307138
-307268
-307442
-307520
-307429
-307454
-307380
-307368
-307391
-307354
-307384
-307546
-307668
-307842
-307720
-307588
-307475
-307479
-307519
-307524
-307690
-307780
-307747
-307749
-307594
-307535
-307395
-307463
-307458
-307486
-307583
-307678
-307745
-307679
-307494
-307387
-307356
-307338
-307323
-307401
-307460
-307576
-307643
-307552
-307487
-307438
-307371
-307366
-307394
-307441
-307605
-307673
-307742
-307757
-307651
-307580
-307608
-307609
-307633
-307664
-307842
-307967
-308328
-308167
-308093
-307982
-307955
-308056
-308095
-308159
-308326
-308414
-308635
-308627
-308571
-308486
-308504
-308529
-308575
-308675
-308824
-309012
-309166
-309190
-309153
-309104
-309081
-309357
-309248
-309204
-309368
-309453
-309602
-309660
-309587
-309613
-309479
-310114
-310129
-310076
-310048
-310012
-310110
-310164
-310198
-310405
-310580
-310694
-310668
-310595
-310532
-310627
-310555
-310560
-310657
-310768
-310957
-311081
-311124
-311010
-310983
-310979
-311008
-311035
-311114
-311290
-311470
-311540
-311554
-311504
-311485
-311460
-311450
-311534
-311555
-311687
-311820
-312043
-312030
-311981
-311966
-311979
-312053
-312153
-312154
-312314
-312492
-312662
-312645
-312629
-312531
-312523
-312603
-312701
-312792
-312972
-313126
-313291
-313297
-313182
-313224
-313270
-313308
-313415
-313492
-313681
-313896
-313987
-313980
-314047
-314169
-314049
-314131
-314189
-314278
-314548
-314650
-314798
-314894
-314860
-314826
-314918
-314912
-314963
-315100
-315291
-315440
-315608
-315578
-315574
-315537
-315530
-315540
-315595
-315704
-315880
-316009
-316122
-316116
-316104
-316061
-316101
-316057
-316143
-316182
-316338
-316522
-316656
-316698
-316616
-316495
-316486
-316537
-316596
-316724
-316836
-316977
-317062
-317027
-317018
-316981
-317010
-317082
-316980
-317094
-317316
-317495
-317622
-317571
-317492
-317507
-317539
-317502
-317571
-317579
-317762
-317916
-317981
-318004
-317870
-317816
-317808
-317843
-317841
-317830
-317933
-318081
-318124
-318333
-318107
-317986
-317905
-317921
-317918
-317946
-318053
-318090
-318225
-318217
-318136
-318062
-318068
-318041
-318050
-318226
-318337
-318468
-318429
-318310
-318283
-318243
-318252
-318257
-318287
-318458
-318601
-318672
-318698
-318703
-318646
-318671
-318735
-318753
-318847
-319046
-319122
-319313
-319294
-319252
-319144
-319199
-319243
-319344
-319393
-319556
-319749
-319826
-319781
-319694
-319621
-319543
-319532
-319513
-319401
-319425
-319427
-319318
-319086
-318813
-318539
-318207
-317932
-317578
-317298
-317145
-316797
-316578
-316251
-315784
-315336
-314925
-314587
-314209
-313832
-313593
-313405
-313149
-312708
-312350
-311951
-311567
-311272
-310991
-310744
-310663
-310444
-310353
-310046
-309757
-309473
-309233
-309014
-308897
-308736
-308832
-308836
-308815
-308687
-308522
-308412
-308306
-308253
-308199
-308182
-308293
-308465
-308513
-308462
-308358
-308265
-308176
-308171
-308217
-308234
-308367
-308462
-308544
-308508
-308628
-308370
-308300
-308274
-308200
-308227
-308332
-308431
-308459
-308366
-308257
-308136
-308043
-308027
-307929
-307846
-307906
-307957
-307944
-307798
-307549
-307468
-307258
-307116
-306975
-306880
-306918
-306976
-306927
-306742
-306535
-306410
-306254
-306200
-306114
-306077
-306190
-306272
-306295
-306181
-306155
-306071
-305991
-305945
-305886
-305954
-306068
-306239
-306267
-306320
-306249
-306248
-306181
-306154
-306213
-306320
-306444
-306627
-306724
-306699
-306642
-306584
-306576
-306625
-306643
-306725
-306917
-307045
-307128
-307105
-306965
-306972
-306964
-306962
-307011
-307017
-307228
-307289
-307342
-307392
-307315
-307254
-307263
-307246
-307219
-307250
-307422
-307591
-307612
-307648
-307476
-307455
-307411
-307399
-307452
-307455
-307572
-307674
-307836
-307825
-307726
-307662
-307614
-307682
-307680
-307696
-307862
-308018
-308105
-308159
-308015
-308003
-307934
-307985
-308020
-308083
-308242
-308417
-308491
-308500
-308511
-308460
-308474
-308462
-308562
-308580
-308872
-309010
-309136
-309181
-309144
-309143
-309118
-309174
-309234
-309277
-309523
-309701
-309808
-309875
-309856
-309852
-309879
-309934
-309981
-310064
-310248
-310440
-310562
-310607
-310568
-310512
-310528
-310554
-310669
-310639
-310887
-311007
-311119
-311171
-311016
-311018
-310909
-311020
-311012
-311102
-311272
-311391
-311545
-311500
-311416
-311352
-311302
-311310
-311337
-311414
-311618
-311728
-311834
-311862
-311803
-311755
-311708
-311778
-311818
-311890
-312121
-312239
-312297
-312318
-312323
-312231
-312200
-312197
-312237
-312263
-312417
-312620
-312707
-312965
-312698
-312691
-312634
-312630
-312620
-312744
-312866
-313086
-313262
-313208
-313245
-313166
-313188
-313235
-313293
-313366
-313584
-313779
-313925
-313928
-313849
-313888
-313871
-313945
-314030
-314149
-314362
-314496
-314662
-314704
-314676
-314669
-314646
-314634
-314715
-314800
-315100
-315122
-315338
-315415
-315469
-315447
-315468
-315572
-315677
-315876
-316049
-316288
-316357
-316417
-316437
-316478
-316496
-316573
-316674
-316729
-316906
-317178
-317302
-317273
-317295
-317279
-317324
-317422
-317559
-317639
-317882
-318023
-318176
-318169
-318165
-318137
-318140
-318184
-318252
-318363
-318468
-318677
-318816
-318775
-318694
-318699
-318678
-318674
-318704
-318770
-318940
-318988
-318719
-318686
-318663
-318662
-318795
-318961
-319008
-318929
-318861
-318800
-318742
-318759
-318786
-318798
-318961
-319057
-319171
-319068
-318961
-318865
-318835
-318905
-318997
-318955
-319134
-319294
-319389
-319423
-319327
-319274
-319263
-319362
-319427
-319519
-319701
-319898
-320036
-319995
-320041
-320045
-320094
-320152
-320218
-320393
-320621
-320894
-321155
-321218
-321219
-321327
-321314
-321516
-321580
-321622
-321834
-322042
-322202
-322059
-321967
-321842
-321624
-321597
-321492
-321305
-321308
-321206
-321045
-320685
-320331
-319897
-319520
-319196
-318842
-318451
-318179
-317905
-317621
-317134
-316592
-316074
-315588
-315193
-314784
-314455
-314156
-313898
-313586
-313170
-312756
-312338
-311914
-311585
-311293
-310902
-310883
-310794
-310696
-310256
-310019
-309820
-309641
-309426
-309337
-309163
-309320
-309280
-309331
-309190
-309064
-308878
-308798
-308786
-308640
-308766
-308925
-309066
-309207
-309149
-309027
-308952
-308912
-308900
-309010
-309024
-309187
-309369
-309509
-309508
-309349
-309299
-309269
-309283
-309337
-309399
-309514
-309670
-309773
-309652
-309582
-309428
-309383
-309358
-309372
-309320
-309389
-309573
-309635
-309560
-309428
-309364
-309251
-309196
-309166
-309225
-309326
-309436
-309520
-309559
-309291
-309151
-309037
-308986
-308918
-308969
-309094
-309214
-309378
-309327
-309212
-309133
-309106
-309187
-309116
-309157
-309280
-309515
-309613
-309573
-309501
-309399
-309370
-309309
-309497
-309384
-309474
-309645
-309738
-309688
-309719
-309620
-309521
-309593
-309633
-309657
-309863
-309983
-310154
-310147
-310055
-309977
-309944
-310030
-310069
-310151
-310367
-310545
-310680
-310735
-310670
-310643
-310640
-310661
-310645
-310757
-310931
-311130
-311234
-311199
-311149
-311036
-310936
-311026
-310989
-311009
-311146
-311301
-311395
-311359
-311286
-311188
-311139
-311141
-311148
-311128
-311281
-311412
-311552
-311471
-311364
-311272
-311212
-311200
-311210
-311328
-311494
-311601
-311702
-311681
-311635
-311581
-311556
-311582
-311681
-311712
-311844
-312069
-312184
-312159
-312094
-312031
-312010
-312124
-312096
-312219
-312391
-312613
-312750
-312812
-312768
-312817
-312793
-312845
-312988
-313080
-313320
-313542
-313654
-313665
-313614
-313631
-313633
-313757
-313886
-313942
-314219
-314376
-314559
-314587
-314553
-314549
-314531
-314664
-314685
-314831
-314980
-315187
-315292
-315363
-315342
-315290
-315220
-315231
-315341
-315401
-315562
-315747
-315866
-315909
-315835
-315738
-315750
-315790
-315816
-315914
-316103
-316274
-316416
-316328
-316227
-316216
-316182
-316148
-316204
-316268
-316439
-316563
-316639
-316649
-316511
-316490
-316492
-316550
-316567
-316570
-316807
-317029
-317103
-317109
-317097
-317079
-317110
-317069
-317172
-317237
-317419
-317545
-317783
-317758
-317693
-317645
-317684
-317734
-317762
-317813
-317972
-318178
-318311
-318302
-318261
-318537
-318288
-318284
-318291
-318309
-318473
-318706
-318818
-318797
-318690
-318645
-318609
-318663
-318657
-318668
-318827
-319012
-319149
-319073
-318970
-318933
-318824
-318910
-318958
-319019
-319218
-319308
-319446
-319382
-319339
-319257
-319248
-319373
-319412
-319665
-319758
-319969
-319930
-319850
-319847
-319884
-319951
-319969
-320082
-320317
-320465
-320641
-320589
-320597
-320581
-320588
-320709
-320804
-320903
-321165
-321383
-321436
-321525
-321493
-321511
-321512
-321672
-321725
-321849
-322079
-322318
-322494
-322475
-322404
-322769
-322589
-322541
-322687
-322694
-323011
-323186
-323304
-323323
-323313
-323334
-323378
-323476
-323568
-323743
-324019
-324132
-324082
-324058
-324083
-324080
-324124
-324226
-324253
-324387
-324547
-324650
-324573
-324405
-324287
-324137
-323945
-323709
-323535
-323591
-323393
-323181
-322771
-322441
-321974
-321583
-321223
-320830
-320505
-320316
-319952
-319743
-319262
-318722
-318253
-317834
-317472
-317124
-316734
-316467
-316263
-315988
-315566
-315171
-314719
-314414
-314117
-313838
-313599
-313546
-313474
-313339
-313115
-312845
-312564
-312386
-312176
-312080
-312086
-312169
-312107
-312008
-311863
-311774
-311646
-311664
-311633
-311615
-311792
-311871
-311985
-311982
-311762
-311720
-311636
-311630
-311643
-311714
-311876
-311958
-311900
-311777
-311726
-311805
-311767
-311908
-312024
-312047
-312008
-311894
-311725
-311665
-311653
-311536
-311556
-311619
-311663
-311732
-311616
-311405
-311220
-311162
-311319
-311143
-311003
-311162
-311102
-311120
-311026
-310869
-310747
-310688
-310600
-310552
-310582
-310691
-310786
-310869
-310715
-310607
-310548
-310557
-310482
-310476
-310588
-310722
-310866
-311018
-310949
-310919
-310689
-310771
-310851
-310891
-311015
-311227
-311329
-311505
-311461
-311374
-311518
-311447
-311393
-311476
-311505
-311631
-311808
-311912
-311866
-311783
-311741
-311640
-311598
-311692
-311754
-311922
-312030
-312078
-312005
-311919
-311758
-311689
-311759
-311723
-311694
-311889
-311974
-312069
-312001
-311936
-311820
-311731
-311756
-311753
-311741
-311888
-312014
-312066
-312042
-311883
-311776
-311694
-311717
-311769
-311723
-311892
-311985
-312093
-312024
-311908
-311854
-311865
-311879
-311854
-311947
-312115
-312267
-312429
-312415
-312344
-312197
-312240
-312283
-312315
-312403
-312569
-312758
-312901
-312865
-312827
-312831
-312830
-312859
-312946
-313079
-313248
-313407
-313515
-313554
-313535
-313518
-313534
-313677
-313715
-313838
-314019
-314225
-314414
-314361
-314302
-314189
-314299
-314425
-314491
-314564
-314683
-314929
-315090
-315084
-315089
-315079
-315108
-315192
-315221
-315335
-315507
-315695
-315824
-315817
-315715
-315724
-315681
-315727
-315779
-315873
-316090
-316253
-316398
-316347
-316222
-316233
-316330
-316347
-316400
-316480
-316654
-316785
-316960
-316927
-316856
-316779
-316867
-316857
-316953
-316991
-317110
-317375
-317471
-317496
-317405
-317368
-317389
-317435
-317493
-317561
-317795
-317951
-318052
-318096
-317955
-317923
-317987
-317998
-318097
-318176
-318356
-318539
-318666
-318653
-318631
-318604
-318595
-318712
-318717
-318791
-318972
-319185
-319328
-319304
-319205
-319222
-319288
-319284
-319346
-319389
-319617
-319808
-319944
-319890
-319867
-319797
-319846
-319820
-319863
-320020
-320233
-320353
-320436
-320468
-320457
-320357
-320435
-320448
-320444
-320542
-320707
-320909
-321010
-320979
-320863
-320831
-320827
-320877
-320900
-321030
-321194
-321374
-321564
-321521
-321462
-321428
-321469
-321395
-321448
-321494
-321687
-321882
-322045
-322059
-322022
-321981
-321947
-322009
-322073
-322124
-322349
-322580
-322730
-322762
-322728
-322733
-322776
-322828
-322911
-322936
-323233
-323382
-323430
-323394
-323372
-323295
-323204
-323133
-323157
-323100
-323165
-323134
-322976
-322778
-322416
-322127
-321812
-321520
-321130
-320849
-320686
-320486
-320141
-319700
-319209
-318797
-318290
-317909
-317478
-317089
-316825
-316615
-316360
-315954
-315489
-315101
-314709
-314346
-314058
-313837
-313659
-313535
-313363
-313178
-312828
-312539
-312312
-312172
-311994
-311910
-311890
-311891
-311885
-311818
-311626
-311409
-311366
-311263
-311486
-311541
-311681
-311669
-311506
-311429
-311400
-311416
-311427
-311461
-311617
-311780
-311936
-311907
-311804
-311734
-311636
-311733
-311722
-311705
-311919
-312115
-312244
-312266
-312134
-312029
-311994
-312090
-312105
-312202
-312384
-312535
-312627
-312574
-312425
-312333
-312290
-312315
-312285
-312308
-312359
-312467
-312613
-312507
-312302
-312178
-312186
-312168
-312195
-312184
-312402
-312553
-312661
-312590
-312505
-312408
-312389
-312486
-312551
-312639
-312753
-312984
-313140
-313202
-313099
-313036
-313057
-313043
-313168
-313171
-313438
-313523
-313613
-313656
-313547
-313476
-313431
-313512
-313542
-313595
-313763
-313918
-314064
-314007
-313906
-313837
-313771
-313785
-313714
-313827
-313903
-314006
-314079
-314063
-313887
-313779
-313783
-313706
-313712
-313687
-313835
-313917
-314002
-313827
-313754
-313599
-313462
-313530
-313500
-313499
-313582
-313681
-313789
-313751
-313636
-313493
-313398
-313391
-313371
-313367
-313470
-313669
-313732
-313629
-313511
-313493
-313422
-313416
-313478
-313493
-313629
-313817
-313881
-313830
-313740
-313640
-313601
-313597
-313699
-313722
-313958
-314132
-314276
-314191
-314154
-314054
-314084
-314081
-314186
-314209
-314412
-314575
-314736
-314675
-314667
-314595
-314594
-314617
-314619
-314752
-314935
-315140
-315235
-315193
-315117
-315070
-315055
-315138
-315200
-315217
-315486
-315534
-315673
-315676
-315622
-315547
-315498
-315530
-315568
-315597
-315794
-315989
-316084
-316056
-315961
-315925
-315929
-315986
-316034
-316048
-316287
-316401
-316587
-316517
-316460
-316393
-316402
-316443
-316480
-316527
-316741
-316939
-317015
-317017
-316935
-316905
-316940
-316914
-316984
-317019
-317200
-317393
-317550
-317546
-317427
-317383
-317450
-317469
-317527
-317655
-317810
-317986
-318130
-318176
-318136
-318068
-318077
-318102
-318263
-318251
-318434
-318652
-318804
-318879
-318826
-318779
-318735
-318766
-318857
-318952
-319205
-319389
-319489
-319521
-319459
-319351
-319363
-319417
-319445
-319508
-319722
-319904
-320011
-320012
-319996
-320413
-320562
-320591
-320484
-320410
-320435
-320459
-320515
-320585
-320764
-320946
-321092
-321045
-321017
-321024
-321044
-321145
-321158
-321299
-321469
-321666
-321779
-321837
-321861
-321852
-321863
-321948
-322023
-322124
-322319
-322530
-322755
-322835
-322839
-322895
-322916
-322942
-323025
-323114
-323502
-323593
-323784
-323788
-323791
-323765
-323821
-323904
-323897
-324080
-324216
-324395
-324499
-324467
-324417
-324307
-324265
-324276
-324095
-324018
-323982
-323976
-323797
-323468
-323173
-322774
-322390
-322081
-321728
-321364
-321189
-320931
-320672
-320197
-319720
-319291
-318795
-318391
-317980
-317650
-317406
-317177
-316920
-316519
-316142
-315678
-315324
-315076
-314814
-314539
-314485
-314335
-314236
-313981
-313731
-313519
-313310
-313201
-313070
-312966
-313097
-313077
-313149
-313104
-312933
-312809
-312777
-312789
-312793
-312778
-312982
-313075
-313226
-313202
-313054
-312994
-312950
-312961
-312943
-313005
-313150
-313246
-313372
-313225
-313158
-313136
-313049
-313051
-313022
-313052
-313237
-313252
-313280
-313201
-313034
-312961
-312865
-312855
-312748
-312677
-312831
-312879
-312940
-312831
-312595
-312491
-312355
-312288
-312190
-312241
-312292
-312353
-312320
-312245
-312077
-311961
-311823
-311762
-311748
-311795
-311883
-312011
-312110
-312035
-311913
-311831
-311875
-311922
-311968
-312035
-312188
-312325
-312482
-312547
-312478
-312524
-312644
-312742
-312782
-312950
-313186
-313355
-313515
-313546
-313545
-313458
-313577
-313684
-313766
-313784
-313993
-314147
-314251
-314306
-314274
-314201
-314224
-314253
-314294
-314347
-314526
-314708
-314797
-314707
-314618
-314569
-314485
-314509
-314520
-314507
-314681
-314812
-314833
-314829
-314668
-314555
-314549
-314488
-314493
-314456
-314685
-314737
-314843
-314812
-314730
-314651
-314632
-314576
-314621
-314842
-314952
-315114
-315082
-314944
-314927
-314917
-314976
-315080
-315104
-315242
-315398
-315543
-315541
-315593
-315448
-315432
-315521
-315542
-315609
-315807
-315975
-316105
-316116
-316038
-316055
-315942
-316073
-316108
-316141
-316425
-316583
-316692
-316658
-316584
-316608
-316605
-316681
-316751
-316864
-317030
-317227
-317461
-317368
-317369
-317300
-317351
-317414
-317518
-317540
-317768
-317899
-318120
-318070
-317955
-317930
-317923
-318024
-318068
-318132
-318428
-318559
-318716
-318705
-318686
-318677
-318745
-318775
-318749
-318894
-319047
-319243
-319379
-319305
-319251
-319237
-319189
-319261
-319315
-319342
-319540
-319671
-319821
-319772
-319721
-319680
-319640
-319756
-319802
-319834
-320042
-320189
-320325
-320274
-320217
-320160
-320140
-320168
-320209
-320312
-320480
-320623
-320706
-320727
-320698
-320619
-320601
-320679
-320767
-320806
-321039
-321214
-321421
-321419
-321297
-321370
-321353
-321336
-321420
-321503
-321693
-321986
-322120
-322119
-322065
-322040
-322060
-322134
-322101
-322170
-322431
-322563
-322713
-322720
-322648
-322610
-322636
-322635
-322643
-322724
-322929
-323096
-323268
-323242
-323181
-323105
-323150
-323140
-323246
-323320
-323551
-323714
-323871
-323876
-323733
-323716
-323738
-324033
-323871
-323841
-324105
-324299
-324362
-324337
-324279
-324284
-324286
-324299
-324326
-324411
-324661
-324836
-324957
-324982
-324961
-324880
-324910
-324938
-325019
-325058
-325269
-325512
-325668
-325714
-325642
-325584
-325494
-325555
-325627
-325728
-325916
-326169
-326299
-326341
-326239
-326196
-326190
-326246
-326329
-326342
-326619
-326858
-326878
-326982
-326914
-326884
-326869
-326917
-326938
-326951
-327193
-327316
-327468
-327384
-327208
-327062
-326930
-326810
-326652
-326492
-326447
-326283
-326102
-325758
-325331
-324944
-324523
-324182
-323841
-323450
-323220
-322953
-322656
-322235
-321731
-321233
-320814
-320382
-320011
-319641
-319363
-319218
-318879
-318547
-318098
-317727
-317356
-317082
-316752
-316553
-316489
-316421
-316262
-316038
-315908
-315549
-315532
-315252
-315068
-314960
-315063
-315150
-315096
-315094
-314929
-314754
-314661
-314700
-314684
-314686
-314849
-314909
-315029
-314990
-314913
-314856
-314764
-314755
-314780
-314788
-314909
-315014
-315137
-315114
-314957
-314832
-314812
-314708
-314784
-314726
-314821
-314910
-314919
-314871
-314625
-314485
-314372
-314337
-314209
-314195
-314169
-314318
-314310
-314117
-313913
-313729
-313535
-313460
-313347
-313269
-313396
-313428
-313391
-313173
-312904
-312732
-312821
-312574
-312531
-312546
-312277
-312199
-312135
-312076
-312122
-312403
-312568
-312665
-312555
-312510
-312535
-312591
-312616
-312721
-312970
-313244
-313377
-313369
-313314
-313264
-313280
-313328
-313370
-313625
-313743
-313777
-313922
-313967
-313855
-313776
-313760
-313815
-313813
-313847
-314012
-314205
-314325
-314311
-314205
-314111
-314036
-314106
-314043
-314143
-314396
-314562
-314657
-314555
-314416
-314319
-314289
-314347
-314422
-314395
-314615
-314743
-314878
-314818
-314679
-314570
-314583
-314620
-314583
-314557
-314784
-314894
-314991
-314967
-314816
-314759
-314701
-314647
-314659
-314600
-314858
-314978
-315091
-315015
-314962
-314877
-314816
-314856
-314852
-314891
-315081
-315287
-315434
-315530
-315376
-315303
-315350
-315359
-315345
-315389
-315609
-315838
-315967
-315941
-315919
-315813
-315801
-315824
-315890
-316002
-316196
-316394
-316506
-316551
-316510
-316459
-316422
-316516
-316584
-316562
-316770
-316995
-317095
-317133
-317045
-316956
-316888
-316984
-317065
-317126
-317374
-317436
-317688
-317623
-317627
-317546
-317604
-317594
-317669
-317783
-317930
-318170
-318305
-318421
-318338
-318288
-318309
-318352
-318454
-318516
-318758
-318995
-319257
-319190
-319182
-319198
-319190
-319364
-319458
-319524
-319704
-319930
-320118
-320213
-320231
-320204
-320302
-320362
-320456
-320537
-320784
-321042
-321253
-321185
-321141
-321148
-321147
-321206
-321272
-321317
-321538
-321733
-321862
-321891
-322069
-321940
-321950
-321999
-322100
-322152
-322437
-322636
-323065
-322972
-322866
-322836
-322829
-322885
-322971
-323065
-323335
-323484
-323658
-323679
-323715
-323650
-323723
-323769
-323848
-323980
-324089
-324342
-324546
-324562
-324557
-324551
-324646
-324719
-324778
-325032
-325239
-325441
-325409
-325424
-325366
-325426
-325497
-325608
-325694
-325901
-326082
-326236
-326217
-326174
-326074
-326186
-326274
-326343
-326435
-326682
-326854
-326997
-327007
-326941
-326884
-326905
-326943
-327071
-327132
-327391
-327589
-327691
-327652
-327586
-327535
-327672
-327679
-327722
-327828
-328080
-328194
-328326
-328399
-328351
-328271
-328273
-328344
-328457
-328536
-328716
-328950
-329097
-329084
-329038
-329020
-329046
-329124
-329182
-329227
-329498
-329623
-329786
-329776
-329641
-329733
-329766
-329736
-329713
-329759
-329908
-330086
-330308
-330255
-330168
-330084
-330103
-330094
-330162
-330316
-330459
-330658
-330747
-330812
-330731
-330700
-330698
-330798
-330769
-330859
-331163
-331168
-331114
-331002
-330752
-330523
-330223
-330077
-329856
-329652
-329380
-329192
-328952
-328515
-328000
-327517
-327029
-326664
-326230
-325711
-325469
-325072
-324779
-324261
-323740
-323183
-322661
-322260
-321930
-321529
-321248
-321026
-320745
-320307
-319851
-319552
-319149
-318917
-318647
-318493
-318394
-318301
-318211
-317977
-317677
-317452
-317288
-317119
-317048
-316959
-317023
-317091
-317114
-316962
-316784
-316760
-316655
-316606
-316602
-316603
-316714
-316844
-316908
-316851
-316700
-316654
-316635
-316675
-316634
-316595
-316744
-316884
-316993
-316939
-316817
-316720
-316648
-316641
-316563
-316611
-316682
-316823
-316871
-316808
-316648
-316495
-316450
-316353
-316340
-316370
-316467
-316482
-316586
-316459
-316273
-316187
-316129
-316071
-316063
-315913
-316080
-316157
-316226
-316121
-316074
-315943
-315890
-315922
-315895
-316028
-316165
-316304
-316336
-316422
-316359
-316394
-316426
-316475
-316598
-316673
-316919
-317129
-317267
-317348
-317331
-317366
-317458
-317553
-317666
-317820
-318051
-318283
-318447
-318475
-318410
-318395
-318443
-318503
-318559
-318625
-318833
-319002
-319163
-319178
-319036
-319039
-318979
-318911
-318937
-318953
-319012
-319096
-319167
-319117
-318921
-318817
-318667
-318578
-318490
-318469
-318541
-318634
-318744
-318617
-318484
-318352
-318288
-318308
-318302
-318259
-318415
-318541
-318644
-318565
-318393
-318347
-318328
-318298
-318355
-318331
-318492
-318654
-318774
-318769
-318690
-318627
-318656
-318694
-318763
-318803
-319052
-319300
-319405
-319736
-319544
-319513
-319447
-319522
-319748
-319836
-320003
-320255
-320496
-320536
-320546
-320534
-320573
-320600
-320725
-320831
-321015
-321294
-321401
-321432
-321419
-321359
-321415
-321501
-321580
-321719
-321911
-322111
-322202
-322273
-322175
-322194
-322264
-322252
-322370
-322387
-322554
-322791
-323023
-322987
-322897
-322846
-322894
-322915
-322994
-323028
-323224
-323420
-323610
-323598
-323489
-323501
-323520
-323561
-323639
-323722
-323961
-324060
-324276
-324154
-324173
-324158
-324147
-324219
-324245
-324356
-324535
-324654
-324773
-324856
-324762
-324780
-324710
-324781
-324820
-324970
-325064
-325233
-325407
-325486
-325407
-325378
-325281
-325422
-325437
-325499
-325650
-325876
-326002
-325953
-325888
-325863
-325770
-325851
-325958
-325986
-326164
-326332
-326462
-326426
-326366
-326333
-326308
-326374
-326389
-326403
-326574
-326810
-326930
-326934
-326851
-326750
-326766
-326808
-326799
-326889
-327081
-327276
-327414
-327323
-327256
-327212
-327216
-327247
-327288
-327349
-327506
-327738
-327833
-327853
-327746
-327720
-327717
-327770
-327846
-327880
-328066
-328282
-328369
-328340
-328268
-328249
-328240
-328265
-328353
-328389
-328562
-328788
-328877
-328879
-328821
-328763
-328753
-328772
-328850
-328914
-329027
-329173
-329398
-329334
-329293
-329266
-329250
-329306
-329422
-329501
-329660
-329823
-329988
-329969
-329930
-329850
-329920
-329949
-330030
-330105
-330286
-330471
-330677
-330592
-330553
-330568
-330578
-330595
-330648
-330723
-330911
-331030
-331156
-331192
-331091
-331023
-330986
-330967
-330924
-330974
-330999
-331105
-331136
-330940
-330639
-330436
-330148
-329922
-329682
-329438
-329285
-329080
-328804
-328338
-327894
-327476
-326996
-326703
-324489
-324041
-323571
-323132
-322773
-322435
-322055
-321858
-321749
-321491
-321199
-320798
-320427
-320192
-319934
-319789
-319564
-319521
-319541
-319465
-319318
-319072
-318873
-318795
-318722
-318654
-318574
-318669
-318808
-318820
-318735
-318579
-318458
-318397
-318375
-318367
-318391
-318443
-318665
-318736
-318625
-318530
-318510
-318376
-318399
-318360
-318330
-318452
-318640
-318674
-318676
-318493
-318398
-318309
-318268
-318208
-318124
-318184
-318340
-318335
-318212
-318011
-317853
-317808
-317742
-317672
-317648
-317779
-317777
-317791
-317631
-317431
-317364
-317220
-317113
-317082
-317025
-317171
-317223
-317320
-317257
-317149
-317007
-316868
-316930
-316852
-316893
-317128
-317323
-317426
-317418
-317326
-317228
-317279
-317404
-317406
-317399
-317625
-317857
-318030
-318006
-317867
-317871
-317849
-317908
-317865
-317912
-318123
-318285
-318358
-318310
-318150
-318079
-318068
-318089
-317942
-318053
-318133
-318360
-318473
-318358
-318247
-318125
-318037
-318025
-317962
-317917
-318049
-318275
-318333
-318224
-318028
-317966
-317867
-317877
-317863
-317848
-317870
-318062
-318089
-317999
-317855
-317738
-317691
-317633
-317700
-317689
-317844
-317969
-318062
-317996
-317908
-317787
-317664
-317695
-317676
-317744
-317884
-318051
-318191
-318184
-318225
-318051
-317974
-317963
-317997
-318059
-318216
-318467
-318513
-318465
-318372
-318311
-318278
-318360
-318450
-318335
-318603
-318829
-319032
-318926
-318869
-318893
-318888
-318879
-318930
-319009
-319182
-319439
-319523
-319575
-319473
-319474
-319489
-319600
-319546
-319580
-319736
-320005
-320103
-320116
-320052
-320008
-319936
-319996
-320047
-320124
-320282
-320465
-320639
-320594
-320516
-320502
-320371
-320363
-320456
-320508
-320670
-320931
-320971
-320987
-320820
-320819
-320718
-320821
-320855
-320943
-321030
-321332
-321431
-321342
-321295
-321254
-321187
-321261
-321315
-321374
-321502
-321736
-321832
-321991
-321843
-321825
-321775
-321757
-322051
-321935
-322130
-322403
-322474
-322424
-322376
-322382
-322331
-322398
-322496
-322521
-322676
-322932
-323025
-322993
-322971
-322899
-322891
-322945
-323015
-323073
-323264
-323432
-323569
-323567
-323523
-323480
-323380
-323490
-323500
-323588
-323694
-323893
-324028
-324013
-323941
-323881
-323903
-324030
-324111
-324275
-324526
-324653
-324619
-324547
-324589
-324526
-324680
-324777
-324829
-324973
-325219
-325338
-325366
-325271
-325298
-325276
-325337
-325322
-325451
-325566
-325806
-325919
-325940
-325867
-325800
-325769
-325814
-325913
-325928
-326138
-326317
-326397
-326409
-326340
-326333
-326243
-326423
-326378
-326435
-326542
-326782
-326896
-326880
-326769
-326781
-326748
-326796
-326817
-326904
-327099
-327335
-327367
-327404
-327288
-327296
-327294
-327321
-327421
-327449
-327647
-327888
-328049
-328069
-328003
-328001
-327934
-328104
-328159
-328190
-328358
-328581
-328739
-328684
-328676
-328601
-328580
-328675
-328749
-328797
-328961
-329079
-329174
-329164
-329091
-328933
-328819
-328814
-328701
-328621
-328645
-328681
-328504
-328229
-327865
-327552
-327178
-326867
-326504
-326175
-325848
-325660
-325355
-324839
-324386
-323870
-323324
-322932
-322498
-322049
-321690
-321450
-321074
-320598
-320117
-319627
-319140
-318829
-318489
-318181
-317915
-317783
-317557
-317246
-316841
-316538
-316245
-316036
-315818
-315695
-315609
-315662
-315630
-315395
-315172
-315026
-314801
-314797
-314764
-314704
-314758
-314907
-314929
-314794
-314704
-314555
-314423
-314431
-314407
-314417
-314463
-314574
-314620
-314541
-314444
-314347
-314234
-314214
-314276
-314507
-314364
-314461
-314433
-314340
-314103
-314057
-313830
-313825
-313696
-313712
-313662
-313792
-313769
-313637
-313400
-313233
-313060
-312980
-312859
-312776
-312735
-312862
-312761
-312568
-312342
-312224
-312047
-311930
-311875
-311872
-311788
-311878
-311890
-311758
-311570
-311450
-311334
-311336
-311340
-311341
-311415
-311506
-311516
-311475
-311377
-311390
-311303
-311335
-311391
-311384
-311504
-311746
-311854
-311912
-311837
-311781
-311750
-311804
-311875
-311907
-312058
-312267
-312351
-312350
-312232
-312196
-312168
-312178
-312277
-312273
-312450
-312605
-312616
-312629
-312426
-312371
-312285
-312319
-312350
-312357
-312406
-312524
-312606
-312490
-312370
-312263
-312200
-312186
-312109
-312066
-312022
-312125
-312221
-312179
-312078
-311940
-311844
-311853
-311788
-311749
-311800
-311966
-311963
-311936
-311810
-311733
-311625
-311636
-311702
-311776
-311806
-311959
-311987
-311939
-311870
-311767
-311736
-311834
-311851
-311847
-311938
-312122
-312271
-312178
-312110
-312087
-312048
-312074
-312144
-312118
-312352
-312528
-312626
-312636
-312568
-312582
-312516
-312578
-312623
-312639
-312802
-313032
-313120
-313102
-313025
-312990
-312918
-313034
-313038
-313115
-313157
-313347
-313441
-313459
-313353
-313382
-313292
-313246
-313298
-313365
-313479
-313642
-313772
-313697
-313646
-313596
-313456
-313517
-313585
-313600
-313758
-313939
-313999
-313985
-313891
-313900
-313781
-313777
-313861
-313874
-313988
-314139
-314281
-314266
-314162
-314192
-314081
-314099
-314146
-314177
-314298
-314457
-314572
-314638
-314528
-314459
-314347
-314389
-314432
-314453
-314570
-314828
-314854
-314875
-314755
-314803
-314740
-314798
-314886
-314962
-315015
-315173
-315326
-315273
-315254
-315226
-315152
-315250
-315312
-315318
-315473
-315713
-315751
-315719
-315709
-315712
-315782
-315919
-315884
-315936
-316152
-316242
-316222
-316173
-316186
-316171
-316211
-316307
-316376
-316498
-316584
-316807
-316788
-316719
-316733
-316655
-316739
-316787
-316813
-317019
-317138
-317220
-317273
-317186
-317097
-317052
-317098
-317376
-317257
-317329
-317509
-317695
-317645
-317546
-317544
-317460
-317544
-317570
-317485
-317629
-317838
-317987
-317946
-317886
-317855
-317787
-317806
-317852
-317883
-318013
-318187
-318344
-318281
-318144
-318140
-318096
-318099
-318130
-318190
-318373
-318566
-318697
-318678
-318655
-318541
-318542
-318489
-318580
-318587
-318744
-318923
-319036
-318979
-318864
-318852
-318847
-318851
-318872
-318942
-318960
-319165
-319338
-319360
-319288
-319286
-319302
-319324
-319433
-319437
-319555
-319723
-319876
-319859
-319812
-319774
-319768
-319813
-319850
-319848
-320054
-320221
-320289
-320274
-320321
-320491
-320651
-320839
-320899
-320780
-320766
-320695
-320663
-320670
-320610
-320707
-320802
-320806
-320640
-320366
-320133
-319816
-319599
-319315
-319049
-318847
-318652
-318388
-317956
-317459
-316948
-316488
-316019
-315618
-315142
-314811
-314566
-314226
-313738
-313245
-312738
-312245
-311767
-311413
-311074
-310817
-310635
-310354
-310053
-309576
-309392
-308875
-308647
-308354
-308121
-307995
-308009
-307924
-307769
-307577
-307229
-307076
-306947
-306839
-306738
-306811
-306866
-306869
-306828
-306599
-306495
-306349
-306281
-306315
-306246
-306327
-306367
-306412
-306400
-306192
-306067
-305982
-305930
-305845
-305840
-305918
-306035
-306082
-305984
-305791
-305697
-305523
-305443
-305416
-305380
-305428
-305523
-305496
-305399
-305203
-305028
-304911
-304817
-304728
-304601
-304648
-304729
-304745
-304565
-304464
-304234
-304074
-304031
-303926
-303798
-303806
-303849
-303894
-303687
-303566
-303445
-303259
-303187
-303171
-303130
-303238
-303282
-303579
-303337
-303109
-303036
-302901
-302883
-302919
-302904
-303038
-303175
-303213
-303247
-303176
-303123
-303104
-303120
-303146
-303191
-303304
-303433
-303641
-303652
-303576
-303494
-303470
-303501
-303524
-303550
-303703
-303859
-303979
-304093
-303873
-304002
-303841
-303751
-303755
-303787
-303914
-304002
-304076
-303990
-303837
-303662
-303719
-303564
-303639
-303788
-303902
-303959
-303867
-303812
-303689
-303612
-303553
-303577
-303567
-303701
-303792
-303840
-303750
-303668
-303549
-303481
-303426
-303442
-303434
-303553
-303716
-303774
-303791
-303692
-303620
-303500
-303564
-303542
-303604
-303691
-303915
-303959
-304004
-303898
-303870
-303835
-303836
-303908
-303949
-304397
-304357
-304311
-304315
-304264
-304296
-304284
-304355
-304467
-304719
-304802
-304770
-304719
-304658
-304622
-304602
-304671
-304704
-304916
-305081
-305188
-305227
-305141
-305167
-305073
-305133
-305225
-305370
-305492
-305687
-305881
-305898
-305826
-305770
-305889
-305795
-305769
-305832
-305955
-306167
-306243
-306220
-306207
-306175
-306112
-306165
-306211
-306266
-306449
-306638
-306723
-306794
-306650
-306686
-306611
-306672
-306686
-306794
-306928
-307065
-307163
-307248
-307182
-307173
-307048
-307096
-307118
-307227
-307416
-307544
-307684
-307743
-307714
-307692
-307631
-307648
-307731
-307795
-307975
-308166
-308314
-308547
-308346
-308348
-308260
-308368
-308416
-308430
-308628
-308869
-308977
-309045
-309028
-308937
-308970
-309065
-309106
-309216
-309315
-309603
-309686
-309712
-309654
-309664
-309628
-309721
-309787
-309859
-310090
-310214
-310359
-310381
-310353
-310338
-310301
-310403
-310436
-310496
-310611
-310764
-310983
-311063
-311034
-310959
-310958
-311061
-311068
-311161
-311376
-311567
-311766
-311789
-311783
-311789
-311752
-311804
-311817
-311933
-312154
-312360
-312542
-312534
-312554
-312535
-312434
-312523
-312603
-312697
-312863
-313162
-313184
-313243
-313197
-313117
-313093
-313163
-313238
-313205
-313444
-313669
-313847
-313858
-313817
-313836
-313832
-313861
-313922
-314015
-314171
-314349
-314557
-314558
-314566
-314532
-314518
-314628
-314726
-314829
-315001
-315207
-315369
-315530
-315466
-315476
-315483
-315625
-315629
-315735
-315883
-316188
-316328
-316362
-316367
-316355
-316301
-316411
-316467
-316507
-316654
-316904
-317113
-317100
-317036
-317057
-317022
-317038
-317210
-317220
-317377
-317552
-317658
-317697
-317612
-317692
-317689
-317658
-317745
-317880
-318024
-318211
-318406
-318507
-318442
-318377
-318323
-318503
-318593
-318679
-318879
-319066
-319246
-319334
-319312
-319261
-319353
-319396
-319433
-319561
-319678
-319768
-319925
-319985
-319853
-319735
-319619
-319462
-319432
-319260
-319149
-319011
-318877
-318601
-318189
-317697
-317251
-316933
-316536
-316204
-315912
-315577
-315258
-314824
-314232
-313757
-313289
-312799
-312389
-311947
-311653
-311344
-311070
-310609
-310156
-309746
-309274
-308954
-308697
-308354
-308133
-308031
-307741
-307607
-307352
-306989
-306746
-306596
-306420
-306272
-306333
-306302
-306271
-306175
-306026
-305832
-305709
-305686
-305599
-305600
-305764
-305818
-305883
-305849
-305843
-305767
-305697
-305657
-305691
-305736
-305907
-306037
-306159
-306126
-306144
-306114
-305971
-305954
-306041
-306147
-306239
-306400
-306515
-306548
-306550
-306490
-306472
-306409
-306385
-306345
-306463
-306601
-306675
-306625
-306571
-306393
-306309
-306280
-306295
-306146
-306281
-306429
-306486
-306473
-306255
-306230
-306118
-306148
-306142
-306191
-306314
-306462
-306541
-306584
-306617
-306616
-306514
-306596
-306725
-306691
-306821
-307027
-307285
-307301
-307304
-307292
-307279
-307323
-307436
-307399
-307671
-307940
-308105
-308196
-308185
-308161
-308144
-308234
-308377
-308327
-308632
-308780
-308950
-309018
-308980
-309003
-308976
-309006
-309079
-309172
-309330
-309469
-309595
-309592
-309600
-309525
-309570
-309586
-309605
-309627
-309715
-309858
-309965
-309975
-310099
-309954
-309809
-309798
-309797
-309810
-309937
-310089
-310237
-310148
-310192
-310061
-309994
-310012
-310011
-310070
-310233
-310370
-310457
-310449
-310422
-310290
-310262
-310290
-310350
-310465
-310710
-310803
-310802
-310755
-310736
-310659
-310712
-310793
-311066
-311061
-311176
-311309
-311306
-311305
-311302
-311155
-311265
-311324
-311435
-311538
-311835
-311929
-311893
-311913
-311861
-311844
-311953
-312082
-312146
-312319
-312534
-312659
-312743
-312749
-312702
-312718
-312784
-312852
-312965
-313089
-313323
-313445
-313564
-313521
-313529
-313533
-313635
-313742
-313748
-313896
-314103
-314288
-314318
-314286
-314249
-314264
-314223
-314298
-314363
-314524
-314709
-314834
-314876
-314852
-314782
-314697
-314729
-314888
-314960
-315079
-315315
-315424
-315469
-315328
-315343
-315321
-315237
-315402
-315510
-315622
-315777
-315970
-315987
-315917
-315915
-315869
-316009
-316079
-316159
-316260
-316419
-316595
-316714
-316670
-316658
-316574
-316652
-316774
-316812
-316933
-317205
-317313
-317211
-317335
-317312
-317305
-317321
-317410
-317746
-317656
-317927
-318074
-318147
-318098
-318036
-317985
-318031
-318055
-318225
-318360
-318586
-318713
-318785
-318768
-318681
-318671
-318775
-318912
-318995
-319134
-319376
-319445
-319441
-319499
-319463
-319481
-319516
-319552
-319652
-319853
-320068
-320165
-320247
-320270
-320204
-320173
-320226
-320318
-320393
-320538
-320707
-320874
-320977
-320950
-320945
-320894
-320950
-321104
-321175
-321311
-321549
-321634
-321754
-321764
-321719
-321955
-322157
-322005
-321994
-322133
-322318
-322487
-322600
-322529
-322472
-322445
-322605
-322705
-322715
-322937
-323212
-323328
-323427
-323409
-323398
-323523
-323627
-323710
-323875
-324120
-324330
-324385
-324369
-324349
-324346
-324400
-324491
-324624
-324713
-325013
-325154
-325247
-325207
-325157
-325153
-325280
-325368
-325427
-325541
-325855
-325953
-326089
-326140
-326101
-326117
-326172
-326284
-326339
-326488
-327005
-327061
-327115
-327126
-327084
-327066
-327173
-327263
-327371
-327559
-327831
-327920
-328062
-328111
-328094
-328113
-328207
-328317
-328480
-328669
-328933
-329069
-329253
-329247
-329184
-329178
-329249
-329344
-329340
-329434
-329542
-329556
-329549
-329380
-329082
-328828
-328584
-328384
-328161
-327829
-327644
-327389
-326953
-326496
-325930
-325350
-324918
-324705
-324013
-323618
-323249
-322885
-322408
-321876
-321316
-320718
-320240
-319825
-319380
-319062
-318856
-318599
-318204
-317789
-317185
-316860
-316513
-316328
-316136
-315950
-315850
-315700
-315526
-315271
-315027
-314810
-314657
-314536
-314448
-314352
-314413
-314496
-314445
-314395
-314194
-314050
-314029
-314032
-314024
-314096
-314171
-314228
-314225
-314157
-314024
-313894
-313816
-313802
-313859
-313898
-314082
-314174
-314185
-314066
-313923
-313847
-313822
-313788
-313762
-313828
-313989
-314001
-314023
-313964
-313816
-313661
-313606
-313743
-313617
-313613
-313654
-313745
-313681
-313578
-313446
-313280
-313245
-313167
-313154
-313150
-313277
-313356
-313359
-313238
-313086
-312932
-312884
-312924
-312963
-312958
-313124
-313270
-313243
-313126
-313006
-312935
-312981
-313015
-313087
-313137
-313354
-313396
-313481
-313484
-313407
-313315
-313254
-313222
-313597
-313421
-313509
-313545
-313623
-313688
-313626
-313514
-313387
-313694
-313563
-313648
-313811
-313853
-314115
-313813
-313732
-313660
-313527
-313550
-313589
-313794
-313792
-313842
-313754
-313722
-313553
-313383
-313423
-313459
-313434
-313494
-313545
-313529
-313574
-313566
-313390
-313286
-313204
-313224
-313250
-313302
-313406
-313504
-313445
-313407
-313273
-313141
-313126
-313105
-313369
-313286
-313307
-313353
-313392
-313485
-313642
-313713
-313849
-313792
-313742
-313595
-313643
-313740
-313709
-313883
-314079
-314190
-314245
-314247
-314223
-314181
-314270
-314343
-314274
-314420
-314662
-314852
-314901
-314839
-314846
-314822
-314841
-314922
-315276
-315386
-315377
-315464
-315521
-315475
-315489
-315381
-315419
-315502
-315529
-315652
-315837
-315913
-316082
-316102
-316028
-315929
-315974
-316124
-316144
-316239
-316397
-316614
-316615
-316597
-316509
-316549
-316572
-316623
-316667
-316789
-316954
-317091
-317205
-317232
-317081
-317135
-317183
-317283
-317312
-317407
-317649
-317783
-317801
-317871
-317785
-317761
-317832
-317841
-317888
-317980
-318115
-318337
-318443
-318393
-318321
-318312
-318329
-318370
-318430
-318546
-318719
-318830
-318937
-318905
-318831
-318852
-318867
-318918
-318994
-319040
-319249
-319385
-319538
-319595
-319520
-319510
-319583
-319634
-319711
-319853
-320016
-320207
-320258
-320280
-320249
-320272
-320359
-320433
-320545
-320613
-320795
-321001
-321108
-321118
-321116
-321168
-321243
-321295
-321362
-321455
-321689
-321891
-321949
-322006
-321957
-321879
-322007
-322094
-322205
-322330
-322587
-322727
-322861
-322930
-322796
-322819
-322908
-323073
-323141
-323255
-323560
-323649
-323809
-323852
-323821
-323772
-323899
-324018
-324090
-324243
-324424
-324692
-324756
-324819
-324728
-324797
-324888
-325044
-325123
-325207
-325487
-325680
-325856
-325891
-325797
-325817
-325914
-326034
-326092
-326242
-326478
-326619
-326796
-326818
-326752
-326753
-326817
-326964
-326959
-327101
-327404
-327512
-327698
-327702
-327678
-327658
-327729
-327832
-327984
-328111
-328335
-328487
-328604
-328607
-328615
-328711
-328669
-328707
-328779
-328828
-329079
-329218
-329275
-329239
-329162
-329154
-329085
-329065
-328901
-328832
-328846
-328761
-328643
-328302
-327868
-327491
-327184
-326758
-326348
-325955
-325655
-325310
-324925
-324331
-323815
-323142
-322697
-322184
-321688
-321245
-321051
-320583
-320280
-319736
-319159
-318686
-318204
-317807
-317420
-317120
-316908
-316710
-316499
-316099
-315731
-315523
-315091
-315046
-314610
-314481
-314550
-314463
-314394
-314184
-314016
-313751
-313669
-313637
-313504
-313502
-313662
-313759
-313786
-313712
-313587
-313472
-313436
-313463
-313549
-313580
-313713
-313909
-313955
-313944
-313832
-313788
-313840
-313785
-313830
-313913
-314098
-314230
-314219
-314175
-314093
-313917
-313867
-313872
-314010
-313912
-313965
-314089
-314098
-313974
-313802
-313585
-313512
-313549
-313504
-313398
-313551
-313629
-313612
-313530
-313319
-313173
-313054
-313040
-313024
-313069
-313174
-313270
-313366
-313320
-313193
-313074
-313084
-313135
-313170
-313225
-313425
-313561
-313730
-313762
-313691
-313652
-313711
-313755
-313817
-313893
-314137
-314321
-314429
-314396
-314331
-314296
-314308
-314320
-314338
-314464
-314672
-314866
-314899
-314929
-314759
-314748
-314868
-314739
-314675
-314731
-314927
-315036
-315134
-315046
-314905
-314795
-314692
-314731
-314710
-314698
-314821
-314888
-314956
-314840
-314636
-314550
-314489
-314400
-314344
-314360
-314435
-314554
-314606
-314474
-314288
-314175
-314049
-314048
-313993
-314033
-314150
-314332
-314369
-314277
-314098
-314050
-313994
-314009
-313990
-314112
-314201
-314393
-314464
-314394
-314293
-314213
-314249
-314230
-314268
-314340
-314523
-314623
-314809
-314813
-314674
-314607
-314612
-314677
-314748
-314895
-315074
-315251
-315380
-315355
-315298
-315257
-315326
-315364
-315427
-315661
-315879
-316001
-315975
-315960
-315869
-315845
-315881
-315959
-315999
-316232
-316399
-316517
-316413
-316435
-316321
-316319
-316374
-316442
-316626
-316829
-316922
-316908
-316788
-316732
-316549
-316748
-316913
-316919
-317148
-317307
-317503
-317516
-317401
-317408
-317394
-317511
-317578
-317663
-317851
-317980
-318151
-318128
-318089
-318055
-318005
-318039
-318068
-318174
-318358
-318581
-318693
-318710
-318608
-318527
-318566
-318564
-318610
-318664
-318841
-319051
-319202
-319159
-318996
-319072
-319010
-319333
-319165
-319213
-319400
-319534
-319707
-319695
-319649
-319622
-319615
-319713
-319757
-319844
-320118
-320292
-320433
-320490
-320594
-320509
-320517
-320562
-320733
-320861
-321094
-321272
-321413
-321426
-321323
-321349
-321344
-321516
-321521
-321646
-321858
-322074
-322237
-322233
-322180
-322210
-322194
-322213
-322268
-322349
-322536
-322955
-322903
-322864
-322715
-322700
-322683
-322740
-322728
-322857
-323037
-323167
-323246
-323283
-323190
-323197
-323166
-323215
-323238
-323220
-323516
-323697
-323736
-323835
-323710
-323739
-323719
-323800
-323874
-323932
-324205
-324310
-324427
-324456
-324372
-324252
-324269
-324268
-324354
-324360
-324571
-324744
-324862
-324861
-324768
-324720
-324689
-324713
-324876
-324951
-325211
-325365
-325422
-325473
-325448
-325315
-325497
-325618
-325751
-325902
-326186
-326417
-326617
-326585
-326718
-326702
-327067
-326966
-326949
-327147
-327448
-327720
-327901
-328010
-328005
-328032
-328119
-328205
-328328
-328542
-328828
-329095
-329269
-329304
-329248
-329201
-329230
-329244
-329328
-329290
-329483
-329532
-329558
-329371
-329121
-328752
-328526
-328274
-327963
-327739
-327539
-327296
-326949
-326437
-325852
-325360
-324878
-324395
-323869
-323419
-323129
-322802
-322482
-321921
-321299
-320788
-320271
-319795
-319502
-319134
-319225
-318698
-318432
-317951
-317443
-317101
-316731
-316435
-316152
-315939
-316091
-315899
-315678
-315410
-315051
-314769
-314606
-314493
-314384
-314211
-314284
-314357
-314342
-314141
-313981
-313852
-313690
-313673
-313593
-313577
-313736
-313838
-313877
-313764
-313619
-313520
-313519
-313418
-313513
-313520
-313656
-313849
-313916
-313824
-313666
-313560
-313511
-313516
-313489
-313493
-313603
-313692
-313699
-313597
-313399
-313186
-313084
-313059
-312945
-312903
-313012
-313086
-313040
-312884
-312571
-312342
-312222
-312114
-312051
-311948
-311999
-312092
-312063
-311916
-311659
-311522
-311464
-311356
-311299
-311275
-311384
-311468
-311576
-311465
-311282
-311204
-311149
-311151
-311206
-311216
-311395
-311542
-311569
-311627
-311527
-311515
-311431
-311403
-311443
-311485
-311700
-311910
-312042
-311923
-311797
-311784
-311687
-311783
-311836
-311810
-312165
-312069
-312061
-312095
-312109
-312128
-312292
-312428
-312589
-312496
-312391
-312529
-312359
-312331
-312287
-312350
-312577
-312690
-312782
-312722
-312563
-312530
-312500
-312484
-312514
-312519
-312726
-312850
-312935
-312902
-312738
-312747
-312702
-312718
-312719
-312745
-312992
-313178
-313332
-313303
-313167
-313182
-313089
-313189
-313244
-313277
-313545
-313659
-313792
-313808
-313682
-313626
-313669
-313736
-313833
-313853
-314174
-314378
-314472
-314483
-314419
-314288
-314379
-314490
-314472
-314635
-314820
-314988
-315219
-315251
-315137
-315153
-315199
-315299
-315288
-315375
-315685
-315899
-316075
-316024
-315972
-316017
-316002
-316128
-316209
-316315
-316567
-316777
-316892
-316929
-316851
-316848
-316831
-316958
-316963
-317030
-317330
-317534
-317708
-317674
-317624
-317559
-317585
-317611
-317681
-317748
-318036
-318194
-318369
-318374
-318267
-318216
-318239
-318297
-318361
-318471
-318740
-318866
-319013
-319034
-318993
-318921
-318924
-319013
-319095
-319148
-319416
-319658
-319814
-319831
-319786
-319735
-319717
-319813
-319833
-319906
-320200
-320395
-320540
-320491
-320514
-320493
-320475
-320554
-320605
-320686
-320946
-321102
-321259
-321303
-321231
-321164
-321179
-321238
-321269
-321349
-321626
-321819
-321996
-322006
-321913
-321933
-321903
-321955
-322041
-322056
-322334
-322602
-322742
-322699
-322612
-322626
-322460
-322619
-322695
-322842
-323125
-323293
-323507
-323414
-323352
-323397
-323399
-323447
-323573
-323648
-323877
-324120
-324269
-324281
-324224
-324259
-324279
-324417
-324395
-324554
-324804
-325044
-325260
-325236
-325229
-325208
-325184
-325319
-325399
-325550
-325766
-325956
-326189
-326265
-326152
-326150
-326151
-326203
-326330
-326416
-326637
-326876
-327130
-327090
-327040
-326980
-327064
-327144
-327183
-327251
-327523
-327787
-327949
-328016
-328134
-327928
-327913
-327976
-328014
-328132
-328405
-328650
-328921
-328965
-328966
-328890
-328911
-328956
-329029
-329104
-329286
-329590
-329839
-329990
-329892
-329850
-329873
-329958
-330076
-330118
-330388
-330635
-330941
-330919
-330841
-330774
-330790
-330879
-330910
-331023
-331314
-331519
-331679
-331589
-331481
-331321
-331213
-331167
-331039
-330855
-330890
-330811
-330705
-330361
-329870
-329440
-328898
-328536
-328107
-327622
-327312
-327050
-326577
-326058
-325365
-324810
-324246
-323771
-323206
-322727
-322396
-322072
-321773
-321260
-320735
-320229
-319778
-319338
-318963
-318621
-318428
-318300
-318096
-317724
-317341
-316954
-316659
-316473
-316193
-316166
-316088
-315998
-315967
-315746
-315475
-315297
-315102
-315016
-314898
-314814
-314953
-315036
-315091
-314985
-314832
-314696
-314616
-314623
-314556
-314528
-314709
-314928
-315037
-315001
-314809
-314752
-314687
-314676
-314712
-314748
-314878
-314974
-315106
-315056
-314953
-314822
-314650
-314652
-314620
-314628
-314764
-314883
-314960
-314850
-314710
-314561
-314444
-314378
-314303
-314231
-314438
-314462
-314524
-314438
-314260
-314116
-313907
-313886
-313867
-313856
-314041
-314161
-314234
-314218
-314057
-313926
-313830
-313824
-313862
-313930
-314149
-314321
-314422
-314421
-314337
-314276
-314297
-314335
-314345
-314408
-314647
-314798
-314898
-314903
-314772
-314722
-314647
-314666
-314675
-314749
-314964
-315133
-315270
-315277
-315060
-314922
-314905
-314917
-314909
-314908
-315050
-315157
-315372
-315249
-315133
-315009
-314939
-314923
-314794
-314847
-314902
-315062
-315123
-315052
-314936
-314811
-314662
-314672
-314661
-314633
-314746
-314832
-315013
-314985
-314857
-314749
-314667
-314608
-314579
-314660
-314835
-314958
-315120
-315140
-314959
-314911
-314919
-314889
-314946
-315037
-315182
-315352
-315502
-315531
-315434
-315395
-315437
-315384
-315442
-315567
-315769
-315953
-316153
-316135
-316023
-316007
-316010
-316094
-316232
-316238
-316421
-316706
-316782
-316774
-316947
-316691
-316690
-316765
-316822
-316938
-317240
-317468
-317614
-317622
-317604
-317584
-317614
-317670
-317748
-317798
-318049
-318382
-318547
-318506
-318495
-318509
-318501
-318736
-318691
-318830
-319018
-319242
-319434
-319471
-319427
-319404
-319367
-319399
-319465
-319557
-319810
-320060
-320217
-320234
-320138
-320030
-320031
-320104
-320160
-320236
-320407
-320725
-320840
-320820
-320794
-320738
-320672
-320783
-320759
-320768
-320987
-321226
-321346
-321385
-321316
-321339
-321239
-321261
-321341
-321359
-321619
-321884
-321982
-321959
-321899
-321851
-321826
-321927
-321935
-321959
-322231
-322434
-322609
-322640
-322574
-322551
-322467
-322518
-322597
-322669
-322859
-323074
-323218
-323211
-323152
-323056
-323103
-323143
-323140
-323222
-323421
-323639
-323733
-323784
-323766
-323690
-323651
-323766
-323803
-323877
-324141
-324308
-324480
-324449
-324419
-324377
-324337
-324420
-324535
-324609
-324810
-325008
-325240
-325199
-325118
-325139
-325154
-325214
-325316
-325377
-325595
-325765
-325927
-325899
-325940
-325836
-325852
-325834
-325823
-325847
-326201
-326522
-326662
-326689
-326600
-326580
-326556
-326602
-326700
-326723
-327027
-327253
-327461
-327492
-327481
-327436
-327389
-327504
-327536
-327673
-327912
-328161
-328404
-328466
-328431
-328434
-328419
-328586
-328579
-328689
-328873
-329187
-329445
-329574
-329482
-329422
-329435
-329485
-329590
-329654
-329922
-330239
-330429
-330425
-330313
-330239
-330067
-330097
-330027
-329999
-330083
-330144
-330191
-329944
-329566
-329223
-328823
-328485
-328164
-327747
-327494
-327330
-327025
-326453
-325806
-325186
-324615
-324165
-323561
-323044
-322737
-322454
-322103
-321532
-320821
-320288
-319764
-319336
-318875
-318478
-318243
-318093
-317889
-317435
-316954
-316538
-316111
-315796
-315550
-315285
-315214
-315297
-315226
-314943
-314634
-314363
-314107
-314042
-313892
-313773
-313877
-314046
-314146
-314031
-313832
-313642
-313526
-313545
-313490
-313469
-313650
-313963
-314124
-314070
-313899
-313876
-313745
-313796
-313817
-313711
-313980
-314422
-314653
-314485
-314208
-314063
-313908
-313889
-313774
-314055
-314417
-314603
-314407
-314233
-313910
-313623
-313601
-313542
-313481
-313685
-314183
-314286
-314043
-313782
-313561
-313288
-313320
-313236
-313173
-313444
-313840
-314048
-313814
-313638
-313370
-313254
-313246
-313248
-313176
-313475
-313951
-314162
-314109
-313871
-313695
-313560
-313538
-313586
-313502
-313834
-314281
-314542
-314378
-314069
-313934
-313734
-313775
-313708
-313682
-313862
-314327
-314519
-314385
-314112
-313887
-313626
-313563
-313582
-313457
-313729
-313881
-314227
-314104
-313845
-313657
-313404
-313339
-313261
-313219
-313489
-313921
-314089
-313840
-313533
-313298
-313071
-313023
-313007
-312903
-313102
-313542
-313777
-313580
-313244
-312968
-312834
-312840
-312763
-312745
-312979
-313451
-313649
-313452
-313186
-313057
-312832
-312824
-312873
-312829
-313137
-313615
-313870
-313737
-313490
-313381
-313273
-313241
-313303
-313333
-313628
-314077
-314335
-314214
-313959
-313822
-313670
-313703
-313705
-313748
-313973
-314446
-314787
-314588
-314427
-314207
-314090
-314184
-314280
-314305
-314655
-315084
-315424
-315303
-315103
-315016
-314828
-314878
-314994
-314977
-315345
-315891
-316174
-316074
-315946
-315793
-315543
-315639
-315705
-315721
-316043
-316626
-316842
-316801
-316539
-316452
-316321
-316326
-316335
-316384
-316706
-317230
-317500
-317416
-317131
-316962
-316711
-316742
-316707
-316717
-317028
-317485
-317758
-317504
-317195
-316859
-316702
-316596
-316569
-316435
-316671
-317072
-317174
-317065
-316689
-316412
-316090
-316069
-316050
-315993
-316293
-316777
-316995
-316864
-316561
-316400
-316172
-316192
-316236
-316243
-316536
-317119
-317294
-317254
-317047
-316918
-316749
-316767
-316787
-316738
-316998
-317511
-317818
-317707
-317433
-317371
-317148
-317223
-317296
-317300
-317610
-318191
-318474
-318341
-318155
-317994
-317792
-317824
-317903
-317950
-318295
-318731
-319291
-319022
-318711
-318461
-318341
-318463
-318523
-318522
-318901
-319366
-319627
-319489
-319256
-319146
-318944
-319017
-319103
-319100
-319478
-320030
-320286
-320224
-319938
-319917
-319773
-319866
-319931
-319970
-320311
-320844
-321142
-321088
-320894
-320710
-320581
-320563
-320686
-321034
-321250
-321760
-322039
-321987
-321888
-321698
-321526
-321601
-321742
-321721
-322123
-322689
-323059
-322976
-322860
-322721
-322563
-322680
-322793
-322882
-323274
-323872
-324273
-324249
-324125
-324055
-323905
-324023
-324142
-324106
-324497
-325188
-325547
-325369
-325196
-325044
-324824
-324805
-324753
-324707
-324816
-325102
-324767
-324229
-323982
-323191
-323048
-322381
-322005
-321670
-321719
-321462
-321044
-320099
-319286
-318499
-317914
-317405
-316910
-316653
-316588
-316299
-315598
-314876
-314130
-313442
-313005
-312597
-312143
-311937
-312016
-311830
-311285
-310694
-310237
-309690
-309364
-309177
-308840
-308934
-309234
-309223
-308863
-308505
-308085
-307637
-307456
-307386
-307247
-307375
-307750
-307805
-307622
-307286
-307028
-306742
-306713
-306693
-306608
-306810
-307267
-307510
-307219
-306928
-306794
-306506
-306500
-306468
-306369
-306650
-307069
-307274
-307151
-307165
-306696
-306346
-306299
-306363
-306264
-306444
-306923
-307117
-306856
-306467
-306276
-305971
-305884
-305786
-305652
-305858
-306224
-306395
-306133
-305817
-305492
-305200
-305060
-305007
-304893
-305021
-305618
-305734
-305578
-305356
-305043
-304920
-304798
-304784
-304800
-304962
-305501
-305804
-305659
-305419
-305196
-304985
-305058
-305136
-305092
-305376
-305891
-306127
-306023
-305701
-305589
-305335
-305266
-305278
-305283
-305450
-305914
-306067
-305940
-305676
-305399
-305078
-305051
-305033
-304856
-305023
-305419
-305560
-305307
-304980
-304691
-304332
-304280
-304226
-304119
-304277
-304687
-304852
-304641
-304343
-304038
-303642
-303577
-303457
-303238
-303396
-303850
-304006
-303785
-303359
-303077
-302778
-302672
-302617
-302479
-302731
-303211
-303374
-303203
-302899
-302652
-302349
-302330
-302335
-302238
-302569
-303271
-303563
-303470
-303183
-303111
-303001
-303128
-303098
-303184
-303508
-303936
-304247
-304084
-303894
-303706
-303541
-303537
-303640
-303664
-303955
-304593
-304807
-304741
-304536
-304468
-304337
-304440
-304538
-304578
-304863
-305444
-305689
-305630
-305404
-305274
-305081
-305113
-305217
-305223
-305500
-306077
-306258
-306181
-305975
-305900
-305747
-305845
-305896
-305904
-306171
-306754
-307033
-306880
-306707
-306557
-306298
-306315
-306364
-306368
-306677
-307183
-307470
-307327
-307032
-306982
-306797
-306927
-306992
-306950
-307255
-307798
-308097
-308008
-307788
-307776
-307563
-307630
-307645
-307801
-308343
-308532
-308380
-308168
-308017
-307746
-307718
-307773
-307749
-308033
-308743
-308973
-308913
-308644
-308525
-308379
-308417
-308504
-308496
-308748
-309250
-309496
-309394
-309153
-309084
-308859
-308934
-309002
-309004
-309526
-310001
-310208
-310040
-309895
-309792
-309596
-309611
-309670
-309694
-309927
-310443
-310663
-310563
-310306
-310183
-309962
-309911
-309930
-309887
-310122
-310596
-310801
-310636
-310405
-310255
-310014
-309967
-309988
-309984
-310186
-310778
-310984
-310954
-310667
-310534
-310292
-310326
-310342
-310274
-310521
-310979
-311294
-311175
-310954
-310851
-310660
-310726
-310714
-310790
-311005
-311554
-311818
-311697
-311554
-311409
-311224
-311261
-311386
-311400
-311725
-312236
-312587
-312547
-312349
-312303
-312050
-312151
-312294
-312296
-312636
-313199
-313433
-313307
-313159
-313046
-312739
-312789
-312924
-312928
-313230
-313741
-313968
-313902
-313695
-313557
-313263
-313281
-313320
-313256
-313509
-313981
-314257
-314126
-313875
-313893
-313422
-313743
-313504
-313326
-313487
-313919
-314131
-313864
-313500
-313236
-312801
-312594
-312440
-312156
-312095
-312258
-312101
-311676
-311035
-310492
-309797
-309434
-308962
-308453
-308204
-308272
-308047
-307404
-306659
-306021
-305279
-304899
-304345
-303861
-303646
-303758
-303480
-302968
-302296
-301756
-301097
-300726
-300380
-299967
-299900
-300112
-300046
-299547
-299119
-298684
-298155
-297896
-297713
-297507
-297545
-297865
-297883
-297604
-297245
-296962
-296603
-296595
-296472
-296297
-296422
-296838
-296982
-296804
-296479
-296162
-295882
-295852
-295884
-295826
-296187
-296489
-296552
-296350
-295996
-296029
-295574
-295516
-295505
-295417
-295751
-296070
-296246
-296041
-295706
-295372
-295122
-295081
-295041
-295031
-295108
-295432
-295561
-295679
-295183
-294864
-294570
-294518
-294470
-294300
-294476
-294915
-295158
-294974
-294921
-294434
-294233
-294136
-294194
-294144
-294368
-294860
-295062
-295182
-294765
-294569
-294308
-294289
-294307
-294341
-294582
-295162
-295421
-295355
-295227
-295042
-294768
-294783
-294851
-294805
-295059
-295605
-295894
-295781
-295634
-295408
-295202
-295295
-295236
-295156
-295462
-295951
-296284
-296157
-295962
-295817
-295600
-295602
-295578
-295582
-295839
-296228
-296499
-296500
-296495
-296158
-295815
-295897
-295841
-295849
-296104
-296536
-296814
-296690
-296438
-296303
-296077
-296129
-296123
-296055
-296300
-296900
-297009
-296894
-296705
-296575
-296318
-296342
-296288
-296283
-296523
-297060
-297370
-297298
-296981
-296848
-296627
-296655
-296638
-296549
-296917
-297419
-297668
-297626
-297441
-297306
-297170
-297482
-297956
-298280
-298272
-298026
-297881
-297720
-297793
-297865
-297933
-298146
-298812
-299082
-299073
-298896
-298742
-298603
-298936
-298903
-298900
-299294
-299788
-300017
-300016
-299805
-299730
-299558
-299679
-299813
-299871
-300148
-300713
-300989
-300987
-300792
-300700
-300539
-300542
-300621
-300704
-301035
-301474
-301859
-301805
-301580
-301485
-301202
-301355
-301387
-301400
-301647
-302174
-302739
-302462
-302232
-302108
-301965
-301925
-301946
-302011
-302311
-302821
-303108
-303061
-302852
-302794
-302556
-302729
-302724
-302707
-303015
-303606
-303842
-303840
-303647
-303515
-303287
-303356
-303420
-303422
-303707
-304210
-304499
-304372
-304244
-304195
-303994
-304072
-304115
-304116
-304343
-304873
-305206
-305151
-304981
-304868
-304597
-304710
-304728
-304743
-305090
-305821
-305926
-305863
-305648
-305576
-305384
-305419
-305518
-305561
-305843
-306384
-306655
-306637
-306394
-306342
-306178
-306184
-306257
-306345
-306610
-307083
-307463
-307509
-307299
-307150
-306939
-307036
-307100
-307187
-307462
-307991
-308380
-308244
-308110
-307987
-307819
-307878
-307914
-307934
-308320
-308759
-309104
-309072
-308921
-308749
-308652
-308632
-308720
-308769
-309029
-309628
-309932
-309889
-309667
-309584
-309407
-309476
-309566
-309667
-309936
-310463
-310764
-310782
-310633
-310425
-310384
-310380
-310432
-310512
-310857
-311375
-311721
-311831
-311610
-311540
-311370
-311365
-311484
-311575
-311906
-312440
-312795
-312862
-312700
-312687
-312471
-312600
-312668
-312740
-313065
-313654
-313975
-313961
-313807
-313750
-313599
-313611
-313552
-313653
-313882
-314317
-314555
-314365
-314059
-313733
-313341
-313085
-312859
-312530
-312441
-312546
-312476
-312007
-311274
-310735
-309984
-309490
-308939
-308397
-308173
-308180
-307924
-307276
-306512
-305833
-305145
-304605
-304118
-303679
-303435
-303496
-303306
-302737
-302076
-301551
-300921
-300581
-300150
-299869
-299816
-299911
-299918
-299532
-299018
-298687
-298254
-298032
-297821
-297703
-297746
-298031
-298168
-297999
-297639
-297341
-297068
-296938
-296838
-296823
-297042
-297457
-297696
-297582
-297255
-297072
-296805
-296773
-296747
-296763
-296923
-297343
-297685
-297580
-297289
-297131
-296851
-296782
-296814
-296764
-296947
-297367
-297558
-297524
-297200
-296983
-296690
-296601
-296539
-296510
-296654
-297098
-297218
-297111
-296783
-296555
-296247
-296159
-296094
-296037
-296145
-296548
-296741
-296658
-296334
-296071
-295782
-295755
-295762
-295636
-295875
-296335
-296539
-296538
-296313
-296083
-295801
-295886
-295849
-295792
-296068
-296547
-296826
-296800
-296618
-296440
-296192
-296165
-296147
-296188
-296472
-296965
-297257
-297152
-296913
-296745
-296535
-296531
-296470
-296488
-296757
-297169
-297515
-297429
-297188
-296999
-296780
-296706
-296685
-296710
-296899
-297387
-297528
-297508
-297230
-296935
-296629
-296651
-296603
-296608
-296781
-297182
-297464
-297358
-297083
-296906
-296616
-296548
-296426
-296411
-296638
-297082
-297314
-297248
-297009
-296739
-296499
-296581
-296538
-296548
-296777
-297218
-297536
-297414
-297214
-297034
-296775
-296788
-296777
-296825
-297084
-297584
-297854
-297811
-297579
-297392
-297223
-297263
-297309
-297302
-297558
-298052
-298324
-298409
-298091
-297934
-297752
-297762
-297782
-297849
-298112
-298636
-298972
-298915
-298744
-298597
-298432
-298457
-298478
-298601
-298888
-299389
-299714
-299732
-299563
-299446
-299247
-299325
-299311
-299426
-299733
-300201
-300468
-300506
-300349
-300198
-300109
-300099
-300072
-300153
-300440
-300966
-301250
-301221
-301051
-300881
-300673
-300757
-300760
-300769
-301116
-301547
-301896
-301901
-301591
-301576
-301423
-301443
-301436
-301514
-301825
-302275
-302666
-302713
-302484
-302326
-302145
-302208
-302215
-302277
-302556
-303066
-303371
-303382
-303192
-303024
-302811
-302884
-302854
-302921
-303243
-303715
-304057
-304116
-303879
-303748
-303492
-303553
-303617
-303681
-303924
-304408
-304672
-304691
-304525
-304397
-304188
-304228
-304272
-304282
-304544
-305037
-305276
-305358
-305083
-304998
-304850
-304887
-304891
-304941
-305263
-305767
-306067
-306121
-305901
-305748
-305558
-305648
-305680
-305717
-305985
-306428
-306730
-306763
-306581
-306490
-306285
-306367
-306342
-306429
-306732
-307137
-307491
-307593
-307336
-307270
-307077
-307075
-307130
-307179
-307539
-307992
-308290
-308332
-308120
-307919
-307825
-307833
-307959
-307969
-308256
-308731
-309029
-309081
-308851
-308712
-308542
-308666
-308674
-308741
-309021
-309578
-309835
-309894
-309696
-309593
-309463
-309502
-309530
-309629
-309886
-310413
-310790
-310802
-310646
-310478
-310290
-310420
-310389
-310388
-310689
-311127
-311396
-311353
-310976
-310777
-310408
-310219
-310011
-309803
-309809
-309935
-309896
-309602
-308872
-308355
-307653
-307199
-306759
-306317
-306045
-305926
-305733
-305208
-304506
-303732
-303024
-302538
-302029
-301523
-301275
-301213
-301089
-300598
-299914
-299290
-298680
-298246
-297864
-297529
-297457
-297526
-297496
-297202
-296615
-296165
-295725
-295492
-295168
-294968
-295086
-295320
-295439
-295285
-294934
-294607
-294342
-294200
-294096
-294023
-294146
-294549
-294747
-294659
-294398
-294253
-293919
-293885
-293861
-293821
-294070
-294507
-294765
-294705
-294471
-294321
-294014
-293998
-293949
-293944
-294181
-294512
-294784
-294693
-294436
-294269
-293949
-293893
-293845
-293719
-293944
-294305
-294590
-294434
-294110
-293894
-293595
-293517
-293413
-293393
-293570
-294015
-294204
-294177
-293830
-293600
-293349
-293338
-293302
-293263
-293507
-293965
-294210
-294216
-293966
-293758
-293558
-293649
-293569
-293609
-293888
-294267
-294608
-294625
-294338
-294153
-293982
-293978
-293965
-293973
-294286
-294699
-294978
-294904
-294584
-294433
-294219
-294201
-294059
-294028
-294324
-294745
-294942
-294909
-294656
-294435
-294235
-294184
-294133
-294121
-294266
-294715
-294945
-294850
-294609
-294375
-294119
-294064
-293972
-293874
-294166
-294578
-294810
-294700
-294401
-294242
-294070
-294031
-293941
-293902
-294102
-294493
-294742
-294711
-294425
-294271
-294108
-294007
-293976
-294012
-294263
-294662
-294938
-294937
-294694
-294481
-294319
-294322
-294306
-294263
-294590
-294980
-295292
-295340
-295107
-294903
-294744
-294750
-294774
-294759
-295074
-295539
-295826
-295803
-295643
-295520
-295403
-295430
-295376
-295469
-295699
-296237
-296505
-296537
-296329
-296187
-295998
-296041
-296142
-296148
-296449
-296923
-297201
-297199
-297030
-296867
-296766
-296796
-296821
-296904
-297226
-297744
-298086
-298025
-297822
-297700
-297526
-297520
-297596
-297645
-297933
-298390
-298689
-298727
-298568
-298414
-298257
-298266
-298244
-298296
-298535
-299001
-299288
-299283
-299054
-298909
-298690
-298742
-298752
-298819
-299026
-299492
-299740
-299750
-299529
-299404
-299252
-299304
-299231
-299306
-299637
-300050
-300412
-300425
-300229
-300083
-299888
-299962
-299933
-299934
-300258
-300633
-300973
-301020
-300805
-300634
-300495
-300515
-300534
-300526
-300847
-301298
-301703
-301671
-301478
-301311
-301156
-301138
-301148
-301262
-301543
-301952
-302366
-302303
-302125
-301981
-301791
-301780
-301787
-301854
-302171
-302640
-302932
-302956
-302713
-302593
-302379
-302430
-302445
-302447
-302787
-303210
-303559
-303616
-303344
-303197
-303008
-303071
-303103
-303185
-303457
-303912
-304207
-304164
-303995
-303887
-303713
-303752
-303764
-303841
-304165
-304595
-304950
-304917
-304714
-304594
-304422
-304491
-304501
-304539
-304917
-305404
-305739
-305756
-305534
-305516
-305345
-305370
-305398
-305442
-305806
-306257
-306591
-306593
-306382
-306268
-306092
-306166
-306165
-306277
-306510
-306991
-307322
-307332
-306972
-306801
-306474
-306409
-306338
-306127
-306267
-306489
-306522
-306232
-305691
-305190
-304608
-304222
-303782
-303339
-303194
-303122
-302919
-302446
-301668
-301006
-300332
-299865
-299363
-298844
-298267
-297830
-297111
-296483
-295787
-295256
-294785
-294399
-294150
-293765
-293152
-292644
-292116
-291738
-291454
-291150
-291165
-291269
-291383
-291090
-290620
-290237
-289860
-289680
-289522
-289362
-289489
-289784
-289915
-289780
-289406
-289185
-288817
-288700
-288619
-288528
-288693
-289057
-289217
-289194
-288838
-288625
-288371
-288247
-288219
-288114
-288366
-288756
-289013
-289004
-288615
-288447
-288195
-288111
-287944
-287916
-288157
-288528
-288728
-288631
-288310
-287987
-287746
-287653
-287498
-287372
-287549
-287813
-288015
-287899
-287620
-287302
-286971
-286881
-286793
-286732
-286891
-287302
-287520
-287429
-287110
-286826
-286616
-286533
-286483
-286491
-286779
-287201
-287453
-287420
-287125
-286980
-286809
-286848
-286862
-286803
-287113
-287514
-287902
-287852
-287594
-287511
-287311
-287268
-287247
-287295
-287542
-287965
-288131
-288222
-287933
-287797
-287577
-287579
-287523
-287527
-287735
-288163
-288399
-288408
-288080
-287896
-287669
-287661
-287615
-287645
-287892
-288271
-288582
-288465
-288182
-288009
-287745
-287733
-287651
-287557
-287790
-288177
-288420
-288333
-288060
-287816
-287591
-287578
-287542
-287487
-287819
-288190
-288437
-288449
-288248
-288051
-287880
-287852
-287690
-287717
-288041
-288459
-288760
-288744
-288493
-288328
-288130
-288092
-288069
-288107
-288414
-288897
-289146
-289223
-288984
-288807
-288619
-288590
-288664
-288709
-288954
-289427
-289744
-289768
-289517
-289423
-289175
-289230
-289234
-289266
-289581
-290056
-290408
-290417
-290191
-290051
-289903
-289919
-289889
-289945
-290253
-290790
-291089
-291024
-290837
-290699
-290508
-290480
-290530
-290521
-290834
-291306
-291695
-291644
-291403
-291330
-291148
-291193
-291117
-291236
-291569
-291983
-292316
-292294
-292077
-291958
-291787
-291765
-291785
-291802
-292137
-292553
-292795
-292820
-292639
-292448
-292200
-292253
-292293
-292307
-292617
-293125
-293358
-293373
-293189
-293018
-292734
-292799
-292771
-292830
-293151
-293607
-294082
-293982
-293703
-293589
-293404
-293489
-293414
-293451
-293710
-294151
-294461
-294495
-294247
-294062
-293909
-293895
-293908
-293927
-294238
-294714
-295012
-294969
-294731
-294611
-294359
-294407
-294469
-294544
-294798
-295249
-295630
-295661
-295508
-295229
-295123
-295157
-295154
-295209
-295509
-295944
-296314
-296388
-296085
-295953
-295815
-295859
-295797
-295846
-296157
-296576
-296902
-296889
-296657
-296504
-296310
-296355
-296360
-296403
-296721
-297118
-297458
-297504
-297320
-297173
-296933
-297044
-297053
-297093
-297390
-297884
-298158
-298189
-297988
-297909
-297781
-297847
-297775
-297810
-298191
-298657
-299015
-299047
-298822
-298690
-298487
-298510
-298470
-298595
-298912
-299422
-299799
-299883
-299627
-299468
-299376
-299375
-299376
-299409
-299742
-300203
-300479
-300548
-300315
-300174
-299892
-299854
-299749
-299642
-299766
-300095
-300192
-299959
-299384
-298956
-298503
-298123
-297787
-297433
-297240
-297226
-297056
-296500
-295812
-295121
-294433
-293948
-293307
-292866
-292612
-292469
-292277
-291748
-291000
-290335
-289604
-289114
-288608
-288194
-288015
-288052
-287888
-287456
-286806
-286249
-285781
-285442
-285088
-284816
-284824
-285015
-285087
-284830
-284423
-284036
-283683
-283550
-283271
-283225
-283297
-283637
-283800
-283729
-283377
-283127
-282737
-282683
-282583
-282530
-282782
-283130
-283332
-283244
-282893
-282665
-282432
-282334
-282220
-282131
-282323
-282677
-282962
-282870
-282558
-282351
-282073
-282028
-281987
-281892
-282111
-282513
-282702
-282628
-282300
-282016
-281754
-281645
-281464
-281423
-281566
-281873
-282091
-281998
-281661
-281425
-281095
-281044
-280932
-280904
-281081
-281424
-281614
-281539
-281237
-281044
-280780
-280782
-280735
-280687
-280955
-281364
-281652
-281664
-281403
-281271
-281064
-281098
-281063
-281066
-281465
-281852
-282171
-282173
-281945
-281789
-281580
-281606
-281560
-281607
-281937
-282321
-282643
-282664
-282463
-282239
-282022
-282074
-282048
-282082
-282258
-282629
-282971
-282935
-282737
-282464
-282304
-282254
-282137
-282149
-282449
-282813
-283123
-283060
-282842
-282627
-282371
-282320
-282293
-282367
-282565
-283003
-283265
-283204
-282974
-282734
-282562
-282506
-282483
-282515
-282821
-283224
-283481
-283454
-283197
-283022
-282856
-282840
-282805
-282818
-283097
-283582
-283866
-283823
-283591
-283484
-283313
-283337
-283308
-283313
-283624
-284053
-284322
-284347
-284194
-283988
-283754
-283860
-283803
-283899
-284164
-284642
-285009
-285091
-284885
-284721
-284617
-284615
-284653
-284704
-285059
-285526
-285917
-285930
-285799
-285617
-285512
-285583
-285551
-285662
-285976
-286457
-286735
-286780
-286570
-286450
-286243
-286213
-286278
-286354
-286656
-287036
-287413
-287388
-287199
-287084
-286864
-286901
-286885
-286912
-287205
-287651
-287971
-288011
-287702
-287600
-287469
-287478
-287419
-287422
-287745
-288170
-288541
-288523
-288354
-288234
-288060
-288020
-288110
-288223
-288514
-288926
-289247
-289268
-289083
-288976
-288812
-288866
-288895
-288933
-289246
-289750
-290117
-290115
-289912
-289753
-289581
-289645
-289668
-289734
-290090
-290528
-290871
-290879
-290654
-290538
-290404
-290421
-290463
-290525
-290831
-291322
-291606
-291650
-291488
-291366
-291219
-291244
-291226
-291269
-291601
-292009
-292327
-292386
-292135
-292011
-291861
-291957
-291932
-292043
-292317
-292763
-293112
-293101
-292912
-292732
-292588
-292687
-292676
-292708
-293063
-293429
-293783
-293810
-293614
-293462
-293268
-293349
-293355
-293451
-293789
-294225
-294559
-294575
-294392
-294254
-294074
-294050
-294001
-294177
-294471
-294967
-295275
-295337
-295177
-295008
-294831
-294894
-294860
-294953
-295209
-295673
-296025
-296037
-295834
-295776
-295566
-295599
-295626
-295604
-296192
-296475
-296831
-296811
-296662
-296427
-296260
-296362
-296320
-296472
-296763
-297182
-297521
-297598
-297406
-297263
-297087
-297157
-297180
-297266
-297604
-298093
-298416
-298465
-298232
-298207
-298007
-298072
-298105
-298136
-298465
-298931
-299235
-299211
-299040
-298902
-298737
-298672
-298620
-298556
-298765
-298946
-299071
-298898
-298306
-297939
-297450
-297149
-296702
-296379
-296269
-296257
-296086
-295631
-294899
-294270
-293602
-293077
-292579
-292077
-291862
-291778
-291541
-291019
-290344
-289758
-289082
-288610
-288152
-287810
-287580
-287642
-287513
-287133
-286570
-286039
-285560
-285253
-284945
-284725
-284759
-284931
-284981
-284733
-284385
-284030
-283711
-283599
-283377
-283314
-283459
-283772
-284046
-283948
-283514
-283343
-283041
-282936
-282863
-282766
-282966
-283272
-283499
-283433
-283184
-282990
-282787
-282786
-282664
-282679
-282879
-283302
-283507
-283444
-283233
-283010
-282806
-282716
-282592
-282522
-282761
-283138
-283393
-283238
-283000
-282723
-282402
-282352
-282264
-282249
-282443
-282715
-282932
-282834
-282570
-282289
-282049
-281965
-281858
-281868
-282119
-282457
-282721
-282708
-282268
-282184
-281946
-281909
-281931
-281948
-282251
-282735
-282983
-282960
-282815
-282726
-282544
-282523
-282487
-282579
-282897
-283295
-283559
-283590
-283420
-283230
-282982
-283006
-282992
-283075
-283343
-283770
-284065
-284050
-283794
-283665
-283527
-283426
-283367
-283464
-283692
-284092
-284248
-284298
-284088
-283894
-283711
-283685
-283601
-283598
-283786
-284215
-284496
-284474
-284199
-283911
-283749
-283698
-283610
-283572
-283853
-284236
-284472
-284439
-284183
-284006
-283708
-283753
-283659
-283756
-284051
-284392
-284723
-284762
-284495
-284323
-284061
-284090
-284036
-284041
-284363
-284807
-285064
-285014
-284787
-284598
-284433
-284456
-284414
-284459
-284779
-285238
-285510
-285567
-285287
-285160
-285044
-285080
-285055
-285121
-285399
-285834
-286204
-286207
-286001
-285948
-285706
-285839
-285745
-285859
-286156
-286569
-286903
-286974
-286756
-286577
-286467
-286523
-286513
-286613
-286856
-287322
-287751
-287727
-287546
-287423
-287288
-287306
-287360
-287439
-287708
-288180
-288548
-288490
-288272
-288261
-288107
-288089
-288058
-288117
-288380
-288868
-289129
-289184
-288964
-288810
-288757
-288675
-288653
-288721
-289068
-289500
-289850
-289868
-289503
-289325
-289326
-289386
-289374
-289695
-290159
-290441
-290455
-290257
