PPG
-465987
-465919
-466056
-466038
-466019
-465942
-465855
-465912
-465857
-465741
-465701
-466053
-465752
-465704
-465482
-465432
-465328
-465343
-465318
-465223
-464997
-464950
-464960
-464890
-464777
-464690
-464589
-464632
-464624
-464495
-464334
-464296
-464273
-464246
-464158
-464036
-464004
-464101
-464088
-463998
-463970
-463896
-463960
-463971
-463932
-463868
-463912
-463922
-463994
-463923
-464063
-463919
-464016
-464091
-463969
-463993
-464130
-464199
-464325
-464272
-464202
-464273
-464385
-464460
-464461
-464487
-464584
-464740
-464823
-464838
-464893
-465484
-465252
-465207
-465188
-465272
-465408
-465496
-465573
-465612
-465657
-465739
-465933
-466083
-466104
-466153
-466340
-466485
-466562
-466649
-466708
-466867
-466981
-467013
-467208
-467215
-467367
-467492
-467631
-467666
-467810
-467878
-468042
-468244
-468334
-468399
-468511
-468607
-468772
-468917
-468958
-469091
-469232
-469355
-469472
-469517
-469637
-469758
-469948
-470030
-470057
-470262
-470344
-470587
-470624
-470629
-470819
-471003
-471088
-471044
-471118
-471268
-471468
-471543
-471690
-471702
-471836
-472021
-472142
-472159
-472195
-472419
-472639
-472728
-472805
-472779
-473006
-473148
-473243
-473225
-473327
-473490
-473659
-473754
-473849
-473888
-474138
-474216
-474279
-474372
-474514
-474589
-474766
-474926
-474940
-474955
-475040
-475142
-475212
-475242
-475194
-475156
-475031
-475080
-474909
-474740
-474535
-474356
-474107
-473731
-473173
-472921
-472469
-472121
-471563
-471058
-470503
-470021
-469262
-468763
-468054
-467438
-466734
-466128
-465405
-464666
-463964
-463374
-462584
-461856
-461016
-460274
-459642
-458944
-458152
-457400
-456755
-456226
-455522
-454811
-454119
-453543
-453003
-452512
-451869
-451316
-450818
-450420
-450029
-449553
-449163
-448842
-448603
-448225
-447844
-447652
-447477
-447414
-447242
-447146
-446898
-446819
-446704
-446672
-446614
-446600
-446585
-446711
-446749
-446705
-446709
-446827
-446879
-447016
-447068
-447128
-447253
-447412
-447606
-447853
-447904
-447999
-448165
-448359
-448518
-448677
-448840
-449089
-449341
-449515
-449644
-449869
-450057
-450300
-450388
-450584
-450778
-450978
-451300
-451459
-451583
-452039
-452161
-452322
-452461
-452514
-452800
-453084
-453300
-453419
-453585
-453828
-454064
-454269
-454455
-454546
-454838
-455144
-455386
-455470
-455731
-455915
-456235
-456433
-456579
-456787
-457040
-457370
-457639
-457800
-457994
-458186
-458503
-458755
-458861
-458971
-459332
-459537
-459729
-459920
-460107
-460351
-460593
-460747
-460881
-461001
-461123
-461390
-461558
-461698
-461766
-461975
-462203
-462316
-462451
-462448
-462601
-462769
-462926
-462949
-462998
-463057
-463344
-463325
-463242
-463268
-463404
-463486
-463534
-463510
-463441
-463442
-463475
-463432
-463401
-463431
-463428
-463370
-463454
-463317
-463220
-463261
-463222
-463183
-463083
-463010
-463003
-462951
-462843
-462763
-462671
-462681
-462673
-462639
-462575
-462449
-462382
-462370
-462362
-462215
-462180
-462218
-462223
-462148
-462103
-462020
-462079
-462105
-462049
-462022
-461952
-461918
-462008
-462040
-462005
-461957
-461978
-462103
-462159
-462132
-462108
-462172
-462259
-462381
-462289
-462322
-462349
-462499
-462479
-462550
-462590
-462714
-462825
-462922
-462951
-462947
-463044
-463151
-463328
-463323
-463356
-463531
-463629
-463756
-463829
-463906
-464000
-464153
-464200
-464306
-464318
-464511
-464681
-464739
-464709
-464761
-465006
-465205
-465336
-465400
-465475
-465640
-465780
-465932
-465933
-466052
-466198
-466360
-466493
-466613
-466706
-466847
-467041
-467135
-467244
-467313
-467466
-468018
-467875
-467925
-467932
-468097
-468306
-468392
-468509
-468554
-468758
-468898
-469073
-469155
-469240
-469392
-469548
-469759
-469768
-469838
-469904
-470145
-470310
-470394
-470445
-470645
-470762
-470943
-470921
-471011
-471160
-471363
-471558
-471581
-471638
-471721
-471955
-472129
-472234
-472230
-472404
-472637
-472776
-472846
-472963
-473111
-473245
-473426
-473436
-473522
-473647
-473799
-473971
-473997
-474141
-474261
-474390
-474559
-474489
-474508
-474572
-474608
-474546
-474489
-474339
-474144
-474073
-473832
-473572
-473191
-472921
-472574
-472194
-471681
-471173
-470673
-470215
-469557
-469026
-468308
-467721
-467089
-466530
-465801
-464379
-463682
-462951
-461402
-460665
-459974
-459285
-458431
-457738
-457026
-456328
-455649
-454831
-454145
-453533
-452977
-452384
-451800
-451203
-450635
-450173
-449767
-449211
-448726
-448428
-448093
-447723
-447390
-447033
-446810
-446625
-446437
-446213
-445975
-445940
-445862
-445711
-445610
-445573
-445610
-445584
-445656
-445627
-445585
-445657
-445744
-445878
-445898
-445986
-446138
-446389
-446461
-446537
-446751
-446930
-447188
-447333
-447364
-447526
-447815
-448076
-448301
-448407
-448467
-448760
-449057
-449244
-449451
-449437
-449833
-450105
-450333
-450432
-450644
-450951
-451240
-451426
-451559
-451706
-451964
-452190
-452504
-452662
-452857
-453094
-453363
-453569
-453805
-453985
-454321
-454442
-454710
-454869
-455119
-455359
-455620
-455792
-456065
-456239
-456569
-456957
-457139
-457332
-457565
-457762
-458018
-458211
-458541
-458688
-458889
-459194
-459412
-459573
-459750
-460008
-460258
-460531
-460697
-460778
-461107
-461295
-461598
-461658
-461692
-461907
-462161
-462362
-462472
-462501
-462727
-462873
-463032
-463091
-463099
-463227
-463326
-463483
-463491
-463516
-463630
-463713
-463725
-463746
-464060
-463958
-463916
-463968
-463886
-463725
-463840
-463865
-463870
-463820
-463718
-463705
-463708
-463656
-463941
-463571
-463504
-463537
-463426
-463353
-463284
-463301
-463338
-463221
-463172
-463147
-463095
-462999
-462920
-463272
-462936
-462835
-462809
-462729
-462670
-462797
-462710
-462645
-462643
-462467
-462511
-462539
-462440
-462592
-462568
-462754
-462686
-462897
-462771
-462703
-462656
-462764
-462871
-462911
-462852
-462845
-462994
-463080
-463162
-463062
-463166
-463349
-463389
-463499
-463536
-463579
-463652
-463788
-463828
-463909
-463982
-464153
-464298
-464373
-464630
-464482
-464651
-464840
-464949
-464902
-465053
-465170
-465324
-465428
-465469
-465631
-465810
-465940
-466081
-466158
-466255
-466432
-466563
-466638
-466800
-466810
-467044
-467205
-467327
-467395
-467433
-467653
-467862
-467987
-467984
-468148
-468320
-468446
-468588
-468668
-468785
-469000
-469163
-469293
-469275
-469446
-469653
-469821
-469949
-470054
-470192
-470368
-470502
-470585
-470693
-470756
-470951
-470990
-471243
-471306
-471419
-471588
-471756
-471961
-471972
-472090
-472233
-472444
-472587
-472654
-472687
-472895
-473114
-473202
-473242
-473347
-473456
-473719
-473690
-473867
-473908
-474154
-474263
-474471
-474532
-474647
-474850
-474941
-475024
-475152
-475278
-475402
-475640
-475733
-475792
-475850
-476001
-476262
-476321
-476363
-476436
-476531
-476663
-476693
-476680
-476676
-476641
-476577
-476511
-476297
-476040
-475907
-475794
-475367
-474979
-474539
-474196
-473797
-473264
-472670
-472144
-471901
-471014
-470370
-469579
-468884
-468272
-467731
-467023
-466164
-465403
-464675
-463937
-463202
-462400
-461581
-460866
-460145
-459388
-458612
-457859
-457160
-456511
-455811
-455056
-454403
-453855
-453252
-452672
-452120
-451568
-451076
-450656
-450236
-449764
-449353
-449056
-448817
-448513
-448113
-447882
-447735
-447635
-447432
-447265
-447132
-447007
-446933
-446881
-446816
-446783
-446844
-446903
-446962
-446940
-447030
-447163
-447263
-447314
-447426
-447559
-447733
-447897
-448022
-448115
-448273
-448472
-448731
-448882
-449021
-449176
-449443
-449710
-449871
-450012
-450172
-450485
-450810
-451019
-451151
-451321
-451650
-451876
-452008
-452215
-452529
-452745
-453085
-453254
-453440
-453696
-453965
-454232
-454453
-454700
-454829
-455092
-455389
-455633
-455769
-455825
-456280
-456558
-456821
-456996
-457223
-457491
-457719
-458012
-458339
-458491
-458754
-459098
-459283
-459542
-459771
-460079
-460390
-460566
-460750
-461023
-461223
-461502
-461783
-461952
-462109
-462353
-462643
-462803
-462973
-463223
-463413
-463685
-463796
-463891
-464058
-464169
-464505
-464605
-464632
-464813
-464966
-465118
-465180
-465295
-465266
-465459
-465620
-465774
-465704
-465797
-465819
-465931
-466055
-465994
-465982
-466051
-466085
-466088
-466031
-466071
-465993
-466015
-465960
-465861
-465855
-465947
-465850
-465827
-465753
-465747
-465706
-465675
-465593
-465487
-465555
-465512
-465363
-465326
-465340
-465348
-465314
-465154
-465185
-465150
-465129
-465113
-465069
-465012
-465013
-465113
-465029
-465002
-464990
-465031
-465130
-465063
-465047
-465109
-465125
-465166
-465217
-465197
-465186
-465250
-465355
-465401
-465410
-465462
-465529
-465648
-465621
-465715
-465699
-465808
-465899
-465996
-466038
-466035
-466225
-466405
-466378
-466413
-466551
-466637
-466877
-466970
-467049
-467070
-467185
-467406
-467486
-467556
-467583
-467734
-467915
-468112
-468161
-468243
-468393
-468504
-468649
-468699
-468851
-469004
-469178
-469362
-469436
-469481
-469698
-469918
-470049
-470077
-470231
-470359
-470556
-470748
-470793
-470885
-471069
-471212
-471352
-471420
-471541
-471714
-472023
-472104
-472158
-472251
-472431
-472675
-472770
-472823
-472900
-473068
-473339
-473523
-473596
-473512
-473782
-474008
-474154
-474248
-474331
-474520
-474738
-474841
-474936
-475041
-475185
-475407
-475442
-475607
-475720
-475835
-476040
-476134
-476188
-476246
-476473
-476612
-476662
-476841
-476977
-477114
-477265
-477374
-477501
-477572
-477716
-477886
-477999
-477927
-478135
-478339
-478507
-478634
-478698
-478781
-478876
-479146
-479260
-479354
-479400
-479589
-479788
-479896
-479956
-479988
-480173
-480326
-480507
-480521
-480543
-480689
-480853
-480916
-481014
-481077
-481031
-481235
-481247
-481251
-481084
-481061
-481021
-480795
-480604
-480302
-480116
-479879
-479451
-479016
-478491
-478000
-477529
-476913
-476283
-475591
-474911
-474360
-473647
-472899
-472109
-471456
-470718
-469944
-469094
-468308
-467515
-466791
-465956
-465050
-464315
-463508
-462875
-462010
-461142
-460335
-459720
-458933
-458257
-457573
-456928
-456341
-455756
-455138
-454596
-454070
-453676
-453255
-452834
-452459
-452082
-451764
-451471
-451149
-450831
-450606
-450433
-450313
-450168
-450215
-449992
-449882
-449938
-449841
-449820
-449919
-450013
-450048
-450038
-450103
-450266
-450417
-450542
-450662
-450759
-451020
-451237
-451433
-451549
-451667
-451946
-452175
-452403
-452537
-452772
-453100
-453309
-453545
-453803
-454000
-454197
-454482
-454766
-454929
-455172
-455469
-455799
-455984
-456214
-456412
-456650
-456906
-457149
-457214
-457507
-457929
-458577
-458533
-458629
-458933
-459179
-459439
-459688
-459854
-460113
-460442
-460809
-461006
-461178
-461416
-461799
-462098
-462345
-462566
-462780
-463054
-463413
-463670
-463823
-464060
-464343
-464702
-464888
-465085
-465268
-465490
-465743
-465938
-466156
-466396
-466586
-466861
-467017
-467231
-467316
-467564
-467768
-467875
-467924
-468166
-468257
-468460
-468608
-468721
-468754
-468920
-469127
-469199
-469140
-469175
-469335
-469428
-469421
-469374
-469449
-469519
-469601
-469568
-469569
-469534
-469531
-469633
-469478
-469463
-469380
-469415
-469426
-469394
-469274
-469213
-469170
-469208
-469138
-469006
-468906
-468864
-468744
-468650
-468583
-468554
-468339
-468179
-468113
-468088
-468002
-468029
-468035
-468510
-467940
-468007
-468027
-467867
-467808
-467789
-467894
-467895
-467968
-467856
-467848
-467936
-467908
-467996
-468024
-467902
-468026
-468149
-468173
-468123
-468212
-468286
-468410
-468427
-468491
-468472
-468495
-468525
-468725
-468814
-468810
-468943
-469065
-469237
-469229
-469249
-469331
-469488
-469616
-469624
-469740
-469946
-470061
-470142
-470194
-470262
-470421
-470580
-470697
-470829
-470856
-471018
-471219
-471293
-471342
-471407
-471602
-471749
-471840
-471916
-472092
-472263
-472456
-472566
-472568
-472707
-472930
-473130
-473182
-473207
-473413
-473556
-473779
-473863
-473948
-474020
-474242
-474406
-474491
-474573
-474710
-474892
-475088
-475180
-475242
-475359
-475492
-475720
-475858
-475939
-476058
-476129
-476307
-476471
-476521
-476636
-476786
-476925
-477071
-477127
-477253
-477448
-477682
-477751
-477867
-477900
-478061
-478281
-478289
-478435
-478444
-478639
-478810
-478873
-478967
-479031
-479137
-479364
-479509
-479512
-479675
-479774
-479947
-480007
-480091
-480139
-480213
-480416
-480548
-480585
-480733
-480810
-481079
-481143
-481167
-481236
-481388
-481600
-481699
-481672
-481765
-481943
-482104
-482184
-482281
-482399
-482460
-482585
-482692
-482775
-482797
-482963
-483131
-483246
-483273
-483285
-483419
-483544
-483689
-483661
-483694
-483766
-483831
-483830
-483788
-483629
-483572
-483503
-483138
-482900
-482503
-482189
-481914
-481432
-480847
-480350
-479863
-479325
-478683
-477974
-477241
-476630
-475967
-475234
-474409
-473576
-472898
-472144
-471332
-470456
-469592
-468818
-468051
-467165
-466274
-465467
-464635
-463902
-462986
-462223
-461436
-460755
-460060
-459301
-458599
-457938
-457350
-456811
-456215
-455474
-455053
-454628
-454213
-453833
-453359
-453078
-452729
-452515
-452220
-451939
-451703
-451537
-451492
-451251
-451102
-450983
-450997
-451002
-450930
-450901
-451038
-451140
-451191
-451115
-451243
-451466
-451533
-451651
-451812
-451893
-452097
-452327
-452439
-452623
-452806
-453054
-453323
-453475
-453691
-453807
-454119
-454473
-454655
-454813
-454961
-455295
-455526
-455744
-455937
-456183
-456432
-456726
-456980
-457148
-457361
-457691
-457978
-458228
-458374
-458660
-458899
-459123
-459393
-459655
-459834
-460190
-460508
-460746
-460903
-461189
-461520
-461849
-462014
-462209
-462502
-462793
-463112
-463265
-463533
-463800
-464143
-464446
-464616
-464831
-465055
-465355
-465635
-465843
-465942
-466177
-466449
-466689
-466919
-467057
-467220
-467509
-467793
-467930
-468034
-468196
-468359
-468553
-468561
-468677
-468783
-468979
-469204
-469265
-469355
-469437
-469498
-469617
-469884
-469809
-469788
-469861
-469889
-469895
-469868
-469850
-469888
-469932
-469870
-469840
-469728
-469813
-469765
-469725
-469538
-469392
-469455
-469340
-469199
-469093
-469048
-469032
-468936
-468731
-468540
-468600
-468438
-468363
-468278
-468219
-468155
-468141
-467936
-467842
-467848
-467776
-467706
-467608
-467521
-467474
-467440
-467464
-467547
-467296
-467115
-467148
-467171
-467165
-467055
-467074
-467127
-467138
-467105
-467075
-467064
-467100
-467076
-466924
-467002
-467135
-467226
-467171
-467168
-467254
-467288
-467358
-467433
-467401
-467420
-467519
-467662
-467674
-467676
-467679
-467785
-467910
-467999
-467992
-468076
-468163
-468318
-468333
-468308
-468393
-468536
-468696
-468795
-468790
-468871
-468990
-469248
-469328
-469386
-469416
-469508
-469719
-469750
-469865
-469983
-470027
-470220
-470276
-470331
-470466
-470576
-470747
-470817
-470830
-470964
-471079
-471306
-471381
-471448
-471516
-471741
-471912
-471985
-472024
-472170
-472359
-472420
-472534
-472629
-472744
-472921
-473050
-473191
-473167
-473348
-473518
-473590
-473694
-473762
-473808
-474011
-474127
-474262
-474326
-474374
-474533
-474731
-474801
-474872
-475076
-475114
-475264
-475302
-475389
-475444
-475581
-475748
-475888
-476013
-476097
-476259
-476297
-476410
-476483
-476529
-476701
-476863
-476896
-476971
-477123
-477205
-477347
-477404
-477529
-477633
-477771
-477924
-478030
-478033
-478101
-478254
-478477
-478539
-478545
-478595
-478791
-478930
-478972
-479073
-479039
-479232
-479375
-479493
-479573
-479668
-479733
-479859
-479992
-479983
-480040
-480158
-480237
-480294
-480306
-480229
-480225
-480212
-480136
-479928
-479747
-479548
-479334
-478967
-478569
-478180
-477676
-477094
-476650
-476061
-475485
-474962
-474352
-473689
-472896
-472174
-471499
-470759
-470060
-469193
-468351
-467636
-466873
-466055
-465142
-464343
-463667
-462735
-462014
-461171
-460420
-459907
-459068
-458244
-457515
-456766
-456156
-455572
-454768
-454141
-453612
-453057
-452638
-452140
-451648
-451222
-450801
-450487
-450192
-449833
-449557
-449310
-449133
-448983
-448678
-448551
-448482
-448400
-448292
-448222
-448181
-448146
-448256
-448275
-448180
-448216
-448385
-448517
-448613
-449661
-449904
-450100
-450299
-450461
-450737
-450969
-451159
-451262
-451493
-451759
-452028
-452215
-452415
-452739
-452949
-453236
-453491
-453620
-453837
-454076
-454402
-454634
-454836
-455115
-455423
-455714
-455919
-456144
-456353
-456677
-456953
-457162
-457338
-457643
-457949
-458249
-458496
-458635
-458907
-459279
-459550
-459811
-460010
-460244
-460558
-460886
-461079
-461335
-461606
-461957
-462175
-462403
-462511
-462772
-463071
-463388
-463618
-463701
-463898
-464162
-464432
-464538
-464721
-464936
-465204
-465384
-465533
-465563
-465720
-466004
-466087
-466238
-466198
-466344
-466464
-466689
-466659
-466720
-466739
-466803
-466907
-466940
-466938
-466893
-466993
-466952
-467018
-466975
-466881
-466843
-466887
-466783
-466613
-466525
-466582
-466527
-466452
-466357
-466114
-466128
-466087
-465955
-465773
-465620
-465635
-465531
-465411
-465281
-465141
-465068
-465052
-464936
-464847
-464639
-464624
-464607
-464483
-464351
-464306
-464254
-464200
-464193
-464032
-463954
-464370
-464145
-463919
-463737
-463707
-463792
-463844
-463780
-463657
-463609
-463694
-463743
-463726
-463661
-463628
-463680
-463768
-463751
-463768
-463788
-463912
-463968
-463943
-463885
-463914
-464083
-464168
-464186
-464191
-464251
-464422
-464461
-464519
-464536
-464588
-464678
-464872
-464908
-464891
-464999
-465194
-465359
-465385
-465343
-465476
-465612
-465777
-465833
-465885
-465977
-466170
-466315
-466399
-466500
-466526
-466703
-466894
-466922
-467072
-467142
-467275
-467502
-467567
-467633
-467677
-467902
-468098
-468183
-468275
-468350
-468590
-468766
-468770
-468816
-468973
-469125
-469294
-469378
-469563
-469582
-469693
-469931
-470038
-470064
-470230
-470293
-470502
-470613
-470647
-470814
-470803
-471085
-471241
-471250
-471359
-471483
-471690
-471735
-471789
-471877
-472075
-472225
-472379
-472403
-472488
-472622
-472795
-472943
-472992
-472899
-473092
-473324
-473479
-473478
-473565
-473729
-473970
-474056
-474103
-474232
-474445
-474510
-474601
-474635
-474734
-474868
-475002
-475160
-475260
-475342
-475476
-475675
-475724
-475772
-475890
-476010
-476035
-475946
-475895
-475860
-475806
-475802
-475606
-475312
-475129
-474812
-474559
-474095
-473660
-473086
-472759
-472238
-471599
-471000
-470411
-469725
-469135
-468383
-467570
-466903
-466126
-465534
-464736
-463859
-463008
-462356
-461637
-460803
-459877
-459124
-458437
-457674
-456821
-456070
-455323
-454956
-454072
-453316
-452509
-451890
-451335
-450787
-450252
-449621
-449134
-448682
-448255
-447797
-447425
-447106
-446793
-446517
-446283
-445959
-445697
-445628
-445508
-445337
-445202
-445032
-444998
-445037
-444947
-444862
-444916
-444977
-445087
-445084
-445067
-445131
-445243
-445726
-445605
-445624
-445731
-445922
-446126
-446267
-446397
-446506
-446824
-447052
-447280
-447420
-447549
-447779
-448187
-448343
-448477
-448681
-448926
-449185
-449450
-449559
-449758
-450093
-450398
-450599
-450768
-451011
-451296
-451570
-451732
-451985
-452214
-452526
-452742
-453011
-453192
-453404
-453658
-454056
-454276
-454440
-454728
-455020
-455313
-455566
-455725
-456015
-456321
-456640
-456919
-457111
-457346
-457708
-457957
-458220
-458376
-458694
-458924
-459227
-459496
-459680
-459841
-460110
-460356
-460589
-460727
-460977
-461207
-461445
-461652
-461718
-461877
-462052
-462232
-462440
-462543
-462697
-462883
-463094
-463144
-463148
-463219
-463445
-463603
-463634
-463581
-463660
-463793
-463879
-463868
-464106
-463932
-463948
-463961
-463923
-463851
-463793
-463863
-463903
-463667
-463614
-463567
-463612
-463574
-463474
-463364
-463319
-463339
-463261
-463082
-463029
-462962
-462896
-462862
-462771
-462634
-462545
-462525
-462462
-462450
-462267
-462227
-462202
-462087
-462078
-461929
-461857
-461952
-461900
-461907
-461787
-461706
-461716
-461791
-461735
-461716
-461636
-461685
-461713
-461650
-461644
-461319
-461647
-461732
-461736
-461756
-461753
-461845
-461874
-461970
-461954
-461956
-462087
-462204
-462227
-462276
-462292
-462362
-462502
-462633
-462550
-462629
-462818
-462892
-463011
-462981
-463013
-463147
-463271
-463469
-463472
-463532
-463693
-463852
-463918
-464378
-464203
-464284
-464438
-464485
-464540
-464663
-464819
-464958
-465010
-465182
-465512
-465726
-465795
-465862
-466032
-466205
-466260
-466363
-466476
-466711
-466858
-467004
-467030
-467169
-467329
-467439
-467595
-467701
-467754
-467917
-468197
-468261
-468309
-468428
-468610
-468848
-468909
-469021
-469191
-469321
-469448
-469617
-469699
-469755
-469911
-470107
-470222
-470372
-470435
-470588
-470819
-470909
-470937
-471040
-471244
-471467
-471599
-471524
-471793
-471858
-472172
-472192
-472324
-472457
-472651
-472860
-472867
-472902
-473080
-473262
-473487
-473617
-473657
-473748
-473854
-474059
-473992
-474000
-474008
-474096
-474032
-473897
-473751
-473525
-473364
-473174
-472847
-472452
-472020
-471636
-471173
-470570
-470005
-469412
-468860
-468232
-467549
-466900
-466217
-465543
-464882
-464126
-463310
-462449
-461763
-461037
-460244
-459319
-458538
-457770
-456985
-456298
-455459
-454756
-454047
-453409
-452592
-451790
-451104
-450524
-450034
-449390
-448805
-448212
-447730
-447266
-446822
-446345
-446002
-445715
-445372
-445017
-444700
-444473
-444304
-444037
-443822
-443681
-443540
-443502
-443466
-443356
-443279
-443221
-443284
-443313
-443438
-443393
-443441
-443540
-443735
-443834
-443947
-444064
-444158
-444378
-444507
-444623
-444776
-445025
-445189
-445477
-445575
-445810
-446041
-446297
-446491
-446676
-446875
-447188
-447482
-447709
-447890
-448062
-448424
-448660
-448838
-449044
-449336
-449586
-449906
-450063
-450214
-450450
-450798
-451078
-451275
-451515
-451724
-452044
-452292
-452529
-452764
-452961
-453288
-453566
-453817
-454070
-454302
-454579
-454874
-455136
-455347
-455592
-455953
-456258
-456528
-456718
-456877
-457179
-457505
-457800
-457930
-458197
-458437
-458728
-458998
-459025
-459317
-459516
-459783
-459932
-460059
-460295
-460504
-460714
-460892
-460958
-461112
-461327
-461499
-461609
-461665
-461774
-461999
-462164
-462217
-462235
-462328
-462425
-462488
-462505
-462528
-462628
-462671
-462719
-462674
-462632
-462656
-462642
-462720
-462624
-462532
-462525
-462571
-462567
-462436
-462336
-462207
-462279
-462236
-462152
-461984
-461895
-461998
-461907
-461845
-461638
-461637
-461622
-462073
-461654
-461472
-461346
-461315
-461298
-461257
-461070
-461120
-461123
-461127
-461105
-461030
-461017
-461048
-461039
-460994
-460952
-461001
-461015
-461142
-461084
-461011
-461007
-461133
-461267
-461217
-461165
-461205
-461273
-461414
-461447
-461387
-461653
-461660
-461776
-461784
-461700
-462072
-462120
-462402
-462365
-462433
-462590
-462622
-462609
-462684
-462929
-463009
-463088
-463127
-463276
-463411
-463548
-463646
-463728
-463806
-464050
-464240
-464336
-464332
-464464
-464624
-464779
-464939
-464995
-465103
-465292
-465427
-465538
-465562
-465775
-465943
-466113
-466226
-466259
-466374
-466644
-466796
-466869
-466953
-467133
-467321
-467449
-467625
-467635
-467804
-468045
-468144
-468280
-468403
-468503
-468685
-468940
-468941
-469043
-469180
-469454
-469590
-469596
-469741
-469885
-470107
-470289
-470382
-470475
-470571
-470749
-470918
-471050
-471062
-471187
-471362
-471506
-471632
-471673
-471866
-472141
-472238
-472343
-472474
-472574
-472816
-473024
-472977
-473089
-473187
-473378
-473612
-473742
-473759
-473802
-474004
-474054
-474149
-474076
-474154
-474149
-474157
-473986
-473834
-473681
-473486
-473235
-472890
-472378
-472039
-471662
-471238
-470707
-470059
-469581
-469021
-468309
-467637
-466986
-466259
-465657
-465007
-464160
-463327
-462582
-461855
-461047
-460198
-459413
-458688
-457915
-457106
-456276
-455463
-454676
-454034
-453251
-452499
-451686
-451079
-450504
-449825
-449565
-448639
-448011
-447573
-447060
-446469
-445994
-445642
-445340
-444972
-444663
-444265
-444003
-443807
-443636
-443455
-443159
-442942
-442961
-442858
-442731
-442669
-442620
-442701
-442688
-442705
-442697
-442675
-442900
-442990
-442994
-443079
-443199
-443361
-443509
-443599
-443696
-443854
-444100
-444314
-444490
-444570
-444710
-445013
-445212
-445383
-445544
-445701
-446004
-446231
-446380
-446608
-446815
-447082
-447344
-447521
-447696
-447900
-448131
-448421
-448679
-448816
-449010
-449341
-449628
-449790
-450013
-450166
-450490
-450801
-451031
-451164
-451415
-451641
-451953
-452192
-452434
-452612
-453023
-453237
-453457
-453754
-454005
-454264
-454538
-454776
-455034
-455285
-455585
-455827
-456117
-456293
-456466
-456768
-457008
-457196
-457344
-457542
-457861
-458016
-458211
-458381
-458556
-458730
-458952
-459128
-459259
-459426
-459588
-459717
-459819
-459852
-459972
-460269
-460252
-460411
-460377
-460475
-460571
-460732
-460789
-460792
-460769
-460870
-460888
-460870
-460828
-460905
-460903
-460953
-460926
-460776
-460746
-460747
-460839
-460672
-460587
-460526
-460554
-460541
-460466
-460340
-460263
-460268
-460289
-460142
-459996
-459984
-459942
-459864
-459718
-459626
-459669
-459588
-459614
-459446
-459432
-459391
-459416
-459370
-459262
-459220
-459232
-459288
-459220
-459110
-459112
-459222
-459220
-459169
-459201
-459231
-459243
-459281
-459239
-459248
-459329
-459421
-459466
-459441
-459483
-459521
-459582
-459606
-459657
-459690
-459778
-459844
-460028
-460030
-460054
-460159
-460224
-460354
-460378
-460395
-460499
-460696
-460776
-460834
-460815
-460947
-461150
-461209
-461280
-461339
-461410
-461525
-461790
-461904
-461946
-462046
-462199
-462321
-462490
-462493
-462605
-462840
-462898
-463102
-463144
-463243
-463358
-463585
-463642
-463714
-463760
-463933
-464056
-464140
-464300
-464393
-464522
-464760
-464870
-464930
-465047
-465231
-465349
-465453
-465529
-465652
-465819
-465949
-466037
-466111
-466298
-466412
-466602
-466711
-466738
-466923
-467054
-467240
-467303
-467446
-467458
-467693
-467870
-467990
-468030
-468197
-468376
-468489
-468701
-468681
-468832
-468938
-469094
-469225
-469301
-469448
-469543
-469758
-469824
-469989
-470096
-470305
-470447
-470502
-470588
-470659
-470854
-470922
-471041
-470963
-470988
-471038
-471120
-471002
-470817
-470690
-470541
-470353
-470068
-469756
-469398
-469008
-468642
-468131
-467564
-467070
-466706
-465981
-465217
-464631
-463966
-463276
-462505
-461842
-461022
-460308
-459592
-458842
-458036
-457243
-456474
-455655
-454904
-454043
-453201
-452504
-451817
-451025
-450337
-449574
-448863
-448270
-447695
-447006
-446343
-445800
-445327
-444840
-444313
-443816
-443162
-442986
-442667
-442306
-441919
-441657
-441472
-441278
-441075
-440843
-440750
-440606
-440548
-440474
-440393
-440327
-440409
-440452
-440428
-440402
-440440
-440577
-440641
-440728
-440733
-440866
-440953
-441173
-441237
-441380
-441545
-441726
-441982
-442159
-442243
-442392
-442650
-442984
-443114
-443249
-443451
-443723
-443971
-444082
-444247
-444439
-444696
-445017
-445212
-445412
-445595
-445849
-446110
-446289
-446433
-446698
-446975
-447244
-447448
-447652
-447852
-448148
-448368
-448646
-448772
-448994
-449330
-449581
-449843
-450035
-450235
-450589
-450849
-451032
-451270
-451497
-451844
-452142
-452356
-452594
-452810
-453052
-453297
-453521
-453746
-453985
-454258
-454488
-454685
-454833
-454990
-455275
-455461
-455692
-455879
-456021
-456212
-456417
-456465
-456585
-456775
-456987
-457123
-457208
-457252
-457275
-457517
-457631
-457643
-457707
-458154
-457977
-458045
-457966
-458003
-458025
-458035
-458089
-458095
-458011
-458050
-458043
-457972
-457892
-457907
-457949
-457909
-457876
-457686
-457645
-457698
-457694
-457575
-457840
-457460
-457403
-457343
-457193
-457102
-457028
-456996
-457017
-456887
-456797
-456781
-456738
-456690
-456640
-456577
-456520
-456480
-456482
-456349
-456310
-456323
-456373
-456383
-456380
-456343
-456187
-456302
-456341
-456257
-456217
-456291
-456387
-456388
-456376
-456358
-456473
-456477
-456532
-456525
-456573
-456597
-456656
-456809
-456725
-456826
-456944
-457007
-457040
-457056
-457206
-457344
-457501
-457468
-457456
-457621
-457674
-457743
-457873
-457899
-458017
-458206
-458347
-458372
-458399
-458503
-458745
-458873
-458882
-458951
-459125
-459239
-459345
-459418
-459491
-459657
-459844
-459948
-459996
-460068
-460171
-460368
-460477
-460491
-460649
-460740
-460948
-461026
-461199
-461234
-461292
-461424
-461568
-461636
-461716
-461900
-462033
-462182
-462313
-462348
-462442
-462615
-462799
-462825
-462916
-463053
-463156
-463366
-463439
-463443
-463556
-463734
-463886
-463915
-464008
-464125
-464340
-464477
-464550
-464653
-464774
-464974
-465069
-465119
-465134
-465348
-465508
-465658
-465647
-465718
-465906
-466041
-466205
-466236
-466349
-466477
-466626
-466804
-466853
-466845
-466911
-467143
-467294
-467381
-467410
-467591
-467683
-467820
-467879
-467845
-467932
-468033
-468088
-468064
-468033
-468046
-467963
-467941
-467656
-467430
-467166
-466947
-466756
-466250
-465775
-465369
-464994
-464581
-463948
-463252
-462708
-462134
-461512
-460765
-460016
-459380
-458682
-457998
-457236
-456376
-455615
-454888
-454110
-453299
-452474
-451720
-451045
-450353
-449400
-448695
-447993
-447325
-446694
-446025
-445306
-444641
-444150
-443616
-443117
-442450
-441875
-441602
-441210
-440751
-440320
-440059
-439765
-439486
-439239
-438942
-438758
-438645
-438515
-438288
-438242
-438135
-438130
-438058
-438026
-437946
-438100
-438142
-438217
-438187
-438213
-438267
-438460
-438417
-438602
-438763
-438843
-439099
-439272
-439314
-439496
-439672
-439896
-440095
-440240
-440432
-440593
-440881
-441059
-441316
-441442
-441659
-441939
-442090
-442278
-442474
-442706
-442961
-443233
-443379
-443525
-443798
-444021
-444240
-444439
-444621
-444790
-445058
-445326
-445560
-445580
-445903
-446207
-446519
-446743
-446901
-447096
-447388
-447666
-447827
-448114
-448353
-448597
-448831
-449024
-449191
-449417
-449695
-449933
-450131
-450298
-450594
-450857
-451100
-451223
-451335
-451566
-451776
-452044
-452117
-452263
-452475
-452651
-452878
-452952
-453186
-453413
-453510
-453514
-453560
-453745
-453973
-454048
-454143
-454045
-454155
-454281
-454338
-454344
-454302
-454327
-454414
-454435
-454406
-454376
-454333
-454340
-454369
-454260
-454206
-454109
-454115
-454110
-454009
-453886
-453836
-453809
-453782
-453693
-453508
-453430
-453422
-453352
-453310
-453157
-453052
-453048
-452987
-452831
-452697
-452716
-452665
-452597
-452510
-452447
-452361
-452363
-452384
-452263
-452173
-452120
-452162
-452237
-452125
-452084
-452118
-452178
-452185
-452055
-452024
-452149
-452120
-452177
-452117
-452150
-452149
-452287
-452385
-452357
-452336
-452368
-452458
-452550
-452521
-452415
-452604
-452692
-452797
-452849
-452858
-452958
-453019
-453184
-453223
-453189
-453255
-453475
-453493
-453580
-453624
-453733
-453869
-453964
-453972
-454102
-454211
-454408
-454422
-454505
-454524
-454678
-454829
-454923
-454986
-455057
-455155
-455318
-455457
-455544
-455613
-455722
-455842
-455957
-456020
-456100
-456198
-456622
-456584
-456646
-456655
-456794
-456985
-457021
-457122
-457220
-457303
-457473
-457621
-457712
-457772
-457909
-458095
-458218
-458351
-458323
-458421
-458603
-458773
-458837
-458897
-459038
-459172
-459407
-459408
-459504
-459588
-459764
-459874
-459894
-460037
-460176
-460360
-460450
-460542
-460590
-460660
-460933
-460948
-461085
-461081
-461264
-461401
-461507
-461622
-461726
-461823
-461967
-462094
-462106
-462164
-462374
-462427
-462575
-462692
-462728
-462842
-463059
-463110
-463104
-463236
-463329
-463479
-463670
-463695
-463714
-463847
-464024
-464121
-464172
-464171
-464293
-464513
-464517
-464530
-464524
-464577
-464771
-464720
-464763
-464569
-464637
-464496
-464400
-464059
-463750
-463589
-463361
-463047
-462559
-462079
-461599
-461117
-460693
-460040
-459419
-458835
-458230
-457611
-456885
-456122
-455493
-454821
-454093
-453287
-452444
-451809
-451132
-450403
-449530
-448772
-448046
-447385
-446633
-445812
-445047
-444495
-443831
-443260
-442529
-441927
-441377
-440892
-440346
-439792
-439337
-438813
-438583
-438291
-437876
-437469
-437235
-437107
-436797
-436585
-436378
-436157
-436137
-435839
-435855
-435804
-435754
-435788
-435786
-435765
-435703
-435851
-435921
-436032
-436102
-436191
-436308
-436469
-436602
-436690
-436817
-436988
-437162
-437393
-437556
-437678
-438157
-438230
-438302
-438439
-438893
-438998
-439134
-439379
-439527
-439700
-439954
-440235
-440496
-440649
-440799
-441049
-441356
-441601
-441880
-442023
-442212
-442432
-442682
-442929
-443126
-443364
-443621
-443842
-444093
-444269
-444539
-444803
-445029
-445203
-445470
-445696
-446042
-446339
-446463
-446684
-446860
-447187
-447485
-447603
-447893
-448159
-448413
-448617
-448787
-449007
-449250
-449545
-449765
-449907
-450099
-450260
-450489
-450780
-450901
-450990
-451140
-451376
-451604
-451670
-451795
-451938
-452113
-452226
-452261
-452296
-452416
-452601
-452693
-452710
-452720
-452836
-452968
-453016
-452946
-452958
-452971
-453039
-452929
-452912
-452892
-452857
-452882
-452850
-452719
-452680
-452558
-452561
-452551
-452435
-452397
-452281
-452211
-452179
-452132
-451927
-451870
-451886
-451807
-451729
-451563
-451496
-451498
-451475
-451335
-451239
-451159
-451140
-451158
-451077
-450990
-450896
-450932
-450840
-450863
-450746
-450770
-450839
-450864
-450834
-450772
-450828
-450873
-450929
-450842
-450822
-450902
-450974
-451071
-451023
-451065
-451116
-451213
-451211
-451276
-451265
-451395
-451583
-451670
-451661
-451691
-451753
-451850
-451947
-452033
-452019
-452147
-452260
-452498
-452508
-452525
-452727
-452804
-452921
-453030
-453063
-453170
-453274
-453547
-453583
-453555
-453697
-453919
-454007
-454021
-454097
-454304
-454671
-454721
-454702
-454710
-454847
-455019
-455245
-455295
-455358
-455529
-455709
-455832
-455879
-455987
-456123
-456332
-456462
-456648
-456665
-456761
-456968
-457148
-457251
-457329
-457548
-457693
-457811
-457808
-457868
-458066
-458258
-458401
-458479
-458578
-458711
-458892
-459016
-459208
-459176
-459291
-459538
-459637
-459697
-459848
-459957
-460155
-460255
-460315
-460440
-460507
-460664
-460769
-460897
-460831
-461075
-461230
-461371
-461436
-461417
-461567
-461782
-461898
-461967
-462063
-462133
-462278
-462466
-462475
-462538
-462686
-462763
-463170
-463079
-463091
-463173
-463396
-463473
-463559
-463561
-463646
-463827
-463936
-464056
-464203
-464232
-464437
-464611
-464619
-464714
-464907
-465002
-465007
-465125
-465215
-465375
-465546
-465558
-465565
-465650
-465752
-465849
-465883
-465851
-465850
-466179
-465971
-465861
-465602
-465547
-465370
-465157
-464814
-464523
-464174
-463821
-463422
-462851
-462363
-461860
-461259
-460837
-460166
-459486
-458923
-458276
-457625
-456936
-456163
-455526
-454828
-454139
-453340
-452532
-451877
-451218
-450476
-449635
-448893
-448200
-447651
-446907
-446158
-445518
-444939
-444308
-443759
-443179
-442559
-442214
-441797
-441428
-440885
-440556
-440185
-439985
-439719
-439345
-439109
-438921
-438762
-438587
-438459
-438275
-438240
-438150
-438211
-438098
-438065
-438089
-438127
-438196
-438189
-438233
-438338
-438448
-438651
-438704
-438777
-438912
-439151
-439314
-439340
-439525
-439707
-439925
-440111
-440212
-440375
-440643
-440814
-441018
-441244
-441335
-441621
-441911
-442094
-442253
-442415
-442644
-442950
-443162
-443284
-443465
-443714
-443966
-444237
-444387
-444536
-444792
-445071
-445306
-445378
-445564
-445796
-446001
-446295
-446420
-446586
-446832
-447095
-447284
-447454
-447551
-447927
-448177
-448501
-448625
-448888
-449125
-449353
-449640
-449850
-449919
-450225
-450547
-450745
-450860
-451138
-451340
-451631
-451872
-452030
-452250
-452477
-452648
-452885
-452994
-453146
-453305
-453517
-453679
-453795
-453898
-454119
-454299
-454411
-454502
-454611
-454693
-454825
-455031
-455050
-455099
-455239
-455310
-455388
-455344
-455302
-455386
-455519
-455562
-455494
-455471
-455484
-455557
-455622
-455483
-455381
-455364
-455464
-455343
-455317
-455282
-455198
-455200
-455181
-455049
-454997
-454924
-454884
-454901
-454843
-454709
-454730
-454692
-454656
-454478
-454428
-454442
-454381
-454371
-454261
-454183
-454225
-454238
-454193
-454098
-453981
-454220
-454147
-454044
-454033
-454104
-454199
-454205
-454116
-454156
-454174
-454269
-454426
-454325
-454417
-454474
-454381
-454470
-454584
-454580
-454676
-455101
-454931
-454926
-454963
-455048
-455240
-455299
-455400
-455498
-455579
-455657
-455778
-455847
-455897
-456039
-456150
-456307
-456346
-456394
-456543
-456712
-456861
-457365
-457147
-457176
-457297
-457451
-457607
-457620
-457769
-457907
-458120
-458158
-458255
-458473
-458605
-458723
-458773
-458928
-459049
-459266
-459464
-459491
-459622
-459693
-459976
-460119
-460182
-460287
-460517
-460666
-460878
-460979
-460968
-461186
-461399
-461586
-461594
-461633
-461844
-462037
-462229
-462260
-462368
-462555
-462585
-462822
-462880
-462963
-463183
-463353
-463508
-463599
-463671
-463756
-463964
-464164
-464277
-464308
-464463
-464637
-464780
-464855
-464927
-465085
-465213
-465379
-465419
-465531
-465662
-465821
-466007
-465994
-466100
-466182
-466459
-466577
-466648
-466603
-466739
-466972
-467043
-467156
-467225
-467293
-467485
-467558
-467600
-467714
-467815
-467988
-468095
-468103
-468202
-468289
-468499
-468640
-468668
-468765
-468863
-468984
-469074
-469083
-469155
-469288
-469411
-469539
-469603
-469676
-469850
-469937
-470016
-470052
-470117
-470245
-470461
-470464
-470597
-470595
-470748
-470890
-470951
-470987
-471047
-471157
-471354
-471529
-471546
-471595
-471703
-471837
-471924
-472028
-472041
-472197
-472335
-472421
-472518
-472415
-472495
-472620
-472685
-472651
-472547
-472552
-472506
-472471
-472247
-472028
-471813
-471613
-471396
-470970
-470513
-469981
-469688
-469291
-468682
-468223
-467667
-467127
-466466
-465791
-465132
-464442
-463834
-463115
-462293
-461588
-460816
-460163
-459381
-458617
-457850
-457142
-456452
-455658
-454878
-454138
-453482
-452810
-452149
-451447
-450749
-450250
-449677
-449179
-448593
-448076
-447596
-447200
-446825
-446369
-445951
-445651
-445369
-445096
-444770
-444539
-444421
-444349
-444141
-443960
-443815
-443801
-443861
-443784
-443648
-443646
-443715
-443819
-443846
-443847
-443882
-444001
-444186
-444319
-444449
-444461
-444705
-444911
-445116
-445207
-445301
-445525
-445785
-446037
-446139
-446288
-446563
-446807
-447024
-447208
-447375
-447634
-447933
-448157
-448369
-448446
-448771
-449059
-449306
-449485
-449586
-449832
-450127
-450274
-450521
-450750
-450910
-451235
-451436
-451579
-451684
-451988
-452215
-452460
-452661
-452840
-453048
-453396
-453539
-453730
-453899
-454195
-454414
-454652
-454853
-455060
-455317
-455608
-455770
-455938
-456170
-456917
-457219
-457438
-457747
-457944
-458095
-458238
-458458
-458684
-458799
-458892
-459139
-459334
-459434
-459599
-459699
-459846
-460044
-460217
-460332
-460426
-460489
-460641
-460848
-460776
-460867
-460937
-461050
-461167
-461258
-461242
-461267
-461280
-461375
-461428
-461453
-461373
-461401
-461414
-461468
-461330
-461294
-461360
-461390
-461408
-461284
-461270
-461168
-461182
-461204
-461106
-460933
-460986
-460991
-460977
-460884
-460750
-460693
-460769
-460698
-460626
-460852
-460586
-460522
-460495
-460325
-460350
-460357
-460375
-460298
-460233
-460139
-460212
-460291
-460274
-460185
-460137
-460251
-460303
-460264
-460182
-460243
-460216
-460282
-460307
-460357
-460318
-460449
-460578
-460583
-460580
-460538
-460647
-460713
-460658
-460817
-460895
-460987
-461063
-461148
-461243
-461233
-461332
-461464
-461559
-461623
-461670
-461723
-461916
-461990
-462089
-462028
-462299
-462379
-462505
-462559
-462661
-462761
-462946
-463021
-463080
-463191
-463347
-463526
-463761
-463732
-463815
-463903
-464028
-464217
-464276
-464347
-464546
-464714
-464884
-464929
-465074
-465256
-465377
-465510
-465621
-465612
-465824
-466045
-466115
-466219
-466346
-466529
-466737
-466855
-466869
-466944
-467113
-467337
-467455
-467493
-467643
-467751
-467885
-468156
-468111
-468278
-468423
-468595
-468743
-468800
-468883
-469058
-469270
-469367
-469385
-469534
-469730
-469858
-469920
-470015
-470061
-470299
-470478
-470613
-470629
-470783
-470953
-471112
-471254
-471332
-471366
-471522
-471665
-471809
-471935
-472253
-472219
-472292
-472376
-472396
-472504
-472652
-472790
-472926
-472984
-472973
-473065
-473337
-473420
-473494
-473598
-473755
-473861
-473938
-474032
-474074
-474214
-474355
-474479
-474550
-474593
-474715
-474812
-474919
-474953
-475086
-475233
-475416
-475493
-475503
-475560
-475675
-475840
-475921
-475928
-475982
-476067
-476282
-476331
-476421
-476430
-476581
-476750
-476754
-476812
-476856
-476914
-477160
-477297
-477331
-477353
-477520
-477659
-477762
-477736
-477832
-477895
-478091
-478162
-478203
-478268
-478321
-478518
-478566
-478554
-478606
-478804
-478834
-478947
-479002
-479092
-479146
-479262
-479289
-479367
-479467
-479550
-479765
-479806
-479817
-479849
-479966
-480161
-480123
-480022
-480224
-480226
-480485
-480578
-480609
-480716
-480745
-481259
-481064
-481040
-481035
-481228
-481336
-481429
-481396
-481418
-481492
-481601
-481717
-481695
-481580
-481556
-481626
-481503
-481334
-481136
-480931
-480826
-480472
-480101
-479700
-479329
-478964
-478426
-477863
-477311
-476758
-476259
-475644
-474982
-474306
-473676
-473033
-472261
-471531
-470757
-470071
-469277
-468529
-467761
-466978
-466337
-465517
-464711
-463904
-463184
-462507
-461748
-461115
-460356
-459588
-459029
-458492
-457892
-457175
-456624
-456219
-455695
-455273
-454786
-454296
-454003
-453741
-453450
-453065
-452825
-452620
-452455
-452254
-452031
-451792
-451791
-451775
-451631
-451617
-451534
-451536
-451584
-451689
-451606
-451754
-451807
-451917
-451946
-452115
-452213
-452370
-452661
-452740
-452914
-453007
-453222
-453502
-453704
-453829
-454026
-454299
-454506
-454730
-454912
-455152
-455402
-455684
-456052
-456200
-456338
-456586
-456865
-457085
-457246
-457463
-457756
-458014
-458184
-458466
-458665
-458865
-459131
-459350
-459552
-459784
-460010
-460324
-460541
-461040
-461034
-461264
-461461
-461685
-461865
-462057
-462330
-462572
-462817
-462973
-463215
-463476
-463727
-463983
-464203
-464396
-464607
-464881
-465152
-465230
-465437
-465669
-465896
-466127
-466221
-466490
-466686
-466862
-466996
-467124
-467270
-467510
-467696
-467865
-467974
-468106
-468207
-468389
-468532
-468642
-468652
-468719
-468866
-469054
-468994
-469054
-469162
-469274
-469346
-469348
-469336
-469369
-469382
-469396
-469366
-469343
-469323
-469380
-469300
-469266
-469243
-469160
-469156
-469089
-468984
-468932
-468853
-468873
-468764
-468629
-468536
-468425
-468448
-468305
-468134
-468069
-468067
-467873
-467961
-467799
-467561
-467632
-467593
-467525
-467415
-467298
-467307
-467244
-467185
-467021
-466986
-467020
-467004
-466962
-466910
-466781
-466836
-466938
-466813
-466786
-466808
-466822
-466879
-466842
-466747
-466776
-466759
-466873
-466925
-466853
-466900
-466980
-467081
-467113
-467058
-467110
-467208
-467333
-467379
-467331
-467371
-467612
-467675
-467754
-467688
-467694
-467846
-467994
-468104
-468141
-468230
-468367
-468474
-468526
-468626
-468710
-468864
-469056
-469071
-469137
-469158
-469343
-469514
-469604
-469721
-469761
-469882
-470099
-470195
-470287
-470327
-470580
-470754
-470921
-470996
-471003
-471178
-471351
-471556
-471549
-471626
-471835
-472000
-472133
-472204
-472256
-472465
-472638
-472730
-472782
-472853
-473061
-473182
-473367
-473358
-473745
-473697
-473815
-474006
-474011
-474086
-474249
-474380
-474503
-474600
-474753
-474837
-475031
-475096
-475150
-475246
-475422
-475620
-475756
-476084
-475979
-476114
-476208
-476261
-476346
-476490
-476591
-476757
-476871
-476934
-476993
-477121
-477319
-477358
-477477
-477555
-477665
-477836
-477941
-477959
-478127
-478251
-478372
-478477
-478556
-478633
-478821
-478925
-479039
-479021
-479121
-479240
-479441
-479555
-479589
-480029
-479884
-479954
-480025
-480079
-480180
-480328
-480458
-480591
-480536
-480721
-480761
-480940
-481100
-481085
-481208
-481265
-481386
-481445
-481449
-481528
-481744
-481852
-481954
-481930
-482016
-482095
-482265
-482417
-482466
-482499
-482564
-482749
-482858
-482828
-482830
-482943
-483102
-483270
-483214
-483337
-483322
-483484
-483616
-483621
-483729
-483799
-483954
-483985
-483962
-483981
-484122
-484254
-484351
-484405
-484473
-484542
-484624
-484803
-484771
-484789
-484776
-484999
-485071
-485115
-485209
-485376
-485378
-485501
-485494
-485493
-485636
-485659
-485731
-485753
-485786
-486015
-486065
-486113
-486179
-486225
-486346
-486441
-486520
-486573
-487050
-486916
-486941
-486972
-486931
-486967
-487102
-487187
-487174
-487064
-487063
-487060
-486927
-486737
-486546
-486322
-486114
-485818
-485381
-485003
-484683
-484267
-483816
-483137
-482635
-482098
-481540
-480949
-480220
-479545
-479033
-478406
-477669
-476959
-476233
-475576
-474906
-474120
-473345
-472535
-471918
-471250
-470561
-469790
-469050
-468358
-467717
-466987
-466347
-465692
-465080
-464565
-464004
-463401
-462900
-462437
-462004
-461646
-461127
-460763
-460375
-460084
-459896
-459564
-459233
-459041
-458902
-458769
-458541
-458396
-458283
-458384
-458223
-458203
-458169
-458184
-458233
-458210
-458296
-458282
-458491
-458676
-458723
-458739
-458885
-459132
-459279
-459420
-459568
-459624
-459940
-460168
-460454
-460547
-460734
-460933
-461243
-461460
-461649
-461782
-462125
-462410
-462630
-462810
-462981
-463272
-463566
-463710
-463949
-464208
-464418
-464673
-464984
-465237
-465417
-465687
-465981
-466242
-466384
-466631
-466861
-467206
-467407
-467584
-467871
-468188
-468416
-468600
-468855
-469089
-469318
-469568
-469809
-469971
-470205
-470443
-470794
-471045
-471205
-471372
-471720
-472001
-472159
-472389
-472594
-472840
-473064
-473254
-473364
-473535
-473819
-474053
-474223
-474363
-474491
-474749
-474919
-475037
-475159
-475236
-475429
-475575
-475673
-475773
-475795
-475950
-476136
-476471
-476313
-476294
-476387
-476521
-476548
-476470
-476474
-476641
-476697
-476614
-476531
-476519
-476564
-476613
-476589
-476411
-476429
-476356
-476357
-476217
-476132
-476088
-476033
-476039
-475935
-475843
-475714
-475629
-475580
-475453
-475293
-475266
-475225
-475193
-475088
-474977
-474850
-474812
-474720
-474664
-474491
-474437
-474448
-474409
-474401
-474221
-474521
-474279
-474238
-474162
-474024
-473988
-473982
-474044
-474075
-473958
-473951
-473990
-473984
-474002
-473966
-474004
-474045
-474062
-474112
-474139
-474174
-474137
-474271
-474259
-474260
-474346
-474389
-474557
-474567
-474641
-474703
-474860
-474841
-474979
-474930
-475039
-475181
-475313
-475332
-475339
-475457
-475634
-475771
-475864
-475879
-475942
-476077
-476245
-476362
-476376
-476518
-476594
-476763
-476805
-476886
-477063
-477206
-477333
-477427
-477453
-477521
-477700
-477888
-477951
-478070
-478248
-478345
-478466
-478613
-478694
-478696
-478968
-479115
-479184
-479239
-479360
-479533
-479727
-479843
-479891
-479980
-480190
-480330
-480328
-480440
-480511
-480707
-480830
-480984
-481015
-481139
-481287
-481504
-481618
-481681
-481781
-481768
-482051
-482170
-482248
-482328
-482507
-482613
-482717
-482807
-482855
-483074
-483222
-483333
-483350
-483534
-483634
-483782
-483834
-483796
-484003
-484145
-484346
-484417
-484393
-484547
-484736
-484798
-484971
-484972
-485079
-485233
-485355
-485423
-485497
-485534
-485736
-485874
-485941
-485985
-486102
-486242
-486319
-486385
-486490
-486573
-486654
-486856
-486779
-486927
-486948
-487176
-487290
-487399
-487428
-487526
-487705
-487807
-487831
-487923
-487897
-488109
-488250
-488260
-488336
-488409
-488514
-488624
-488723
-488770
-489113
-489512
-489642
-489662
-489689
-489820
-489943
-489981
-490058
-490118
-490196
-490304
-490480
-490513
-490595
-490653
-490856
-490894
-490882
-490899
-491016
-491094
-491195
-491111
-491021
-491065
-491076
-490993
-490873
-490723
-490542
-490420
-490069
-489729
-489403
-489021
-488593
-488159
-487712
-487190
-486664
-486231
-485634
-485038
-484368
-483835
-483330
-482694
-481959
-481327
-480691
-480119
-479394
-478630
-477978
-477398
-476812
-476133
-475446
-474821
-474164
-473618
-473007
-472424
-471817
-471301
-470881
-470284
-469843
-469361
-468963
-468903
-468343
-467841
-467525
-467315
-467045
-466737
-466489
-466267
-466157
-466053
-465843
-465735
-465673
-465555
-465552
-465581
-465448
-465530
-465559
-465674
-465631
-465695
-465794
-465905
-466051
-466134
-466266
-466378
-466439
-466732
-466949
-467037
-467232
-467417
-467680
-467787
-467981
-468121
-468465
-468708
-468913
-469009
-469280
-469553
-469835
-470045
-470269
-470491
-470693
-470986
-471210
-471407
-471924
-471926
-472179
-472291
-472478
-472729
-472951
-473316
-473473
-473719
-473895
-474224
-474442
-474588
-474863
-475057
-475271
-475551
-475796
-476012
-476251
-476492
-476835
-477009
-477240
-477422
-477645
-477867
-478183
-478290
-478477
-478797
-479127
-479297
-479467
-479559
-479863
-480030
-480237
-480452
-480550
-480780
-481027
-481245
-481339
-481446
-481635
-481813
-481904
-482033
-482105
-482345
-482472
-482590
-482605
-482744
-482808
-483013
-483015
-483115
-483085
-483217
-483355
-483324
-483335
-483346
-483403
-483440
-483424
-483422
-483352
-483411
-483406
-483285
-483177
-483159
-483217
-483583
-483176
-482998
-482958
-482843
-482923
-482836
-482651
-482517
-482432
-482450
-482294
-482176
-482108
-482053
-482097
-481941
-481864
-481784
-481687
-481739
-481666
-481537
-481442
-481410
-481391
-481351
-481307
-481159
-481208
-481252
-481230
-481084
-481054
-481145
-481182
-481142
-481039
-481049
-481114
-481164
-481124
-481104
-481086
-481189
-481251
-481347
-481253
-481293
-481412
-481526
-481530
-481547
-481551
-481740
-481798
-481892
-481819
-481884
-481998
-482093
-482157
-482154
-482166
-482395
-482522
-482608
-482677
-482766
-482902
-483023
-483151
-483138
-483603
-483443
-483525
-483634
-483770
-483867
-484008
-484146
-484136
-484230
-484460
-484586
-484663
-484753
-484843
-484970
-485107
-485271
-485361
-485424
-485540
-485722
-485806
-485856
-485971
-486085
-486298
-486363
-486465
-486564
-486663
-486849
-486955
-486994
-487103
-487262
-487458
-487554
-487557
-487677
-487809
-487984
-488035
-488142
-488230
-488245
-488480
-488694
-488716
-488780
-488927
-489099
-489192
-489260
-489360
-489468
-489689
-489793
-489656
-489908
-490059
-490296
-490323
-490399
-490478
-490624
-490805
-490882
-490940
-491069
-491159
-491315
-491401
-491466
-491543
-491739
-491900
-491920
-492254
-492150
-492566
-492454
-492748
-492685
-492703
-492726
-492901
-492943
-492975
-493168
-493331
-493435
-493553
-493606
-493704
-493798
-493977
-494037
-494084
-494256
-494410
-494522
-494598
-494630
-494718
-494836
-494977
-495090
-495163
-495165
-495257
-495463
-495485
-495377
-495366
-495486
-495504
-495434
-495247
-495034
-494892
-494759
-494391
-494059
-493723
-493380
-492878
-492451
-491964
-491463
-491017
-490534
-489945
-489370
-488770
-488165
-487668
-487029
-486393
-485639
-485078
-484520
-483832
-483109
-482388
-481875
-481219
-480475
-479834
-479244
-478714
-478193
-477608
-476908
-476373
-475765
-475418
-474874
-474415
-473951
-473657
-473283
-472962
-472495
-472250
-472086
-471793
-471587
-471252
-471055
-470940
-470830
-470758
-470570
-470460
-470454
-470468
-470427
-470355
-470313
-470437
-470512
-470560
-470629
-470627
-470798
-470979
-471059
-471158
-471369
-471545
-471655
-471842
-471904
-472057
-472265
-472523
-472718
-472818
-473013
-473267
-473523
-473736
-473830
-474021
-474204
-474534
-474732
-474942
-475176
-475412
-475707
-475915
-476096
-476288
-476512
-476772
-476997
-477007
-477205
-477950
-477958
-477991
-478245
-478444
-478729
-478906
-479223
-479310
-479549
-479723
-480044
-480222
-480422
-480644
-480863
-481122
-481409
-481517
-481799
-482022
-482235
-482469
-482603
-482831
-483087
-483326
-483494
-483626
-483877
-484122
-484456
-484594
-484708
-484820
-485031
-485267
-485432
-485602
-485772
-485987
-486083
-486188
-486310
-486459
-486664
-486821
-486847
-486942
-487038
-487145
-487297
-487383
-487459
-487458
-487584
-487581
-487736
-487786
-487794
-487817
-487966
-487962
-487876
-487831
-487910
-488007
-487945
-487871
-487924
-487875
-487868
-487885
-487811
-487674
-487666
-487620
-487558
-487444
-487458
-487370
-487256
-487225
-487117
-487057
-487125
-486985
-486879
-486872
-486839
-486874
-486776
-486562
-486586
-486609
-486627
-486537
-486515
-486423
-486421
-486501
-486405
-486376
-486319
-486354
-486438
-486408
-486316
-486303
-486404
-486512
-486490
-486475
-486478
-486558
-486682
-486629
-486582
-486660
-486748
-486833
-486915
-486891
-486959
-487016
-487140
-487200
-487209
-487236
-487294
-487500
-487584
-487664
-487743
-487863
-487927
-487996
-488022
-488139
-488253
-488415
-488545
-488590
-488630
-488813
-488975
-489047
-489074
-489162
-489353
-489448
-489552
-489627
-489745
-489908
-490012
-490230
-490213
-490328
-490471
-490604
-490744
-490806
-490867
-491070
-491226
-491327
-491348
-491457
-491596
-491754
-491857
-491924
-492050
-492156
-492304
-492435
-492474
-492659
-492859
-493001
-493058
-493092
-493188
-493423
-493538
-493613
-493704
-493858
-494010
-494118
-494199
-494303
-494328
-494500
-494663
-494787
-494798
-494893
-495092
-494907
-495184
-495354
-495413
-495583
-495770
-495905
-495962
-496032
-496149
-496662
-496495
-496477
-496543
-496663
-496799
-496941
-496942
-497000
-497207
-497440
-497467
-497560
-497627
-497769
-497887
-498013
-498039
-498137
-498306
-498422
-498510
-498523
-498593
-498732
-498918
-498995
-499137
-499192
-499277
-499459
-499722
-499629
-499598
-499664
-499769
-499756
-499792
-499745
-499796
-499734
-499563
-499337
-499174
-499028
-498794
-498515
-498114
-497735
-497374
-497005
-496512
-495992
-495831
-495103
-494361
-493825
-493188
-492681
-492099
-491471
-490786
-490066
-489490
-488903
-488283
-487589
-486838
-486174
-485635
-485011
-484292
-483569
-482864
-482341
-481849
-481192
-480552
-479954
-479512
-479082
-478517
-478009
-477786
-477289
-476851
-476448
-476071
-475773
-475477
-475341
-475014
-474729
-474518
-474413
-474313
-474176
-474017
-473814
-473850
-473881
-473752
-473683
-473709
-473800
-473789
-473839
-473809
-473883
-473982
-474104
-474180
-474212
-474413
-474540
-474779
-474889
-474917
-475100
-475286
-475559
-475628
-475734
-475975
-476178
-476350
-476485
-476678
-476885
-477191
-477375
-477571
-477666
-477892
-478147
-478443
-478591
-478725
-478860
-479205
-479461
-479627
-479726
-479970
-480256
-480446
-480629
-480762
-480920
-481271
-481528
-481674
-481732
-481950
-482257
-482523
-482682
-482633
-482920
-483215
-483524
-483767
-483887
-484137
-484379
-484588
-484789
-484995
-485126
-485373
-485591
-485750
-485926
-486132
-486362
-486677
-486770
-486881
-487095
-487343
-487529
-487607
-487733
-487834
-488010
-488247
-488373
-488457
-488603
-488762
-488951
-489031
-489065
-489122
-489294
-489431
-489476
-489489
-489621
-489737
-489794
-489823
-489821
-489837
-489923
-490030
-489998
-489989
-489946
-490031
-490057
-489845
-489925
-489866
-489956
-490017
-489847
-489762
-489676
-489731
-489737
-489645
-489463
-489408
-489415
-489427
-489433
-489223
-489117
-489165
-489406
-489067
-488957
-488912
-488872
-488765
-488724
-488666
-488656
-488660
-488621
-488563
-488478
-488411
-488499
-488476
-488379
-488354
-488343
-488376
-488442
-488427
-488267
-488273
-488283
-488335
-488331
-488381
-488370
-488495
-488471
-488466
-488512
-488525
-488559
-488661
-488675
-488745
-488746
-488795
-488952
-489002
-489046
-488990
-489141
-489204
-489287
-489325
-489420
-489503
-489585
-489685
-489673
-489771
-489838
-490001
-490084
-490127
-490176
-490704
-490564
-490583
-490645
-490708
-490806
-490951
-491043
-491077
-491151
-491403
-491495
-491541
-491570
-491647
-491891
-491866
-492020
-492061
-492226
-492315
-492513
-492629
-492645
-492887
-492927
-493163
-493152
-493206
-493656
-493552
-493665
-493647
-493743
-493916
-494083
-494242
-494286
-494310
-494456
-494542
-494730
-494789
-494898
-495000
-495055
-495167
-495334
-495445
-495520
-495620
-495808
-495860
-495864
-496024
-496223
-496316
-496378
-496389
-496494
-496653
-496738
-496855
-496879
-497042
-497204
-497280
-497388
-497392
-497480
-497913
-497851
-497908
-497850
-498044
-498161
-498355
-498447
-498453
-498500
-498717
-498648
-498871
-498933
-498902
-499134
-499158
-499351
-499358
-499400
-499473
-499541
-499455
-499396
-499394
-499413
-499326
-499163
-498871
-498657
-498371
-498076
-497761
-497310
-496919
-496509
-496113
-495682
-495051
-494488
-494034
-493460
-492843
-492228
-491562
-491007
-490507
-489712
-488962
-488348
-487719
-487119
-486377
-485569
-484938
-484323
-483700
-483070
-482319
-481650
-481015
-480518
-479905
-479240
-478692
-478151
-477715
-477211
-476682
-476244
-475893
-475560
-475100
-474735
-474463
-474166
-473917
-473680
-473404
-473194
-473114
-472950
-472794
-472640
-472535
-472549
-472556
-472479
-472285
-472366
-472503
-472402
-472463
-472558
-472657
-472763
-472792
-472882
-472959
-473172
-473293
-473433
-473504
-473639
-473800
-474033
-474149
-474282
-474393
-474640
-474824
-474909
-475120
-475278
-475566
-475734
-475914
-475960
-476137
-476400
-476585
-476789
-476850
-477050
-477290
-477542
-477720
-477865
-477957
-478245
-478462
-478595
-478737
-478895
-479144
-479440
-479578
-479558
-479834
-480067
-480249
-480452
-480527
-480594
-480923
-481222
-481397
-481508
-481731
-481941
-482160
-482381
-482482
-482715
-482934
-483190
-483299
-483348
-483496
-483693
-483901
-484054
-484095
-484241
-484461
-484656
-484784
-484804
-484893
-485031
-485203
-485260
-485401
-485504
-485601
-485713
-485834
-485878
-485905
-485908
-486000
-486046
-486104
-486039
-486215
-486258
-486137
-486171
-486141
-486151
-486187
-486171
-486079
-485970
-486070
-486076
-486034
-485906
-485850
-485833
-485807
-485670
-485630
-485498
-485491
-485480
-485386
-485250
-485160
-485101
-485081
-484973
-484834
-484792
-484754
-484726
-484620
-484458
-484445
-484346
-484298
-484200
-484118
-484098
-484110
-484049
-484226
-484011
-483848
-483835
-483883
-483843
-483745
-483700
-483701
-483763
-483741
-483673
-483695
-483653
-483785
-483729
-483588
-483709
-483738
-483748
-483809
-483734
-483800
-483793
-483880
-483923
-483873
-483927
-484078
-484156
-484024
-484128
-484115
-484308
-484394
-484425
-484427
-484460
-484511
-484634
-484623
-484725
-484806
-484840
-484967
-485014
-485092
-485106
-485246
-485372
-485353
-485371
-485523
-485623
-485690
-485782
-485915
-486031
-486107
-486214
-486215
-486298
-486369
-486492
-486661
-486709
-486760
-486854
-487059
-487056
-487166
-487186
-487336
-487447
-487579
-487586
-487671
-487717
-487869
-488081
-488077
-488127
-488193
-488317
-488390
-488559
-488497
-488622
-488807
-488880
-488972
-489012
-489076
-489219
-489365
-489325
-489403
-489533
-489619
-489871
-489763
-490250
-490087
-490080
-490199
-490269
-490309
-490337
-490549
-490551
-490644
-490697
-490766
-490896
-491073
-491131
-491152
-491281
-491430
-491495
-491615
-491602
-491665
-491777
-491985
-492001
-491981
-492045
-492242
-492336
-492345
-492308
-492413
-492478
-492547
-492431
-492370
-492334
-492304
-492186
-492099
-491735
-491517
-491352
-491071
-490632
-490291
-489889
-489514
-489091
-488527
-487927
-487405
-486812
-486333
-485788
-485095
-484477
-483876
-483249
-482781
-481965
-481202
-480419
-479812
-479147
-478451
-477704
-477074
-476494
-475721
-475012
-474420
-473828
-473276
-472540
-471891
-471363
-470903
-470356
-469825
-469301
-468829
-468482
-468110
-467694
-467304
-466995
-466680
-466526
-466284
-465897
-465723
-465573
-465485
-465289
-465148
-464989
-465031
-465038
-464826
-464831
-464810
-464889
-464945
-464950
-464877
-464968
-465137
-465257
-465318
-465373
-465476
-465602
-465690
-465929
-465950
-466090
-466268
-466512
-466608
-466754
-466889
-467133
-467387
-467468
-467563
-467745
-467979
-468170
-468346
-468530
-468682
-468866
-469076
-469199
-469343
-469510
-469719
-470023
-470150
-470270
-470399
-470653
-470885
-470996
-471131
-471349
-471545
-471831
-471996
-472027
-472298
-472515
-472797
-472897
-473047
-473289
-473555
-473734
-473801
-474026
-474224
-474607
-474709
-474851
-474906
-475026
-475207
-475487
-475743
-475850
-476020
-476115
-476374
-476544
-476574
-476724
-476875
-477065
-477002
-477199
-477272
-477332
-477440
-477549
-477597
-477796
-477904
-478033
-477965
-478015
-478071
-478100
-478291
-478288
-478188
-478170
-478173
-478250
-478200
-478161
-478122
-478160
-478178
-478104
-478009
-477879
-477923
-477842
-477708
-477653
-477533
-477603
-477444
-477344
-477118
-477058
-477079
-477020
-476946
-476831
-476680
-476641
-476468
-476367
-476275
-476284
-476180
-476084
-475966
-475853
-475869
-475854
-475733
-475698
-475621
-475578
-475637
-475540
-475467
-475481
-475483
-475465
-475521
-475290
-475392
-475508
-475531
-475420
-475412
-475448
-475522
-475559
-475508
-475598
-475688
-475784
-475790
-475734
-475759
-475851
-476028
-475978
-475989
-476086
-476216
-476300
-476294
-476307
-476357
-476515
-476641
-476664
-476667
-476737
-476885
-476968
-477042
-477114
-477210
-477399
-477511
-477537
-477572
-477698
-477863
-477997
-478010
-478083
-478208
-478237
-478374
-478608
-478835
-478741
-478901
-478995
-478967
-479056
-479213
-479394
-479322
-479496
-479578
-479717
-479876
-480003
-480073
-480029
-480200
-480353
-480518
-480617
-480651
-480756
-480859
-481003
-481066
-481147
-481249
-481328
-481422
-481518
-481521
-481769
-481910
-481958
-482053
-482102
-482152
-482319
-482568
-482513
-482559
-482686
-482840
-482968
-483013
-483006
-483189
-483199
-483392
-483469
-483548
-483615
-483771
-483921
-483924
-484067
-484151
-484236
-484441
-484479
-484469
-484593
-484694
-484799
-484935
-485006
-485106
-485112
-485328
-485362
-485467
-485530
-485660
-485725
-485686
-485832
-485879
-485996
-486035
-485975
-485935
-485970
-485978
-485875
-485559
-485398
-485175
-485033
-484842
-484422
-484008
-483698
-483254
-482856
-482317
-481812
-481283
-481119
-480351
-479634
-478992
-478356
-477698
-477153
-476464
-475694
-474954
-474341
-473620
-472909
-472164
-471429
-470755
-470142
-469313
-468567
-467929
-467329
-466704
-465989
-465275
-464787
-464231
-463731
-463184
-462674
-461952
-461721
-461375
-461049
-460657
-460314
-460086
-459795
-459443
-459470
-459098
-458932
-458773
-458657
-458441
-458325
-458322
-458268
-458217
-458165
-458262
-458309
-458320
-458334
-458429
-458453
-458597
-458652
-458696
-458866
-459100
-459193
-459295
-459451
-459612
-459844
-460009
-460156
-460200
-460390
-460648
-460961
-461058
-461192
-461415
-461606
-461814
-461989
-462151
-462365
-462526
-462754
-462975
-463072
-463264
-463482
-463770
-463882
-464083
-464231
-464387
-464634
-464811
-464930
-465098
-465294
-465521
-465748
-465858
-466025
-466290
-466585
-466582
-466823
-467031
-467271
-467553
-467709
-467826
-468083
-468304
-468530
-468622
-468831
-469057
-469261
-469504
-469687
-469801
-469943
-470150
-470471
-470542
-470623
-470788
-470974
-471137
-471219
-471336
-471500
-471619
-471820
-471854
-471931
-472041
-472207
-472356
-472342
-472469
-472495
-472612
-472755
-472829
-472725
-472735
-472838
-472946
-472929
-472801
-472849
-472933
-472909
-472912
-472885
-472838
-472874
-472858
-472787
-472702
-472602
-472643
-472602
-472437
-472458
-472369
-472314
-472331
-472232
-472076
-471925
-472000
-472074
-471942
-471780
-471671
-471709
-471697
-471661
-471497
-471462
-471461
-471476
-471380
-471355
-471258
-471242
-471336
-471266
-471198
-471173
-471209
-471228
-471161
-471098
-471122
-471241
-471235
-471201
-471130
-471243
-471260
-471362
-471323
-471294
-471355
-471475
-471508
-471563
-471501
-471564
-471745
-471832
-471805
-471860
-471876
-472013
-472055
-472136
-472132
-472244
-472405
-472486
-472565
-472723
-472861
-473003
-473001
-473081
-473141
-473262
-473455
-473532
-473570
-473720
-473868
-474027
-474060
-474184
-474308
-474445
-474604
-474656
-474922
-474981
-474988
-475233
-475307
-475359
-475484
-475692
-475874
-475937
-476016
-476224
-476263
-476497
-476586
-476632
-476681
-476959
-477094
-477281
-477286
-477419
-477566
-477732
-477870
-477943
-478037
-478236
-478323
-478439
-478506
-478642
-478805
-478967
-479055
-479124
-479320
-479460
-479607
-479844
-479817
-479873
-480033
-480168
-480285
-480292
-480404
-480608
-480738
-480816
-480821
-480944
-481170
-481321
-481343
-481447
-481500
-481652
-481833
-481896
-481950
-482001
-482208
-482311
-482453
-482524
-482583
-482836
-482893
-483011
-482971
-482998
-483230
-483334
-483400
-483534
-483632
-483719
-483909
-483958
-484094
-484298
-484478
-484504
-484530
-484697
-484798
-484866
-485033
-485071
-485184
-485253
-485388
-485421
-485403
-485462
-485590
-485682
-485608
-485509
-485407
-485369
-485276
-485043
-484863
-484646
-484346
-484134
-483741
-483301
-482868
-482408
-482006
-481462
-481328
-480409
-479808
-479187
-478494
-477844
-477178
-476461
-475813
-475143
-474365
-473579
-472912
-472141
-471366
-468405
-467669
-466896
-466238
-465639
-464953
-464187
-463555
-463033
-462463
-462045
-461462
-460905
-460506
-460083
-459719
-459308
-458851
-458573
-458379
-458125
-457774
-457496
-457341
-457279
-457105
-456922
-456758
-456790
-456776
-456713
-456712
-456711
-456697
-456816
-456872
-456820
-456941
-456987
-457088
-457259
-457317
-457353
-457519
-457727
-457936
-457996
-458136
-458336
-458498
-458675
-458881
-458993
-459205
-459469
-459643
-459781
-459913
-460114
-460398
-460608
-460678
-460890
-461163
-461311
-461900
-461816
-461917
-462053
-462238
-462474
-462738
-462862
-462931
-463219
-463476
-463882
-463830
-463947
-464134
-464370
-464516
-464640
-464913
-465134
-465341
-465445
-465654
-465760
-466104
-466247
-466485
-466638
-466851
-467071
-467294
-467481
-467653
-467924
-468106
-468351
-468496
-468851
-468915
-469059
-469221
-469336
-469498
-469623
-469852
-470035
-470175
-470274
-470457
-470592
-470744
-470866
-470981
-471098
-471232
-471364
-471439
-471494
-471493
-471648
-471805
-471788
-471799
-471846
-471928
-471978
-471988
-472009
-472065
-472045
-472104
-472036
-471960
-471909
-471918
-471943
-471936
-471857
-471907
-471932
-471820
-471705
-471592
-471494
-471507
-471565
-471428
-471261
-471209
-471201
-471198
-471042
-470887
-470947
-470820
-470797
-470658
-470601
-470554
-470522
-470530
-470441
-470352
-470276
-470321
-470331
-470240
-470134
-470119
-470191
-470203
-470112
-470066
-470058
-470063
-470152
-470082
-470017
-470006
-470049
-470115
-470057
-470088
-470165
-470249
-470180
-470187
-470185
-470218
-470356
-470332
-470394
-470427
-470557
-470654
-470718
-470694
-470784
-470870
-470980
-471083
-471076
-471189
-471324
-471359
-471446
-471531
-471615
-471727
-471869
-471951
-472071
-472242
-472352
-472415
-472638
-472672
-472791
-472913
-473051
-473115
-473221
-473407
-473540
-473769
-473784
-473866
-473979
-474143
-474313
-474395
-474425
-474546
-474766
-474895
-474932
-475040
-475096
-475351
-475523
-475552
-475609
-475543
-475785
-475937
-475998
-476159
-476245
-476394
-476559
-476506
-476658
-476694
-476857
-477017
-477139
-477143
-477157
-477410
-477488
-477530
-477645
-477705
-477874
-477950
-478045
-478038
-478234
-478316
-478457
-478507
-478475
-478617
-478784
-478862
-479015
-478969
-479082
-479238
-479345
-479406
-479348
-479460
-479704
-479721
-479804
-479775
-479753
-479972
-480133
-480166
-480177
-480288
-480309
-480453
-480483
-481011
-480709
-480808
-480827
-480815
-480874
-480903
-481060
-481193
-481119
-481118
-481250
-481312
-481514
-481526
-481457
-481508
-481674
-481725
-481716
-481684
-481822
-481860
-481989
-481969
-481935
-482043
-482173
-482206
-482204
-482246
-482227
-482318
-482365
-482388
-482392
-482433
-482562
-482595
-482562
-482581
-482580
-482659
-482733
-482673
-482656
-482784
-482854
-482899
-482806
-482813
-482852
-483012
-483017
-483012
-482986
-483063
-483086
-483201
-483222
-483180
-483248
-483308
-483382
-483405
-483414
-483441
-483403
-483513
-483552
-483494
-483510
-483615
-483619
-483743
-483645
-483774
-483812
-483873
-483842
-483862
-483871
-483991
-483978
-483984
-483956
-483936
-483996
-483904
-483726
-483692
-483580
-483500
-483220
-482976
-482689
-482472
-482161
-481658
-481186
-480730
-480310
-479904
-479289
-478709
-478068
-477594
-476950
-476257
-475521
-474851
-474150
-473454
-472607
-471884
-471087
-470359
-469656
-468814
-467951
-467166
-466425
-465631
-464874
-464113
-463226
-462641
-461877
-461239
-460457
-459835
-459267
-458689
-458104
-457462
-456953
-456440
-456084
-455581
-455092
-454774
-454478
-454136
-453838
-453507
-453212
-453070
-452892
-452705
-452553
-452397
-452355
-452269
-452159
-452115
-452110
-452194
-452299
-452207
-452234
-452473
-452527
-452608
-452603
-452712
-452877
-453106
-453198
-453296
-453433
-453633
-453836
-454059
-454099
-454316
-454572
-455119
-454957
-455070
-455285
-455569
-455791
-455846
-456000
-456077
-456343
-456644
-456899
-457048
-457221
-457425
-457682
-457826
-457941
-458152
-458399
-458641
-458808
-458917
-459112
-459191
-459525
-459625
-459760
-459971
-460227
-460479
-460607
-460673
-460933
-461180
-461448
-461485
-461579
-461838
-462022
-462293
-462482
-462564
-462695
-462951
-463142
-463289
-463403
-463545
-464019
-464622
-464850
-464881
-465022
-465209
-465294
-465302
-465343
-465386
-465570
-465718
-465756
-465728
-465707
-465843
-465838
-465869
-465817
-465810
-465871
-465914
-465885
-465851
-465854
-465832
-465833
-465700
-465602
-465556
-465551
-465519
-465447
-465284
-465290
-465176
-465115
-465019
-464930
-464795
-464726
-464719
-464563
-464485
-464326
-464323
-464243
-464087
-463969
-463866
-463891
-463910
-463785
-463660
-463598
-463573
-463508
-463327
-463246
-463247
-463336
-463246
-463208
-463040
-463031
-463079
-463118
-463040
-462932
-462948
-463025
-462985
-462927
-462817
-462919
-462973
-463033
-463026
-463036
-463097
-463153
-463171
-463217
-463149
-463174
-463346
-463431
-463468
-463351
-463511
-463558
-463684
-463727
-463686
-463799
-463872
-464010
-463990
-464084
-464177
-464302
-464304
-464368
-464429
-464531
-464555
-464727
-464791
-464841
-465032
-465135
-465263
-465356
-465305
-465438
-465604
-465724
-465722
-465761
-465878
-466065
-466153
-466242
-466268
-466376
-466585
-466723
-466802
-466821
-466969
-467098
-467237
-467321
-467349
-467423
-467629
-467804
-467842
-467904
-467997
-468175
-468359
-468385
-468573
-468684
-468837
-468840
-468874
-468992
-469147
-469230
-469412
-469450
-469698
-469801
-469889
-470006
-470025
-470042
-470239
-470399
-470434
-470503
-470558
-470743
-470795
-470935
-470990
-471076
-471439
-471445
-471434
-471431
-471522
-471633
-471786
-471888
-472019
-472095
-472211
-472265
-472300
-472304
-472487
-472591
-472768
-472764
-472771
-472786
-472993
-473106
-473157
-473171
-473219
-473316
-473538
-473539
-473573
-473687
-473798
-473956
-473966
-474013
-474053
-474191
-474316
-474331
-474347
-474407
-474522
-474657
-474678
-474701
-474800
-474905
-474988
-474956
-474937
-475146
-475185
-475252
-475277
-475204
-475364
-475485
-475536
-475618
-475659
-475685
-475699
-475919
-475891
-475968
-475993
-476066
-476235
-476192
-476236
-476290
-476453
-476501
-476569
-476598
-476686
-476750
-476859
-476876
-476826
-476983
-477058
-477229
-477225
-477161
-477327
-477286
-477413
-477416
-477433
-477534
-477623
-477661
-477730
-477603
-477699
-477694
-477767
-477673
-477507
-477495
-477466
-477415
-477186
-476990
-476762
-476434
-476236
-475869
-475450
-475071
-474783
-474424
-473965
-473345
-472876
-472333
-471812
-471155
-470506
-469971
-469377
-468789
-468073
-467332
-466707
-466047
-465472
-464770
-464043
-463328
-462777
-462084
-461374
-460759
-460032
-459495
-458908
-458339
-457714
-457129
-456610
-456153
-455611
-455088
-454684
-454341
-454034
-453629
-453202
-452949
-452644
-452433
-452196
-451892
-451722
-451603
-451565
-451391
-451209
-451168
-451151
-451127
-451021
-451022
-451035
-451061
-451183
-451214
-451260
-451371
-451484
-451645
-451675
-451837
-451951
-452175
-452336
-452447
-452582
-452771
-453009
-453185
-453321
-453522
-453691
-453959
-454172
-454289
-454471
-454756
-454989
-455225
-455358
-455484
-455824
-456057
-456278
-456407
-456573
-456821
-457010
-457286
-457401
-457536
-457754
-457932
-458230
-458379
-458506
-458789
-458978
-459207
-459381
-459384
-459727
-459944
-460230
-460349
-460442
-460717
-461015
-461208
-461301
-461481
-461655
-461895
-462182
-462315
-462475
-462722
-463001
-463107
-463294
-463469
-463694
-463896
-464044
-464177
-464306
-464417
-464619
-464844
-464928
-465063
-465186
-465394
-465436
-465553
-465592
-465752
-465880
-466019
-466016
-465986
-466109
-466174
-466269
-466246
-466241
-466290
-466341
-466377
-466381
-466281
-466323
-466361
-466389
-466256
-466181
-466154
-466147
-466111
-466029
-465905
-465864
-465785
-465743
-465582
-465427
-465416
-465336
-465301
-465211
-465038
-464932
-464927
-464942
-464766
-464736
-464653
-464603
-464541
-464376
-464211
-464256
-464162
-464221
-464039
-463922
-463854
-463947
-463932
-463822
-463691
-463797
-463772
-463830
-463750
-463695
-463728
-463705
-463736
-463705
-463674
-463671
-463827
-463867
-463858
-463905
-463961
-464038
-464123
-464134
-464119
-464253
-464310
-464443
-464496
-464548
-464570
-464745
-464930
-464839
-464940
-464955
-465158
-465284
-465341
-465332
-465491
-465598
-465766
-465809
-465857
-465967
-466116
-466295
-466398
-466403
-466552
-466705
-466861
-466838
-466983
-467095
-467241
-467367
-467464
-467529
-467615
-467831
-467954
-468056
-468185
-468290
-468412
-468566
-468625
-468719
-468847
-469015
-469122
-469190
-469228
-469379
-469537
-469702
-469813
-469794
-469908
-470110
-470269
-470256
-470319
-470486
-470589
-470771
-470861
-470885
-471034
-471250
-471294
-471329
-471334
-471498
-471655
-471830
-471926
-471935
-471996
-472189
-472282
-472325
-472395
-472462
-472697
-472790
-472963
-473018
-473042
-473194
-473332
-473436
-473434
-473553
-473685
-473806
-473896
-473894
-473997
-474150
-474361
-474423
-474499
-474539
-474707
-474828
-474912
-474829
-474989
-475074
-475180
-475207
-475272
-475375
-475603
-475657
-475724
-475782
-475864
-476020
-476084
-476175
-476246
-476331
-476439
-476624
-476666
-476718
-476860
-476979
-477129
-477248
-477258
-477377
-477453
-477601
-477725
-477779
-477826
-478094
-478169
-478262
-478303
-478415
-478580
-478757
-478788
-478927
-478997
-479178
-479329
-479368
-479409
-479546
-479579
-479687
-479688
-479733
-479720
-479800
-479734
-479646
-479482
-479298
-479187
-479085
-478800
-478401
-478054
-477737
-477471
-476997
-476521
-476039
-475584
-475047
-474474
-473908
-473282
-472711
-472120
-471431
-470764
-470040
-469393
-468707
-467977
-467231
-466530
-465807
-465140
-464430
-463568
-462981
-462286
-461566
-460918
-460197
-459496
-458958
-458441
-457798
-457199
-456678
-456194
-455714
-455211
-454819
-454375
-454031
-453661
-453387
-452931
-452678
-452539
-452363
-452081
-451860
-451717
-451635
-451629
-451534
-451410
-451278
-451346
-451303
-451258
-451296
-451327
-451381
-451479
-451546
-451528
-451696
-451807
-451972
-452054
-452144
-452298
-452556
-452805
-452987
-453082
-453263
-453489
-453692
-453854
-454036
-454186
-454455
-455030
-455231
-455620
-455875
-455998
-456179
-456698
-456818
-457022
-457208
-457448
-457663
-457926
-458025
-458277
-458527
-458708
-458902
-459072
-459266
-459478
-459664
-459910
-460163
-460280
-460467
-460821
-461025
-461199
-461336
-461540
-462096
-462342
-462803
-463137
-463491
-463664
-464012
-464141
-464338
-464580
-464751
-464930
-465015
-465097
-465271
-465496
-465614
-465846
-466003
-466173
-466235
-466217
-466326
-466499
-466645
-466705
-466747
-466881
-466968
-467111
-467206
-467220
-467332
-467402
-467496
-467544
-467507
-467566
-467649
-467703
-467718
-467703
-467776
-467751
-467831
-467781
-467774
-467788
-467884
-467851
-467800
-467779
-467697
-467847
-467937
-467827
-467702
-467783
-467768
-467820
-467762
-467715
-467717
-467691
-467768
-467802
-467690
-467751
-467714
-467789
-467722
-467696
-467766
-467842
-467878
-467883
-467850
-467878
-467985
-468053
-468056
-468130
-468155
-468161
-468265
-468401
-468360
-468476
-468640
-468724
-468699
-468735
-468847
-469027
-469106
-469226
-469245
-469413
-469567
-469634
-469711
-469819
-469988
-470079
-470274
-470391
-470400
-470532
-470765
-470842
-471057
-471147
-471293
-471485
-471693
-471739
-471829
-471960
-472223
-472427
-472536
-472529
-472768
-473063
-473272
-473397
-473452
-473626
-473846
-473996
-474078
-474142
-474333
-474586
-474826
-474828
-475063
-475132
-475288
-475545
-475593
-475670
-475817
-475966
-476180
-476400
-476467
-476530
-476693
-476890
-476960
-476943
-477102
-477345
-477439
-477638
-477631
-477790
-477943
-478109
-478133
-478165
-478208
-478381
-478540
-478565
-478558
-478777
-478832
-478954
-479030
-478982
-479075
-479243
-479380
-479422
-479300
-479452
-479664
-479759
-479737
-479812
-479768
-480002
-480038
-480048
-480075
-480189
-480251
-480420
-480432
-480524
-480534
-480677
-480806
-480825
-480841
-480876
-480916
-481083
-481097
-481175
-481235
-481393
-481507
-481496
-481540
-481680
-481750
-481855
-481982
-481969
-482061
-482178
-482292
-482336
-482411
-482514
-482567
-482660
-482802
-482777
-482875
-483043
-483394
-483189
-483210
-483207
-483425
-483553
-483590
-483615
-483750
-483859
-483939
-483977
-484015
-484081
-484264
-484241
-484240
-484228
-484277
-484347
-484339
-484227
-484160
-484110
-484003
-483848
-483561
-483368
-482873
-482762
-482445
-482006
-481524
-481092
-480671
-480242
-479622
-478942
-478396
-477944
-477275
-476658
-475979
-475207
-474588
-473980
-473214
-472447
-471755
-471072
-470350
-469581
-469281
-468153
-467450
-466755
-465912
-465163
-464470
-463777
-463163
-462515
-461821
-461236
-460733
-460181
-459591
-459098
-458589
-458189
-457843
-457318
-456895
-456588
-456286
-456014
-455701
-455398
-455199
-455013
-454903
-454722
-454539
-454389
-454354
-454235
-454259
-454135
-454145
-454158
-454172
-454217
-454216
-454334
-454337
-454519
-454662
-454670
-454744
-454810
-454979
-455113
-455235
-455404
-455574
-455729
-455859
-455967
-456230
-456439
-456675
-456760
-456938
-457126
-457402
-457650
-457816
-457891
-458116
-458310
-458636
-458872
-459008
-459192
-459491
-459756
-459845
-460048
-460249
-460459
-460659
-461179
-461121
-461276
-461541
-461723
-461929
-462055
-462280
-462497
-462759
-463308
-463118
-463305
-463492
-463750
-463899
-464025
-464163
-464411
-464616
-464843
-464882
-465104
-465385
-465932
-465790
-465766
-465938
-466219
-466378
-466440
-466501
-466683
-466874
-467046
-467106
-467205
-467294
-467463
-467636
-467701
-467757
-467816
-468001
-468050
-468135
-468045
-468105
-468247
-468314
-468312
-468233
-468306
-468385
-468340
-468351
-468274
-468208
-468250
-468242
-468169
-468133
-468086
-468045
-467963
-467953
-467834
-467776
-467736
-467666
-467559
-467507
-467387
-467425
-467325
-467176
-467004
-466923
-466928
-466851
-466826
-466668
-466634
-466633
-466647
-466488
-466443
-466348
-466401
-466352
-466280
-466110
-466124
-466135
-466173
-466151
-466015
-466429
-466132
-466128
-466120
-466098
-466101
-466195
-466132
-466127
-466085
-466094
-466298
-466336
-466301
-466307
-466366
-466399
-466523
-466512
-466508
-466588
-466621
-466701
-466879
-466967
-467032
-467161
-467171
-467200
-467279
-467446
-467525
-467575
-467635
-467727
-467917
-468082
-468172
-468173
-468295
-468401
-468534
-468616
-468693
-468773
-469035
-469124
-469177
-469341
-469409
-469598
-469738
-469821
-469948
-470084
-470210
-470431
-470524
-470653
-470819
-471003
-471151
-471241
-471297
-471510
-471632
-471815
-472001
-472144
-472353
-472507
-472617
-472808
-472856
-473000
-473180
-473389
-473552
-473571
-473750
-474000
-474126
-474214
-474339
-474432
-474602
-474733
-475517
-475697
-475843
-476003
-476006
-476036
-476221
-476420
-476497
-476577
-476659
-476710
-476907
-476984
-477069
-477124
-477222
-477383
-477528
-477606
-477597
-477694
-477896
-478043
-478105
-478130
-478196
-478372
-478527
-478543
-478599
-478680
-478764
-478899
-478947
-478911
-479057
-479245
-479339
-479326
-479436
-479501
-479537
-479632
-479733
-479673
-479661
-479559
-479667
-479583
-479480
-479253
-479207
-479124
-478850
-478437
-478147
-477962
-477610
-477195
-476714
-476386
-476017
-475454
-474997
-474380
-473835
-473407
-472895
-472278
-471645
-471040
-470435
-469854
-469118
-468446
-467802
-467149
-466610
-465933
-465083
-464569
-463964
-463389
-462762
-462126
-461468
-461002
-460499
-460113
-459435
-458887
-458476
-458026
-457577
-457125
-456803
-456377
-456169
-455757
-455555
-455341
-455208
-454989
-454777
-454483
-454454
-454392
-454255
-454175
-454089
-454085
-454144
-454244
-454254
-454125
-454164
-454257
-454474
-454479
-454591
-454681
-454805
-454971
-455205
-455224
-455452
-455686
-455847
-456015
-456136
-456390
-456641
-456904
-457142
-457289
-457611
-457827
-458055
-458317
-458522
-458783
-459091
-459374
-459595
-459827
-460146
-460521
-460756
-460933
-461141
-461489
-461832
-462093
-462318
-462552
-462848
-463185
-463498
-463736
-463892
-464121
-464505
-464859
-465101
-465345
-465523
-465936
-466209
-466460
-466651
-466864
-467197
-467922
-467882
-467990
-468191
-468541
-469238
-469148
-469355
-469601
-469828
-470089
-470311
-470403
-470684
-470934
-471256
-471371
-471457
-471666
-471898
-472136
-472363
-472424
-472563
-472746
-472939
-473117
-473175
-473330
-473436
-473589
-473531
-473692
-473854
-473912
-474055
-474136
-474161
-474210
-474288
-474424
-474402
-474318
-474355
-474374
-474479
-474577
-474503
-474566
-474537
-474642
-474522
-474444
-474452
-474437
-474449
-474331
-474259
-474220
-474242
-474144
-474134
-474048
-474056
-474002
-473931
-473888
-473730
-473647
-473664
-473649
-473520
-473489
-473444
-473310
-473357
-473394
-473320
-473270
-473321
-473296
-473237
-473155
-473046
-473113
-473076
-473137
-473058
-473060
-473082
-473152
-473102
-472999
-473031
-473080
-473202
-473134
-473092
-473177
-473081
-473169
-473236
-473283
-473357
-473529
-473516
-473488
-473448
-473539
-473693
-473748
-473738
-473752
-473825
-473972
-474040
-474059
-474126
-474259
-474350
-474476
-474474
-474530
-474681
-474735
-474822
-474858
-474975
-475057
-475269
-475279
-475277
-475395
-475499
-475607
-475685
-475747
-475842
-476022
-476164
-476236
-476305
-476341
-476483
-476665
-476755
-476769
-476703
-476907
-477159
-477179
-477230
-477263
-477449
-477637
-477733
-477691
-477736
-477974
-478111
-478112
-478096
-478247
-478394
-478539
-478591
-478649
-478710
-478881
-479029
-479098
-479176
-479205
-479338
-479488
-479527
-479531
-479671
-479811
-479963
-479966
-480059
-480118
-480217
-480337
-480484
-480385
-480516
-480661
-480832
-480933
-480898
-480978
-481124
-481244
-481344
-481493
-481532
-481679
-481725
-481795
-481862
-481941
-482106
-482085
-482178
-482138
-482224
-482320
-482326
-482335
-482225
-482175
-482113
-482025
-481903
-481596
-481377
-481188
-480937
-480561
-480207
-479803
-479429
-479077
-478633
-478147
-477627
-477094
-476604
-476113
-475489
-474956
-474333
-473827
-473158
-472582
-471867
-471326
-470695
-470059
-469344
-468727
-468182
-467618
-466963
-466217
-465645
-465165
-464685
-464053
-463526
-462981
-462553
-462131
-461580
-461106
-460721
-460451
-460001
-459685
-459312
-458958
-458747
-458509
-458257
-458037
-457805
-457680
-457608
-457492
-457315
-457204
-457106
-457128
-457041
-457055
-457012
-457059
-457074
-457153
-457089
-457159
-457262
-457385
-457387
-457509
-457608
-457742
-457972
-458029
-458099
-458242
-458442
-458629
-458720
-458886
-459091
-459323
-459528
-459617
-459762
-459886
-460098
-460403
-460482
-460544
-460845
-461162
-461407
-461543
-461652
-461861
-462069
-462237
-462466
-462567
-462752
-462993
-463215
-463369
-463492
-463662
-463925
-464125
-464318
-464573
-464634
-464871
-465081
-465255
-465386
-465625
-465804
-466028
-466229
-466380
-466561
-466732
-467058
-467194
-467278
-467552
-467732
-468002
-468167
-468345
-468509
-468723
-468960
-469071
-469178
-469302
-469554
-469754
-469896
-470032
-470077
-470293
-470525
-470674
-470751
-470891
-471068
-471224
-471326
-471386
-471498
-471677
-471825
-471847
-471943
-471960
-472110
-472269
-472245
-472243
-472261
-472349
-472525
-472512
-472455
-472461
-472565
-472652
-472808
-472605
-472515
-472521
-472589
-472540
-472477
-472386
-472419
-472422
-472286
-472264
-472265
-472091
-472165
-472162
-472008
-471987
-472008
-472089
-471993
-471888
-471869
-471832
-471837
-471766
-471744
-471764
-471795
-471775
-471747
-471656
-471727
-471740
-471700
-471706
-471593
-471619
-471679
-471765
-471734
-471704
-471731
-471816
-471934
-471897
-471823
-471902
-471955
-472051
-472045
-472056
-472175
-472301
-472429
-472489
-472406
-472465
-472623
-472762
-472813
-472847
-472866
-473040
-473103
-473139
-473169
-473230
-473390
-473484
-473548
-473578
-473701
-473889
-473980
-474047
-474064
-474214
-474269
-474446
-474522
-474588
-474629
-474760
-474934
-474978
-475039
-475193
-475388
-475436
-475772
-475694
-475728
-475851
-476009
-476137
-476136
-476223
-476399
-476494
-476659
-476591
-476693
-476887
-476996
-477153
-477188
-477236
-477360
-477507
-477615
-477634
-477821
-477921
-478071
-478136
-478198
-478344
-478401
-478484
-478588
-478626
-478766
-478966
-479078
-479217
-479188
-479277
-479395
-479500
-479604
-479534
-479727
-479922
-480047
-480095
-480125
-480202
-480339
-480526
-480538
-480661
-480724
-480963
-481066
-481138
-481230
-481243
-481340
-481556
-481637
-481661
-481679
-481837
-481925
-482080
-482096
-482199
-482349
-482383
-482245
-482350
-482203
-482337
-482357
-482213
-482029
-481918
-481807
-481630
-481426
-481021
-480774
-480404
-480118
-479704
-479248
-478757
-478332
-478173
-477360
-476720
-476140
-475676
-475037
-474470
-473785
-473180
-472552
-471874
-471198
-470547
-469821
-469250
-468549
-467894
-467179
-466507
-466002
-465417
-464797
-464097
-463542
-463060
-462584
-462027
-461520
-461049
-460612
-460291
-459807
-459319
-459006
-458748
-458501
-458180
-457913
-457576
-457555
-457350
-457186
-457042
-457159
-456837
-456804
-456918
-456715
-456501
-456889
-456784
-456794
-456816
-456802
-456894
-457056
-457107
-457136
-457175
-457387
-457590
-457619
-457786
-457852
-458096
-458278
-458444
-458531
-458697
-458965
-459129
-459346
-459407
-459624
-459896
-460139
-460336
-460423
-460616
-460779
-461046
-461254
-461457
-461661
-461899
-462173
-462370
-462501
-462672
-462940
-463230
-463380
-463550
-463725
-464015
-464177
-464601
-464563
-464673
-464974
-465181
-465364
-465469
-465670
-465939
-466219
-466428
-466604
-466712
-466991
-467215
-467377
-467433
-467681
-467965
-468161
-468340
-468485
-468667
-468864
-469126
-469278
-469389
-469533
-469792
-469921
-470108
-470219
-470366
-470559
-470744
-470817
-470836
-470898
-471084
-471241
-471330
-471337
-471468
-471609
-471753
-471739
-471866
-471842
-472017
-472051
-472049
-472042
-472051
-472106
-472136
-472127
-471958
-472011
-471996
-471973
-471934
-471873
-471843
-471807
-471866
-471772
-471703
-471628
-471533
-471540
-471426
-471323
-471228
-471276
-471254
-471112
-471039
-470997
-470922
-470851
-470819
-470678
-470647
-470588
-470670
-470564
-470443
-470404
-470416
-470247
-470290
-470351
-470218
-470245
-470323
-470287
-470196
-470214
-470174
-470164
-470283
-470200
-470215
-470280
-470389
-470373
-470376
-470413
-470541
-470537
-470549
-470617
-470634
-470729
-470811
-470892
-470866
-470964
-471122
-471225
-471302
-471303
-471392
-471597
-471688
-471780
-471878
-471884
-471988
-472133
-472185
-472295
-472356
-472477
-472640
-472739
-472791
-472853
-473082
-473237
-473271
-473389
-473516
-473702
-473836
-473933
-473976
-474048
-474236
-474394
-474532
-474515
-474603
-474782
-474969
-475047
-475105
-475162
-475392
-475520
-475598
-475681
-475755
-475978
-476044
-476085
-476175
-476309
-476443
-476644
-476687
-476689
-476840
-477016
-477147
-477270
-477312
-477331
-477491
-477662
-477812
-477672
-477887
-478013
-478207
-478305
-478300
-478405
-478599
-478879
-478907
-478949
-478991
-479103
-479317
-479399
-479440
-479599
-480022
-479953
-479952
-480066
-480166
-480350
-480466
-480519
-480543
-480684
-480920
-480982
-481130
-481139
-481286
-481361
-481580
-481665
-481696
-481762
-481949
-482038
-482158
-482095
-482209
-482257
-482343
-482301
-482254
-482103
-482162
-481950
-481917
-481590
-481294
-481032
-480860
-480569
-480149
-479740
-479393
-478980
-478453
-477965
-477406
-476918
-476334
-475770
-475163
-474559
-474004
-473503
-472721
-472064
-471389
-470780
-470126
-469545
-468803
-468173
-467564
-467015
-466392
-465692
-465095
-464530
-464021
-463395
-462781
-462360
-461838
-461410
-460951
-460474
-460096
-459733
-459462
-459146
-458777
-458479
-458279
-458094
-457875
-457669
-457499
-457332
-457244
-457126
-457024
-456935
-456925
-457005
-456960
-456925
-456916
-457013
-457177
-457235
-457227
-457311
-457401
-457594
-457651
-457780
-457921
-458121
-458290
-458476
-458532
-458657
-458933
-459159
-459387
-459491
-459631
-459837
-460082
-460240
-460419
-460553
-460802
-461038
-461227
-461409
-461626
-461820
-462087
-462295
-462400
-462673
-462846
-463098
-463284
-463526
-463746
-463950
-464188
-464362
-464519
-464760
-464975
-465126
-465447
-465625
-465758
-465994
-466297
-466491
-466687
-466906
-467178
-467469
-467636
-467863
-468050
-468315
-468566
-468759
-468954
-469237
-469393
-469686
-469915
-469981
-470125
-470405
-470765
-470880
-471075
-471203
-471364
-471615
-471835
-471909
-472012
-472278
-472487
-472631
-472671
-472862
-473065
-473214
-473335
-473387
-473540
-473686
-473843
-473948
-473977
-474007
-474048
-474123
-474275
-474255
-474312
-474403
-474502
-474570
-474571
-474601
-474659
-474758
-474760
-474668
-474613
-474672
-474795
-474815
-474751
-474674
-474668
-474680
-474615
-474505
-474568
-474538
-474578
-474549
-474458
-474374
-474509
-474422
-474460
-474368
-474324
-474358
-474437
-474410
-474275
-474223
-474344
-474399
-474450
-474401
-474331
-474369
-474402
-474463
-474427
-474436
-474496
-474638
-474692
-474683
-474601
-474682
-474833
-474940
-474904
-474902
-475102
-475111
-475179
-475211
-475294
-475349
-475491
-475543
-475562
-475579
-475693
-475939
-475936
-475979
-476087
-476147
-476400
-476403
-476430
-476524
-476615
-476797
-476927
-476991
-477030
-477159
-477371
-477469
-477516
-477625
-477739
-477913
-478045
-478069
-478221
-478371
-478512
-478665
-478734
-478671
-478918
-479140
-479316
-479350
-479551
-479749
-479923
-479957
-480038
-480305
-480572
-480675
-480789
-480859
-481043
-481168
-481369
-481472
-481590
-481800
-481952
-482084
-482158
-482305
-482465
-482652
-482727
-482821
-482879
-483068
-483266
-483327
-483406
-483613
-483797
-483885
-484018
-484084
-484226
-484364
-484588
-484688
-484776
-484809
-485079
-485194
-485309
-485368
-485436
-485559
-485780
-485922
-485867
-485995
-486150
-486330
-486386
-486462
-486563
-486746
-486875
-487088
-487106
-487245
-487327
-487336
-487692
-487610
-487712
-487844
-487937
-487963
-487995
-488053
-488182
-488173
-488214
-488056
-488017
-487934
-487837
-487694
-487468
-487238
-487042
-486789
-486468
-486084
-485661
-485313
-485230
-484566
-483946
-483480
-482947
-482486
-481793
-481312
-480741
-480190
-479635
-479081
-478456
-477821
-477200
-476647
-476005
-475332
-474702
-474137
-473600
-473059
-472348
-471762
-471632
-470792
-470189
-469603
-469160
-468758
-468382
-467876
-467550
-467057
-466841
-466503
-466240
-465919
-465624
-465409
-465237
-465047
-464755
-464558
-464548
-464546
-464357
-464203
-464091
-464085
-464145
-464186
-464093
-463970
-464186
-464345
-464351
-464417
-464418
-464546
-464723
-464835
-464907
-464973
-465167
-465365
-465469
-465624
-465686
-465921
-466133
-466376
-466486
-466545
-466850
-467149
-467348
-467500
-467685
-467996
-468173
-468402
-468550
-468987
-469045
-469287
-469482
-469656
-469916
-470117
-470443
-470634
-470823
-471006
-471378
-471596
-471825
-472034
-472302
-472584
-472833
-473101
-473220
-473457
-473704
-474060
-474323
-474475
-474689
-474919
-475273
-475500
-475693
-475851
-476160
-476462
-476600
-476821
-477068
-477282
-477566
-477727
-477849
-478060
-478279
-478529
-478737
-478898
-478955
-479217
-479400
-479517
-479678
-479846
-480037
-480194
-480387
-480501
-480559
-480764
-480951
-481022
-481124
-481179
-481336
-481487
-481562
-481509
-481595
-481714
-481815
-481830
-481925
-481942
-482000
-482019
-482081
-482062
-482021
-482079
-482164
-482152
-482119
-482067
-482169
-482140
-482147
-481974
-481941
-481994
-482080
-482006
-481924
-481999
-481956
-481934
-481953
-481886
-481790
-481764
-481822
-481748
-481761
-481687
-481795
-481701
-481661
-481646
-481540
-481561
-481577
-481568
-481516
-481575
-481446
-481533
-481507
-481474
-481487
-481500
-481542
-481490
-481491
-481542
-481537
-481633
-481645
-481582
-481517
-481526
-481593
-481631
-481535
-481623
-481728
-481754
-481697
-481694
-481722
-481777
-481859
-481872
-481862
-481831
-481941
-482050
-482055
-482047
-482084
-482039
-482218
-482227
-482153
-482172
-482294
-482334
-482456
-482438
-482400
-482484
-482533
-482617
-482570
-482615
-482625
-482809
-482788
-482757
-482810
-482905
-482963
-482965
-482949
-482977
-483052
-483139
-483173
-483117
-483185
-483090
-483313
-483346
-483333
-483346
-483450
-483591
-483647
-483714
-483735
-483783
-483769
-483901
-483948
-483919
-484072
-484243
-484290
-484408
-484414
-484541
-484624
-484690
-484814
-484817
-484946
-485054
-485055
-485152
-485260
-485458
-485587
-485702
-485662
-485723
-485922
-486112
-486214
-486164
-486296
-486424
-486520
-486559
-486605
-486709
-486835
-486999
-487108
-487191
-487243
-487404
-487482
-487505
-487543
-487654
-487766
-487865
-488076
-488066
-488131
-488261
-488340
-488429
-488423
-488449
-488492
-488554
-488496
-488492
-488292
-488353
-488299
-488179
-487979
-487675
-487472
-487173
-486825
-486480
-486104
-485738
-485356
-484856
-484253
-483731
-483270
-482750
-482161
-481634
-480972
-480452
-479835
-479243
-478543
-477865
-477295
-476715
-476020
-475356
-474636
-474010
-473453
-472811
-472120
-471566
-471219
-470543
-469788
-469265
-468776
-468297
-467873
-467406
-467128
-466565
-466150
-465885
-465595
-465239
-464905
-464723
-464488
-464183
-464083
-463888
-463841
-463707
-463613
-463560
-463532
-463597
-463563
-463630
-463605
-463627
-463741
-463874
-464003
-464142
-464229
-464343
-464638
-464727
-464857
-465051
-465329
-465579
-465686
-465926
-466136
-466338
-466596
-466921
-467066
-467333
-467585
-467914
-468214
-468346
-468674
-468969
-469227
-469481
-469696
-469884
-470191
-470490
-470729
-471250
-471249
-471515
-471775
-472009
-472349
-472585
-472750
-473116
-473372
-473623
-473852
-474170
-474483
-474781
-474940
-475154
-475464
-475802
-476442
-476429
-476507
-476812
-477000
-477349
-477619
-477878
-478174
-478871
-479416
-479923
-480295
-480583
-480883
-481100
-481220
-481355
-481615
-481893
-482052
-482165
-482330
-482542
-482783
-482963
-483103
-483211
-483411
-483597
-483751
-483856
-483913
-484061
-484191
-484311
-484395
-484743
-484634
-484653
-484689
-484734
-484664
-484680
-484772
-484757
-484722
-484646
-484638
-484644
-484604
-484512
-484355
-484286
-484321
-484228
-484086
-483904
-483901
-483725
-483665
-483349
-483264
-483230
-483144
-483094
-482835
-482654
-482535
-482423
-482335
-482153
-481933
-481905
-481732
-481658
-481529
-481351
-481168
-481089
-481016
-480761
-480592
-480499
-480470
-480391
-480169
-480002
-479884
-479873
-479757
-479594
-479485
-479381
-479366
-479274
-479101
-478899
-478890
-478893
-478727
-478519
-478393
-478444
-478390
-478345
-478261
-478130
-478149
-478099
-478075
-477942
-477891
-477884
-477891
-477867
-478185
-477823
-477780
-477803
-477804
-477736
-477666
-477738
-477780
-477804
-477754
-477764
-477847
-477819
-477830
-477813
-477805
-477887
-477862
-477959
-477972
-477967
-478020
-478120
-478232
-478188
-478176
-478301
-478373
-478447
-478438
-478440
-478543
-478639
-478748
-478682
-478698
-478777
-478896
-478941
-478983
-479031
-479132
-479269
-479378
-479385
-479452
-479604
-479768
-479722
-479866
-479906
-480019
-480097
-480166
-480176
-480295
-480465
-480528
-480656
-480674
-480705
-480901
-481051
-481156
-481133
-481256
-481330
-481416
-481522
-481549
-481636
-481830
-482023
-482040
-482068
-482105
-482281
-482482
-482548
-482574
-482672
-482769
-482861
-482945
-482937
-483005
-483056
-483098
-483091
-482972
-482965
-482924
-482819
-482702
-482535
-482312
-482132
-481965
-481670
-481336
-480980
-480603
-480317
-479868
-479364
-478901
-478472
-478059
-477547
-476937
-476392
-475916
-475448
-474881
-474213
-473582
-473045
-472573
-471923
-471194
-470635
-470083
-469535
-468992
-468335
-467766
-467176
-466714
-466182
-465673
-465210
-464734
-464385
-463913
-463406
-462969
-462669
-462376
-462100
-461747
-461465
-461227
-460992
-460799
-460559
-460364
-460278
-460151
-460035
-459911
-459777
-459710
-459821
-459794
-459737
-459650
-459672
-459803
-459906
-459907
-459962
-460013
-460221
-460390
-460394
-460401
-460620
-460846
-460966
-461006
-461161
-461314
-461526
-461781
-461848
-461999
-462144
-462393
-462516
-462661
-462778
-463040
-463188
-463404
-463551
-463735
-463988
-464205
-464399
-464562
-464702
-464890
-465181
-465399
-465530
-465686
-465911
-466196
-466427
-466516
-467132
-467165
-467331
-467608
-467777
-467928
-468144
-468411
-468599
-468818
-469049
-469218
-469488
-469787
-469876
-470045
-470354
-470552
-470807
-470904
-471040
-471261
-471585
-471735
-471874
-472035
-472258
-472497
-472677
-472802
-473134
-473163
-473298
-473409
-473520
-473657
-473781
-473993
-474140
-474183
-474277
-474462
-474640
-474722
-474633
-474727
-474849
-474971
-475052
-475063
-475043
-475115
-475210
-475237
-475239
-475237
-475216
-475372
-475345
-475269
-475262
-475232
-475249
-475256
-475229
-475103
-475152
-475097
-475134
-474998
-474922
-474875
-474808
-474833
-474678
-474613
-474605
-474650
-474534
-474424
-474413
-474392
-474393
-474399
-474239
-474179
-474184
-474201
-474155
-474113
-474116
-474111
-474224
-474261
-474145
-474116
-474211
-474243
-474298
-474267
-474255
-474415
-474431
-474522
-474517
-474525
-474549
-474687
-474794
-474781
-474878
-474970
-475125
-475143
-475253
-475182
-475299
-475406
-475528
-475572
-475646
-475737
-475931
-476054
-476092
-476097
-476351
-476405
-476491
-476624
-476655
-476863
-477045
-477152
-477186
-477251
-477415
-477566
-477725
-477835
-477908
-478084
-478193
-478358
-478441
-478547
-478679
-478925
-479034
-479172
-479312
-479467
-479742
-479868
-479982
-480081
-480280
-480487
-480633
-480686
-480882
-481129
-481367
-481423
-481599
-481661
-481916
-482079
-482295
-482327
-482487
-482671
-482966
-483141
-483164
-483292
-483522
-483744
-483873
-484067
-484101
-484430
-484440
-484728
-484820
-485012
-485235
-485294
-485647
-485849
-486017
-486153
-486623
-486639
-486683
-486816
-487035
-487124
-487346
-487445
-487667
-487899
-487996
-488131
-488215
-488434
-488609
-488755
-489008
-489041
-489106
-489260
-489433
-489549
-489686
-489700
-489784
-489904
-489885
-489798
-489732
-489647
-489598
-489468
-489165
-488903
-488644
-488459
-488165
-487649
-487249
-486866
-486462
-486114
-485587
-484995
-484470
-484019
-483473
-482909
-482323
-481706
-481181
-480627
-479970
-479399
-478894
-478263
-477690
-477008
-476388
-475909
-475339
-474787
-474208
-473742
-473281
-472816
-472314
-471843
-471427
-471154
-470789
-470675
-470184
-469781
-469494
-469376
-469108
-468866
-468625
-468516
-468401
-468352
-468164
-468032
-468021
-468075
-468058
-467895
-467885
-467954
-468048
-468122
-468127
-468167
-468339
-468558
-468680
-468802
-468867
-468954
-469271
-469374
-469510
-469696
-469994
-470205
-470403
-470593
-470781
-470982
-471313
-471596
-471808
-471971
-472260
-472554
-472778
-472994
-473231
-473613
-473925
-474028
-474160
-474405
-474707
-475007
-475297
-475500
-475797
-476005
-476424
-476721
-476980
-477162
-477449
-477746
-478085
-478331
-478566
-478914
-479214
-479530
-479705
-479978
-480311
-480612
-480878
-481097
-481273
-481601
-481994
-482237
-482462
-482668
-482900
-483164
-483425
-483600
-483817
-484137
-484315
-484583
-484781
-484867
-485116
-485296
-485450
-485638
-485800
-486033
-486171
-486344
-486446
-486564
-486656
-486906
-486982
-487061
-487151
-487295
-487418
-487489
-487523
-487507
-487445
-487637
-487682
-487666
-487621
-487585
-487659
-487634
-487655
-487575
-487608
-487656
-487608
-487526
-487414
-487396
-487296
-487420
-487289
-487173
-487191
-487137
-487160
-487050
-486925
-486872
-486904
-486797
-486652
-486564
-486534
-486548
-486447
-486346
-486312
-486186
-486180
-486166
-485932
-485787
-485897
-485931
-485861
-485749
-485531
-485558
-485578
-485550
-485518
-485469
-485382
-485409
-485332
-485251
-485224
-485177
-485215
-485195
-485087
-485049
-484986
-485022
-484991
-484955
-484943
-484948
-484890
-484863
-484890
-484859
-484798
-484788
-484843
-484825
-484722
-484786
-484946
-484897
-484830
-484838
-484867
-484902
-484963
-484972
-484987
-485013
-485123
-485336
-485263
-485319
-485384
-485518
-485656
-485720
-485753
-485934
-486106
-486129
-486199
-486325
-486488
-486641
-486695
-487247
-487410
-487448
-487516
-487711
-487816
-487968
-487951
-488115
-488241
-488379
-488507
-488596
-488637
-488795
-488971
-489170
-489192
-489251
-489454
-489632
-489783
-489853
-489953
-490121
-490365
-490970
-490735
-490684
-490823
-491123
-491298
-491362
-491490
-491674
-491850
-491952
-492045
-492162
-492285
-492431
-492643
-492533
-492628
-492757
-493124
-492942
-492799
-492639
-492571
-492582
-492408
-492211
-491900
-491744
-491546
-491271
-490869
-490260
-489956
-489612
-489256
-488715
-488144
-487723
-487260
-486697
-486063
-485471
-484907
-484359
-483811
-483189
-482468
-481778
-481204
-480619
-479986
-479254
-478662
-478110
-477592
-477241
-476372
-475823
-475217
-474717
-474117
-473561
-473083
-472688
-472267
-471671
-471278
-470950
-470636
-470199
-469878
-469609
-469314
-469073
-468908
-468676
-468427
-468301
-468161
-468038
-467937
-467787
-467752
-467704
-467691
-467676
-467632
-467637
-467698
-467793
-467800
-467752
-467930
-468067
-468134
-468160
-468337
-468453
-468665
-468755
-468817
-468921
-469172
-469328
-469537
-469708
-469711
-469909
-470231
-470401
-470560
-470778
-470881
-471173
-471365
-471421
-471677
-471809
-472014
-472249
-472468
-472601
-472773
-473007
-473324
-473463
-473564
-473845
-474068
-474245
-474415
-474539
-474878
-475110
-475367
-475405
-475605
-475843
-476096
-476337
-476511
-476570
-476864
-477087
-477210
-477388
-477547
-477713
-477974
-478156
-478298
-478384
-478603
-478807
-478910
-478982
-479042
-479118
-479304
-479476
-479488
-479570
-479756
-479825
-479919
-479981
-479964
-480026
-480119
-480180
-480157
-480127
-480192
-480221
-480218
-480143
-480089
-480146
-480101
-480164
-480000
-479949
-479942
-479923
-479859
-479741
-479701
-479647
-479580
-479522
-479417
-479236
-479225
-479178
-479144
-478968
-478893
-478769
-478716
-478662
-478449
-478249
-478206
-478146
-478026
-477838
-477652
-477562
-477558
-477479
-477370
-477260
-477165
-477180
-477035
-476916
-476848
-476800
-476804
-476849
-476730
-476662
-476591
-476606
-476623
-476565
-476416
-476483
-476536
-476548
-476436
-476450
-476447
-476511
-476498
-476518
-476540
-476528
-476646
-476653
-476673
-476623
-476618
-476717
-476802
-476791
-476792
-476897
-477041
-477045
-477103
-477096
-477217
-477293
-477439
-477512
-477536
-477617
-477685
-477764
-477911
-477929
-477983
-478180
-478245
-478310
-478335
-478428
-478564
-478675
-478728
-478763
-478797
-478879
-479044
-479116
-479196
-479325
-479385
-479558
-479600
-479601
-479775
-479886
-479998
-480067
-480136
-480198
-480356
-480529
-480582
-480638
-480723
-480807
-480943
-480976
-481061
-481118
-481286
-481389
-481423
-481484
-481557
-481717
-481840
-481790
-481897
-481915
-482155
-482733
-482470
-482393
-482494
-482593
-482677
-482720
-482753
-482806
-482995
-483040
-482993
-482956
-482981
-483083
-483078
-482915
-482828
-482676
-482647
-482503
-482300
-481973
-481720
-481467
-481061
-480747
-480275
-479863
-479432
-478944
-478453
-477855
-477359
-476873
-476353
-475745
-475131
-474559
-474044
-473404
-472767
-472077
-471483
-470935
-470331
-469687
-469011
-468446
-467880
-467401
-466745
-466204
-465635
-465146
-464729
-464238
-463644
-463229
-462844
-462476
-462015
-461653
-461290
-461059
-460724
-460378
-460109
-459913
-459714
-459557
-459418
-459244
-459164
-459102
-459087
-458908
-458887
-458888
-458990
-459054
-459035
-459005
-459058
-459143
-459260
-459298
-459279
-459465
-459606
-459755
-459770
-459728
-459914
-460084
-460175
-460142
-460167
-460275
-460460
-460553
-460684
-460895
-461039
-461231
-461445
-461572
-461785
-462058
-462270
-462427
-462582
-462815
-463027
-463255
-463342
-463516
-463780
-464053
-464298
-464430
-464544
-464744
-464961
-465184
-465338
-465581
-465840
-466087
-466294
-466439
-466577
-466851
-467062
-467302
-467423
-467559
-467776
-468029
-468267
-468437
-468536
-468784
-469031
-469228
-469409
-469549
-469745
-469999
-470195
-470352
-470485
-470693
-470904
-471166
-471280
-471459
-471684
-471999
-472155
-472361
-472443
-472548
-472744
-473060
-473133
-473354
-473563
-473809
-473959
-474091
-474250
-474397
-474664
-474840
-474980
-474983
-475185
-475352
-475864
-475625
-475661
-475819
-476026
-476125
-476225
-476330
-476424
-476559
-476704
-476826
-476696
-476920
-477054
-477212
-477302
-477311
-477387
-477594
-477699
-477679
-477699
-477822
-477933
-478132
-478166
-478160
-478140
-478382
-478470
-478502
-478578
-478575
-478641
-478820
-478842
-478929
-478898
-479088
-479190
-479179
-479245
-479303
-479444
-479522
-479508
-479531
-479600
-479771
-479823
-479808
-479829
-479920
-480047
-480159
-480130
-480175
-480330
-480388
-480460
-480531
-480570
-480647
-480793
-480875
-480915
-480916
-481066
-481179
-481299
-481377
-481477
-481660
-481670
-481885
-481825
-481841
-482042
-482214
-482565
-482500
-482445
-483036
-482826
-482923
-482971
-483064
-483257
-483492
-483590
-483633
-483728
-483866
-484059
-484256
-484377
-484430
-484664
-484742
-485013
-485179
-485250
-485388
-485616
-485893
-486027
-486005
-486201
-486497
-486629
-486791
-486895
-487088
-487301
-487540
-487665
-487807
-488014
-488185
-488364
-488476
-488618
-488752
-488980
-489071
-489221
-489347
-489486
-489688
-489823
-489977
-490030
-490158
-490305
-490441
-490467
-490372
-490437
-490503
-490459
-490391
-490224
-490081
-489956
-489808
-489542
-489189
-488931
-488608
-488256
-487869
-487426
-486949
-486593
-486238
-485713
-485128
-484614
-484175
-484091
-483198
-482528
-482021
-481884
-480917
-480352
-479716
-479231
-478720
-478248
-477611
-477067
-476574
-476132
-475652
-475129
-474656
-474162
-473865
-473529
-473060
-472623
-472314
-472002
-471824
-471457
-471167
-470983
-470840
-470701
-470529
-470323
-470250
-470186
-470175
-470097
-469990
-469899
-470001
-470011
-470029
-470052
-470099
-470188
-470311
-470336
-470415
-470574
-470714
-470845
-470916
-471081
-471211
-471425
-471624
-471737
-471870
-472047
-472219
-472419
-472580
-472722
-472987
-473246
-473512
-473642
-473774
-473960
-474171
-474410
-474551
-474561
-474901
-475205
-475409
-475620
-475751
-475984
-476209
-476414
-476684
-476788
-476999
-477227
-477515
-477698
-477880
-478095
-478336
-478542
-478717
-478962
-479164
-479441
-479651
-479782
-479988
-480178
