PPG
-591941
-592059
-592119
-592192
-592279
-592275
-592241
-592315
-592349
-592440
-592598
-592589
-592704
-592816
-592863
-592823
-592881
-592856
-592963
-593066
-593079
-593150
-593126
-593211
-593292
-593266
-593261
-593297
-593421
-593406
-593414
-593467
-593441
-593520
-593528
-593492
-593497
-593525
-593538
-593414
-593291
-593257
-593165
-592995
-592850
-592643
-592377
-592055
-591715
-591426
-590999
-590526
-590232
-589753
-589358
-588787
-588297
-587800
-587312
-586762
-586312
-585791
-585235
-584699
-584204
-583606
-583151
-582640
-582084
-581589
-581129
-580688
-580187
-579720
-579330
-578908
-578431
-578099
-577670
-577371
-577034
-576738
-576406
-576157
-575918
-575717
-575442
-575273
-575067
-574920
-574709
-574562
-574472
-574448
-574358
-574269
-574148
-574057
-574031
-574013
-573968
-573956
-573979
-573933
-573946
-573963
-573924
-573944
-573891
-573988
-574008
-574006
-574054
-574102
-574098
-574291
-574155
-574177
-574212
-574267
-574270
-574290
-574300
-574367
-574412
-574423
-574413
-574506
-574570
-574617
-574549
-574563
-574677
-574769
-574826
-574771
-574790
-574828
-574784
-574840
-574777
-574815
-574896
-574924
-574850
-574869
-574949
-574985
-574967
-575040
-575043
-575071
-575170
-575251
-575367
-575455
-575521
-575644
-575746
-575884
-576023
-576194
-576235
-576355
-576556
-576669
-576821
-576894
-577078
-577346
-577434
-577521
-577732
-577853
-578000
-578143
-578214
-578409
-578540
-578644
-578787
-578905
-579022
-579071
-579204
-579299
-579341
-579412
-579544
-579645
-579682
-579688
-579744
-579857
-579893
-579878
-580015
-580012
-580073
-580085
-579864
-580014
-580020
-580108
-580043
-580013
-580001
-579922
-579995
-579961
-579887
-579856
-579787
-579862
-579812
-579727
-579698
-579684
-579695
-579636
-579613
-579571
-579556
-579657
-579658
-579615
-579622
-579565
-579500
-579569
-579554
-579460
-579559
-579534
-579614
-579546
-579532
-579553
-579576
-579561
-579647
-579624
-579737
-579657
-579784
-579728
-579794
-579908
-579954
-580000
-580050
-580035
-580109
-580130
-580197
-580246
-580254
-580319
-580439
-580474
-580578
-580607
-580664
-580730
-580870
-580837
-580814
-580899
-580905
-580992
-581006
-581124
-581103
-581133
-581288
-581345
-581375
-581452
-581568
-581555
-581611
-581644
-581685
-581879
-581865
-582016
-582088
-582129
-582219
-582272
-582360
-582515
-582584
-582510
-582755
-582760
-582816
-582942
-583069
-583076
-583088
-583124
-583228
-583326
-583476
-583443
-583466
-583527
-583593
-583694
-583684
-583713
-583806
-583659
-583908
-583834
-584056
-584137
-584360
-584419
-584539
-584592
-584670
-584721
-584762
-584802
-584891
-584960
-585039
-585141
-585186
-585212
-585200
-585337
-585392
-585375
-585415
-585725
-585634
-585654
-585622
-585782
-585840
-585905
-586056
-586099
-586172
-586269
-586286
-586442
-586519
-586500
-586589
-586719
-586821
-586903
-586973
-586994
-587162
-587217
-587218
-587303
-587404
-587524
-587581
-587656
-587603
-587680
-587864
-587886
-587973
-588093
-588114
-588210
-588291
-588430
-588425
-588530
-588537
-588671
-588758
-588849
-588919
-589021
-589174
-589169
-589259
-589378
-589621
-589549
-589550
-589719
-589793
-589882
-589989
-589957
-590171
-590175
-590236
-590292
-590420
-590506
-590648
-590712
-590849
-590878
-590986
-591050
-591161
-591253
-591201
-591406
-591484
-591612
-591763
-591842
-591932
-591975
-592082
-592099
-592128
-592191
-592352
-592256
-592461
-592554
-592667
-592841
-592883
-592907
-592984
-593113
-593198
-593305
-593387
-593412
-593490
-593578
-593642
-593718
-593657
-593849
-593931
-594009
-594089
-594111
-594269
-594280
-594400
-594477
-594452
-594468
-594574
-594672
-594713
-594718
-594782
-594815
-594974
-594940
-594948
-595033
-595093
-595164
-595154
-595311
-595409
-595841
-595570
-595533
-595492
-595716
-595799
-595935
-596068
-596072
-596171
-596225
-596429
-596458
-596272
-596566
-596677
-596779
-596869
-597004
-597025
-597074
-597136
-597272
-597229
-597335
-597427
-597574
-597629
-597458
-597675
-597747
-597824
-597972
-597950
-598009
-598078
-598106
-598173
-598212
-598198
-598251
-598257
-598093
-598045
-597991
-597812
-597662
-597420
-597225
-596975
-596655
-596292
-595907
-595442
-595007
-594614
-594102
-593542
-593049
-592566
-592025
-591432
-590904
-590245
-589670
-589018
-588422
-587830
-587226
-586733
-586142
-585580
-584957
-584205
-583846
-583315
-583114
-582377
-581857
-581418
-581054
-580599
-580245
-579834
-579493
-578979
-578832
-578546
-578362
-578038
-577716
-577623
-577380
-577312
-577106
-576994
-576956
-576783
-576670
-576588
-576583
-576564
-576502
-576507
-576392
-576484
-576922
-576901
-576558
-576482
-576424
-576573
-576743
-576663
-576630
-576850
-576764
-576608
-576840
-577024
-576910
-577042
-576995
-577047
-577039
-577099
-577328
-577406
-577388
-577437
-577557
-577518
-577477
-577507
-577699
-577618
-577486
-577593
-577665
-577722
-578021
-578119
-577665
-577346
-578086
-578403
-577924
-578307
-577912
-578309
-577984
-578114
-577951
-578106
-577978
-577757
-577896
-577919
-577982
-577828
-578091
-578196
-578179
-578326
-578386
-578499
-578517
-578603
-578693
-578831
-578877
-579016
-578998
-579186
-579329
-579470
-579593
-579457
-579674
-579889
-580019
-579960
-580148
-580185
-580229
-580392
-580551
-580680
-580570
-580786
-580949
-581004
-581077
-581142
-581051
-581272
-581104
-581289
-581354
-581527
-581924
-581690
-581472
-581589
-581648
-581685
-581688
-581678
-581775
-581650
-581558
-581668
-581695
-581705
-581611
-581577
-581605
-581509
-581479
-581494
-581517
-581414
-581389
-581432
-581426
-581368
-581402
-581298
-581195
-580896
-581183
-581100
-580920
-580937
-581013
-581112
-581119
-581078
-581015
-581305
-581058
-581017
-580969
-580873
-580999
-580916
-580927
-580882
-580794
-580850
-580799
-580739
-580799
-580707
-580694
-580634
-580754
-580730
-580558
-580728
-580779
-580743
-580799
-580638
-580710
-580694
-580700
-580658
-580619
-580657
-580585
-580774
-580665
-580703
-580660
-580663
-580582
-580562
-580554
-580622
-580621
-580439
-580765
-580987
-580605
-580391
-580271
-580440
-580262
-580386
-580466
-580376
-580304
-580279
-580377
-580413
-580278
-580269
-580196
-580266
-580156
-580309
-580513
-580404
-580358
-580440
-580461
-580585
-580609
-580558
-580619
-580657
-580634
-580622
-580677
-580688
-580695
-580817
-580703
-580865
-580838
-580808
-580849
-580836
-581321
-581066
-580935
-580998
-581081
-580941
-580919
-581069
-580909
-580932
-580975
-580969
-580879
-580889
-580872
-580915
-580936
-580998
-580926
-581075
-580956
-581052
-581104
-581090
-581106
-581068
-581144
-581160
-581146
-581106
-581136
-581144
-581161
-581193
-581205
-581191
-581274
-581204
-581124
-581168
-581236
-581161
-581075
-581069
-581034
-581087
-581077
-581073
-580997
-580989
-581036
-580980
-581019
-580945
-580933
-581001
-581051
-581106
-581063
-581031
-581126
-581155
-581188
-581179
-581150
-581206
-581272
-581306
-581339
-581397
-581408
-581496
-581501
-581476
-581516
-581566
-581629
-581623
-581650
-581644
-581741
-581736
-581703
-581698
-581719
-581818
-581882
-581861
-581851
-581897
-581964
-582033
-582050
-582002
-582064
-582082
-582118
-582131
-582100
-582109
-582232
-582289
-582368
-582385
-582438
-582510
-582506
-582516
-582524
-582604
-582653
-582695
-582655
-582635
-582659
-582725
-582758
-582815
-582866
-582896
-583011
-583037
-582986
-582992
-583080
-583204
-583183
-583194
-583213
-583334
-583361
-583487
-583493
-583509
-583507
-583612
-583665
-583632
-583755
-583773
-583815
-583822
-583933
-583893
-583874
-583987
-583970
-583918
-583926
-583906
-583848
-583900
-583842
-583814
-583617
-583564
-583393
-583222
-582998
-582822
-582518
-582232
-582007
-581621
-581231
-580909
-580410
-579932
-579417
-578967
-578465
-577913
-577363
-576859
-576417
-575834
-575307
-574728
-574182
-573688
-573098
-572543
-572024
-571424
-571018
-570503
-570033
-569609
-569183
-568744
-568400
-567968
-567598
-567242
-566901
-566645
-566333
-565978
-565682
-565466
-565268
-565099
-564834
-564717
-564636
-564520
-564400
-564321
-564213
-564139
-564129
-564077
-564000
-563959
-564065
-564019
-564086
-564032
-564091
-564086
-564131
-564217
-564292
-564279
-564363
-564385
-564523
-564594
-564599
-564669
-564756
-564816
-564845
-564868
-564899
-564958
-565067
-565034
-565116
-565203
-565210
-565263
-565224
-565300
-565327
-565405
-565465
-565418
-565403
-565385
-565415
-565451
-565406
-565337
-565423
-565363
-565427
-565395
-565473
-565515
-565466
-565493
-565571
-565536
-565591
-565642
-565607
-565666
-565759
-565790
-565924
-565940
-566055
-566138
-566188
-566395
-566455
-566560
-566740
-566898
-566986
-567015
-567221
-567360
-567489
-567582
-567711
-567866
-567957
-568156
-568183
-568329
-568366
-568484
-568534
-568602
-568702
-568742
-568749
-568921
-569012
-568946
-568996
-569013
-569116
-569195
-569131
-569225
-569250
-569242
-569281
-569223
-569281
-569351
-569382
-569342
-569388
-569328
-569345
-569319
-569300
-569356
-569241
-569209
-569236
-569174
-569164
-569178
-569168
-569140
-569121
-568992
-568907
-568869
-568868
-568809
-568771
-568716
-568689
-568667
-568618
-568532
-568583
-568617
-568582
-568563
-568526
-568559
-568539
-568564
-568523
-568478
-568530
-568464
-568537
-568532
-568562
-568611
-568678
-568732
-568809
-568847
-568891
-568972
-568996
-569111
-569042
-569079
-569111
-569140
-569218
-569198
-569202
-569226
-569380
-569394
-569360
-569359
-569500
-569525
-569491
-569641
-569669
-569774
-569805
-569808
-569814
-569872
-569917
-570012
-570135
-570163
-570255
-570328
-570342
-570314
-570320
-570399
-570542
-570541
-570544
-570624
-570719
-570761
-570775
-570779
-570850
-570857
-570922
-571014
-571039
-571051
-571158
-571208
-571201
-571324
-571337
-571410
-571468
-571555
-571499
-571572
-571662
-571719
-571793
-571801
-571901
-571939
-572050
-572124
-572135
-572170
-572177
-572228
-572263
-572282
-572254
-572435
-572444
-572449
-572351
-572370
-572470
-572491
-572537
-572589
-572619
-572609
-572680
-572668
-572835
-572869
-572848
-572911
-572901
-572913
-573037
-573114
-573182
-573224
-573250
-573300
-573420
-573543
-573502
-573551
-573553
-573650
-573701
-573820
-573812
-573942
-573940
-574048
-574109
-574079
-574197
-574182
-574249
-574313
-574304
-574294
-574380
-574378
-574437
-574405
-574395
-574446
-574532
-574584
-574534
-574599
-574638
-574659
-574653
-574762
-574771
-574788
-574942
-574929
-575004
-575023
-575119
-575270
-575250
-575284
-575325
-575382
-575406
-575421
-575439
-575474
-575494
-575631
-575587
-575631
-575598
-575597
-575710
-575760
-575651
-575776
-575837
-575744
-575876
-575784
-575876
-575854
-575884
-575874
-575877
-575931
-576005
-576055
-576030
-576038
-576064
-576101
-576085
-576142
-576203
-576169
-576157
-576253
-576278
-576265
-576347
-576390
-576325
-576501
-576520
-576527
-576585
-576612
-576649
-576815
-576731
-576797
-576858
-576989
-577097
-577137
-577204
-577349
-577401
-577475
-577509
-577553
-577685
-577747
-577838
-577827
-577901
-578077
-578123
-578164
-578125
-578225
-578330
-578355
-578330
-578402
-578368
-578367
-578393
-578279
-578319
-578232
-578185
-578070
-577962
-577839
-577713
-577437
-577125
-576769
-576409
-576102
-575757
-575324
-574884
-574413
-573918
-573449
-572867
-572253
-571705
-571236
-570666
-570167
-569589
-568923
-568406
-567799
-567223
-566724
-566202
-565618
-565153
-564671
-564188
-563718
-563281
-562853
-562409
-562039
-561630
-561310
-561056
-560677
-560313
-560043
-559793
-559538
-559385
-559056
-558951
-558760
-558565
-558438
-558460
-558276
-558262
-558194
-558165
-558081
-558040
-558012
-558149
-558128
-558071
-558060
-558124
-558255
-558178
-558311
-558384
-558402
-558516
-558456
-558491
-558627
-558751
-558790
-558750
-558882
-558867
-558950
-558939
-558958
-559024
-559129
-559176
-559250
-559269
-559347
-559371
-559372
-559437
-559416
-559434
-559432
-559448
-559501
-559464
-559392
-559382
-559472
-559480
-559506
-559482
-559475
-559522
-559637
-559583
-559589
-559636
-559706
-559858
-559747
-559841
-559866
-559977
-559961
-560036
-560098
-560222
-560313
-560454
-560513
-560618
-560687
-560925
-561033
-561166
-561279
-561367
-561592
-561697
-561800
-561927
-562139
-562330
-562499
-562683
-562787
-562917
-563118
-563286
-563373
-563406
-563501
-563764
-563843
-563920
-564050
-564176
-564229
-564254
-564264
-564297
-564292
-564391
-564483
-564504
-564455
-564454
-564571
-564555
-564566
-564618
-564615
-564685
-564676
-564593
-564570
-564547
-564467
-564483
-564458
-564402
-564383
-564476
-564449
-564363
-564288
-564303
-564229
-564253
-564147
-564074
-564036
-564070
-563989
-564011
-563980
-563927
-563883
-563822
-563764
-563873
-563845
-563865
-563919
-563910
-563867
-563973
-563953
-563962
-564026
-564054
-564056
-564076
-564147
-564158
-564165
-564319
-564334
-564434
-564398
-564444
-564555
-564600
-564734
-564787
-564847
-564858
-564924
-565033
-565041
-565082
-565129
-565290
-565410
-565403
-565465
-565621
-565674
-565844
-565990
-565955
-566026
-566171
-566220
-566305
-566326
-566467
-566532
-566650
-566786
-566878
-566971
-567113
-567112
-567242
-567307
-567376
-567533
-567568
-567603
-567728
-567831
-567978
-568033
-568130
-568190
-568317
-568397
-568601
-568720
-568834
-568899
-569006
-569176
-569256
-569413
-569449
-569590
-569651
-569660
-569823
-569901
-570013
-570062
-570048
-570192
-570260
-570284
-570436
-570430
-570567
-570570
-570651
-570669
-570713
-570724
-570846
-570909
-570967
-571010
-570934
-570931
-571068
-571201
-571188
-571131
-571225
-571320
-571408
-571426
-571417
-571386
-571461
-571453
-571454
-571508
-571599
-571564
-571685
-571740
-571672
-571650
-571742
-571793
-571769
-571744
-571806
-571793
-571761
-571744
-571757
-571823
-571900
-571864
-571927
-571858
-571879
-571849
-571928
-571975
-572022
-572005
-572042
-572118
-572054
-572128
-572233
-572281
-572404
-572356
-572424
-572437
-572511
-572621
-572629
-572743
-572836
-572904
-573048
-572969
-573035
-573131
-573232
-573389
-573375
-573453
-573566
-573720
-573800
-573835
-573912
-573922
-574019
-574089
-574174
-574236
-574308
-574399
-574404
-574485
-574636
-574796
-574822
-574874
-574852
-575016
-575025
-575134
-575083
-575086
-575120
-575211
-575245
-575255
-575279
-575283
-575327
-575349
-575439
-575458
-575460
-575586
-575538
-575565
-575592
-575669
-575655
-575734
-575729
-575726
-575862
-575877
-575907
-575934
-576343
-576147
-576113
-576198
-576246
-576197
-576183
-576293
-576382
-576330
-576374
-576477
-576491
-576400
-576441
-576561
-576697
-576737
-576838
-576875
-576947
-577025
-577171
-577191
-577348
-577424
-577478
-577664
-577728
-577789
-577851
-577929
-578026
-578080
-578113
-578253
-578368
-578381
-578556
-578596
-578733
-578769
-578767
-578903
-578911
-578842
-578905
-578782
-578809
-578830
-578818
-578698
-578619
-578501
-578371
-578148
-577970
-577727
-577421
-576998
-576565
-576294
-575844
-575427
-574972
-574454
-574063
-573505
-572997
-572443
-571921
-571464
-570982
-570388
-569819
-569308
-568860
-568344
-567786
-567397
-566875
-566468
-566001
-565674
-565123
-564822
-564489
-564146
-563870
-563606
-563271
-563080
-562882
-562612
-562419
-562217
-562118
-562010
-561932
-561760
-561720
-561620
-561599
-561449
-561424
-561465
-561479
-561485
-561465
-561493
-561568
-561654
-561678
-561709
-561801
-561887
-561962
-561978
-561966
-562006
-562113
-562190
-562228
-562619
-562416
-562391
-562438
-562527
-562561
-562573
-562587
-562571
-562745
-562755
-563227
-562876
-562908
-562885
-562840
-562851
-562952
-562914
-562926
-562882
-562892
-563018
-562945
-562933
-562888
-562966
-562975
-562964
-562923
-562928
-562897
-562844
-563004
-562989
-562902
-563020
-563105
-563185
-563238
-563324
-563298
-563407
-563537
-563587
-563717
-563854
-563900
-564061
-564150
-564326
-564412
-564555
-564672
-564849
-564893
-565165
-565173
-565391
-565560
-565615
-565734
-565953
-566020
-566085
-566165
-566291
-566425
-566580
-566602
-566723
-566790
-566904
-566980
-567128
-567209
-567254
-567238
-567402
-567358
-567440
-567545
-567701
-567697
-567699
-567662
-567762
-567807
-567874
-567841
-567763
-567759
-567729
-567748
-567793
-567783
-567683
-567708
-567767
-567688
-567708
-567558
-567675
-567615
-567602
-567522
-567493
-567477
-567436
-567413
-567424
-567387
-567317
-567290
-567227
-567077
-567039
-567074
-567056
-567009
-566997
-566929
-566927
-566827
-566939
-566931
-566915
-566702
-566831
-566933
-566913
-567009
-566967
-567123
-567217
-567261
-567400
-567503
-567553
-567665
-567750
-567725
-567820
-567939
-568066
-568120
-568218
-568212
-568368
-568410
-568450
-568553
-568607
-568808
-568598
-568817
-568876
-568960
-569049
-569140
-569093
-569217
-569228
-569270
-569409
-569439
-569474
-569536
-569568
-569688
-569605
-569718
-569823
-569933
-569966
-569891
-570000
-570056
-570095
-570122
-570088
-570115
-570105
-570201
-570259
-570349
-570343
-570430
-570391
-570413
-570437
-570510
-570613
-570664
-570765
-570827
-570863
-570916
-571043
-571139
-571105
-571220
-571199
-571299
-571413
-571430
-571376
-571414
-571466
-571504
-571527
-571545
-571629
-571682
-571689
-571721
-571690
-571716
-571852
-571842
-571887
-571894
-571963
-572071
-572062
-572028
-572045
-572132
-572264
-572384
-572439
-572449
-572646
-572772
-572891
-572865
-572963
-573092
-573125
-573262
-573369
-573403
-573440
-573563
-573558
-573641
-573651
-574308
-574059
-573983
-573902
-573928
-574068
-574099
-574231
-574206
-574232
-574264
-574398
-574467
-574522
-574579
-574691
-574804
-574866
-574827
-574986
-575085
-575221
-575211
-575341
-575418
-575466
-575563
-575695
-575752
-575637
-575765
-575997
-576045
-576093
-576279
-576374
-576423
-576412
-576445
-576556
-576635
-576761
-576841
-576788
-576922
-577015
-577038
-577008
-577105
-577148
-577230
-577193
-577209
-577248
-577349
-577330
-577434
-577492
-577489
-577578
-577563
-577595
-577709
-577691
-577693
-577714
-577773
-577842
-577870
-577981
-578006
-578027
-577997
-578068
-578219
-578200
-578346
-578338
-578419
-578427
-578371
-578438
-578559
-578558
-578968
-578769
-578698
-578768
-578816
-578894
-578942
-578919
-579038
-579010
-579146
-579197
-579144
-579157
-579109
-579258
-579262
-579292
-579279
-579366
-579446
-579460
-579477
-579852
-579640
-579637
-579743
-579831
-579913
-579922
-580057
-580107
-580149
-580190
-580212
-580354
-580849
-580684
-580620
-580699
-580757
-580913
-580940
-581035
-581090
-581188
-581598
-581413
-581492
-581442
-581719
-582094
-581892
-581942
-581956
-582091
-582142
-582257
-582283
-582306
-582421
-582330
-582458
-582590
-582650
-582710
-582811
-582824
-582735
-582818
-582846
-582886
-582777
-582675
-582654
-582479
-582294
-582089
-581871
-581610
-581356
-581013
-580683
-580171
-579796
-579530
-579087
-578600
-578160
-577742
-577311
-576897
-576364
-575901
-575442
-575084
-574606
-574131
-573730
-573273
-572954
-572634
-572273
-571835
-571465
-571087
-570817
-570431
-570194
-569844
-569612
-569351
-569077
-568902
-568694
-568582
-568311
-568281
-568101
-567985
-567840
-567802
-567750
-567695
-567574
-567631
-567582
-567552
-567587
-567561
-567603
-567693
-567643
-567665
-567696
-567802
-567811
-567888
-567865
-567993
-568058
-568209
-568243
-568293
-568336
-568395
-568576
-568609
-568655
-568758
-568836
-568951
-569007
-569073
-569105
-569224
-569359
-569463
-569552
-569551
-569651
-569697
-569706
-569775
-569841
-569827
-569926
-569904
-569859
-569730
-569926
-569939
-569969
-569997
-570029
-570015
-570124
-570217
-570132
-570283
-570171
-570382
-570456
-570451
-570556
-570704
-570820
-570883
-570985
-571035
-571084
-571257
-571355
-571395
-571506
-571674
-571778
-571929
-572033
-572103
-572284
-572429
-572450
-572635
-572706
-572866
-573005
-573045
-573067
-573131
-573206
-573321
-573339
-573389
-573456
-573464
-573450
-573619
-573685
-573558
-573695
-573730
-573700
-573741
-573777
-573799
-573887
-573907
-573922
-573848
-573868
-573898
-573923
-573961
-573990
-573934
-574027
-573965
-574000
-573997
-574041
-573988
-574026
-574013
-574022
-574021
-574028
-573966
-573988
-574017
-573993
-573969
-574081
-573980
-574006
-574008
-573966
-573973
-573972
-574022
-573978
-573907
-573885
-573962
-574000
-573993
-573952
-573994
-574084
-574108
-574160
-574195
-574187
-574177
-574264
-574287
-574342
-574372
-574421
-574531
-574579
-574531
-574611
-574709
-575135
-574994
-575011
-575059
-575152
-575233
-575354
-575355
-575396
-575493
-575590
-575576
-575649
-575736
-575821
-575934
-575814
-575963
-576059
-576142
-576194
-576262
-576291
-576390
-576556
-576627
-576642
-576687
-576815
-576839
-576991
-577036
-577064
-577122
-577233
-577251
-577288
-577344
-577390
-577537
-577587
-577727
-577717
-577714
-577791
-577841
-577958
-577989
-577964
-578057
-578081
-578072
-578115
-578201
-578269
-578350
-578289
-578329
-578377
-578479
-578477
-578555
-578578
-578640
-578688
-578725
-578668
-578801
-578790
-578969
-579053
-579064
-579038
-579196
-579274
-579365
-579173
-579330
-579204
-579368
-579394
-579487
-579256
-579497
-579583
-579666
-579778
-579797
-579791
-579820
-579852
-579911
-579945
-580060
-580129
-580200
-580237
-580221
-580292
-580343
-580369
-580350
-580323
-580363
-580430
-580438
-580528
-580487
-580542
-580634
-580982
-580712
-580621
-580713
-580796
-580777
-581176
-580843
-580910
-580883
-581027
-581013
-581004
-580975
-581236
-581253
-581411
-581487
-581551
-581732
-581786
-581879
-581970
-582028
-582131
-582279
-582343
-582405
-582442
-582643
-582771
-582716
-582866
-582852
-582997
-583113
-583156
-583142
-583290
-583402
-583450
-583415
-583532
-583547
-583571
-583616
-583640
-583764
-583823
-583873
-584045
-584123
-584089
-584228
-584288
-584359
-584460
-584512
-584595
-584609
-584706
-584858
-584885
-584855
-584939
-585056
-584922
-585050
-585146
-585248
-585378
-585357
-585416
-585468
-585606
-585586
-585620
-585627
-585657
-585663
-585659
-585650
-585799
-585969
-585981
-585938
-585964
-586055
-586080
-586175
-586286
-586353
-586365
-586516
-586582
-586648
-586652
-586715
-586847
-586889
-586962
-586970
-587023
-587121
-587278
-587282
-587265
-587343
-587486
-587521
-587543
-587545
-587613
-587786
-587877
-587818
-587872
-587934
-588054
-588110
-588144
-588169
-588207
-588233
-588287
-588414
-588439
-588471
-588523
-588514
-588609
-588684
-588754
-588804
-588862
-588898
-588900
-588846
-588966
-589052
-589168
-589176
-589448
-589370
-589404
-589469
-589461
-589484
-589637
-589592
-589612
-589720
-589788
-589821
-589853
-589840
-589896
-589988
-590167
-590143
-590120
-590170
-590268
-590302
-590369
-590473
-590426
-590599
-590623
-590656
-590669
-590798
-590938
-591037
-591145
-591212
-591307
-591318
-591464
-591532
-591547
-591685
-591772
-591840
-591925
-591942
-591966
-591986
-592105
-592209
-592206
-592183
-592214
-592245
-592237
-592257
-592179
-592214
-592045
-592001
-591769
-591551
-591426
-591167
-590868
-590578
-590355
-589840
-589612
-589325
-588910
-588415
-587992
-587792
-587888
-587057
-586587
-586214
-585790
-585344
-584926
-584557
-584183
-583939
-583598
-583206
-582879
-582622
-582365
-582107
-581759
-581534
-581429
-581103
-580903
-580713
-580529
-580368
-580249
-580134
-579929
-579848
-579771
-579679
-579571
-579522
-579463
-579410
-579408
-579346
-579417
-579423
-579408
-579468
-579449
-579561
-579550
-579715
-579808
-579809
-579887
-579909
-579986
-580145
-580207
-580313
-580346
-580453
-580527
-580578
-580629
-580657
-580794
-580893
-580902
-580901
-581088
-581136
-581238
-581227
-581260
-581336
-581451
-581330
-581566
-581630
-581679
-581774
-581784
-581939
-581995
-581967
-582157
-582255
-582282
-582306
-582394
-582481
-582601
-582715
-583065
-582916
-582880
-582925
-583004
-583054
-583171
-583285
-583344
-583416
-583513
-583636
-583745
-583817
-584017
-584052
-584152
-584285
-584383
-584408
-584477
-584592
-584637
-584753
-584778
-584907
-584937
-584970
-585071
-585153
-585127
-585269
-585301
-585434
-585451
-585390
-585511
-585485
-585620
-585579
-585600
-585642
-585795
-585775
-585730
-585738
-585826
-585851
-585873
-585816
-585814
-585831
-585819
-585848
-585827
-585807
-585726
-585751
-585752
-585623
-585649
-585637
-585642
-585605
-585522
-585440
-585420
-585431
-585366
-585312
-585197
-585205
-585275
-585159
-585109
-585101
-585103
-585142
-585164
-585126
-585000
-585069
-585153
-585136
-585152
-585007
-585087
-585196
-585264
-585219
-585206
-585232
-585286
-585262
-585320
-585286
-585283
-585347
-585427
-585405
-585450
-585541
-585469
-585602
-585598
-585545
-585634
-585650
-585689
-585767
-585747
-585850
-585923
-585926
-586025
-585985
-586100
-586122
-586194
-586080
-586142
-586195
-586275
-586187
-586195
-586277
-586236
-586391
-586379
-586417
-586388
-586425
-586512
-586554
-586458
-586473
-586555
-586588
-586715
-586663
-586767
-586809
-586802
-586867
-586925
-586924
-586995
-587118
-587059
-587045
-587024
-587123
-587142
-587080
-587110
-587157
-587155
-587111
-587190
-587205
-587260
-587362
-587385
-587445
-587447
-587564
-587709
-587680
-587864
-587804
-587888
-588027
-588050
-588134
-588264
-588205
-588361
-588381
-588347
-588374
-588361
-588342
-588376
-588375
-588337
-588297
-588363
-588422
-588400
-588442
-588492
-588544
-588577
-588767
-588849
-588913
-589001
-589086
-589228
-589214
-589273
-589292
-589293
-589321
-589365
-589308
-589287
-589319
-589230
-589102
-589136
-589108
-589079
-589072
-589092
-589021
-589045
-589065
-589087
-589135
-589065
-589075
-589249
-589305
-589285
-589297
-589446
-589509
-589552
-589492
-589652
-589706
-589716
-589755
-589736
-589771
-589853
-589754
-589807
-589887
-589892
-589878
-589876
-589922
-589886
-589896
-589956
-590056
-590062
-590194
-590240
-590348
-590421
-590420
-590452
-590518
-590589
-590748
-590765
-590527
-590913
-591075
-591303
-591202
-591244
-591277
-591221
-591342
-591302
-591326
-591388
-591319
-591702
-591513
-591429
-591454
-591579
-591601
-591686
-591702
-591834
-591854
-591937
-592004
-592161
-592249
-592484
-592513
-592659
-592704
-592794
-592934
-592980
-593011
-593103
-593226
-593285
-593372
-593435
-593456
-593529
-593594
-593561
-593626
-593731
-593702
-593789
-593811
-593841
-593906
-593899
-593888
-593880
-593951
-593930
-593948
-593984
-594033
-593998
-593959
-593994
-593798
-593749
-593548
-593371
-593194
-592905
-592574
-592327
-592125
-591844
-591449
-591013
-590718
-590360
-590034
-589785
-589353
-589142
-588886
-588564
-588261
-587965
-587771
-587541
-587316
-587152
-586905
-586635
-586419
-586225
-585922
-585653
-585417
-585240
-585011
-584855
-584601
-584410
-584078
-584144
-583959
-583903
-583849
-583800
-583785
-583751
-583769
-583761
-583737
-583868
-583811
-583930
-584011
-584058
-584124
-584128
-584195
-584196
-584217
-584332
-584344
-584445
-584588
-584601
-584684
-584754
-584827
-584932
-585036
-585114
-585155
-585215
-585544
-585449
-585513
-585507
-585587
-585697
-585790
-585829
-585926
-585933
-585984
-586055
-586136
-586259
-586400
-586375
-586492
-586630
-586801
-586851
-586953
-587082
-587156
-587249
-587315
-587365
-587430
-587603
-587625
-587633
-587641
-587756
-587843
-587936
-588074
-588084
-588238
-588418
-588487
-588564
-588606
-588768
-588831
-588951
-589114
-589161
-589248
-589377
-589614
-589637
-589757
-589875
-590068
-590092
-590256
-590257
-590409
-590553
-590650
-590708
-590765
-590848
-590925
-591015
-590999
-591021
-591089
-591155
-591284
-591331
-591472
-591511
-591492
-591543
-591622
-591725
-591781
-591795
-591834
-591827
-591920
-591956
-592060
-592057
-592069
-592055
-592173
-592226
-592262
-592254
-592299
-592382
-592331
-592328
-592384
-592497
-592525
-592447
-592558
-592621
-592587
-592634
-592695
-592706
-592726
-592842
-592887
-592973
-593038
-593107
-593254
-593375
-593444
-593485
-593533
-593639
-593875
-593911
-594035
-594105
-594238
-594440
-594492
-594584
-594666
-594804
-594896
-594980
-595101
-595237
-595307
-595646
-595779
-596002
-596192
-596455
-596711
-596928
-597093
-597212
-597417
-597688
-597898
-597953
-598127
-598333
-598615
-598749
-598937
-599200
-599358
-599510
-599708
-599789
-599921
-600197
-600453
-600582
-600768
-600855
-601074
-601195
-601337
-601466
-601601
-601853
-602010
-602201
-602296
-602494
-602679
-602804
-602942
-603116
-603113
-603369
-603514
-603517
-603777
-603883
-603982
-604135
-604286
-604357
-604607
-604776
-604942
-605058
-605123
-605254
-605475
-605711
-605814
-606002
-606136
-606301
-606526
-606695
-606906
-607057
-607289
-607595
-607727
-607898
-608054
-608327
-608428
-608664
-608833
-608941
-609111
-609418
-609541
-609705
-609796
-610038
-610231
-610453
-610606
-610775
-610933
-611141
-611308
-611454
-611679
-611794
-612007
-612202
-612469
-612666
-612899
-613172
-613453
-613547
-613713
-613865
-614110
-614307
-614493
-614630
-614947
-615141
-615370
-615438
-615629
-616135
-616492
-616857
-617102
-617391
-617674
-617891
-618126
-618233
-618495
-618718
-618944
-619190
-619460
-619636
-619883
-620138
-620368
-620628
-620965
-621235
-621442
-621639
-621789
-621898
-622213
-622459
-622707
-622838
-623074
-623253
-623410
-623614
-623783
-623927
-624116
-624205
-624430
-624543
-624707
-624825
-624965
-625086
-625225
-625179
-625478
-625588
-625736
-625737
-625923
-626070
-626336
-626364
-626586
-626776
-626963
-627236
-627451
-627572
-627783
-628109
-628339
-628604
-628715
-629061
-629335
-629601
-629886
-630073
-630353
-630673
-630896
-631134
-631370
-631744
-632003
-632311
-632610
-632729
-633033
-633354
-633584
-633781
-634068
-634211
-634482
-634762
-635009
-635241
-635552
-635845
-636113
-636229
-636376
-636659
-636960
-637161
-637441
-637574
-637875
-638081
-638288
-638481
-638510
-638663
-638749
-638858
-638915
-639326
-639147
-639011
-638978
-638890
-638856
-638758
-638661
-638589
-638401
-638231
-638173
-638156
-637815
-637687
-637643
-637612
-637553
-637532
-637450
-637337
-637004
-637124
-637111
-637029
-636763
-636744
-636694
-636688
-636441
-636316
-636193
-636183
-636039
-635966
-635854
-635785
-635721
-635839
-635766
-635784
-635795
-636017
-636121
-636246
-636444
-636562
-636756
-637048
-637268
-637465
-637710
-637889
-638168
-638435
-638577
-638830
-639153
-639449
-639764
-639989
-640162
-640355
-640507
-640526
-640792
-640946
-641166
-641345
-641443
-641728
-641864
-642027
-642260
-642393
-642583
-642805
-642987
-643103
-643281
-643446
-643693
-643864
-644079
-644340
-644460
-644716
-644905
-644919
-645128
-645332
-645457
-645529
-645670
-645788
-645742
-645804
-645936
-645914
-645938
-645872
-645856
-645877
-646027
-645906
-645853
-645532
-645537
-645632
-645588
-645696
-645861
-646025
-646091
-646179
-646396
-646483
-646554
-646803
-646960
-647185
-647360
-647633
-647814
-648075
-648295
-648546
-648803
-648970
-649120
-649343
-649477
-649643
-649854
-649883
-650048
-650184
-650348
-650504
-650632
-650702
-650763
-650844
-650979
-651412
-651366
-651511
-651668
-651919
-652061
-652207
-652362
-652543
-652760
-652898
-653084
-653227
-653433
-653562
-653618
-653699
-653710
-653766
-653809
-653624
-653599
-653369
-653208
-653061
-652840
-652694
-652425
-652251
-652098
-651875
-651625
-651488
-651293
-650980
-650946
-650793
-650581
-650478
-650439
-650221
-650172
-650005
-650035
-650158
-650107
-650065
-650060
-650111
-650158
-650286
-650413
-650572
-650721
-650766
-650833
-650911
-651176
-651424
-651678
-651826
-651983
-652248
-652548
-652853
-653172
-653413
-653575
-653671
-653891
-654178
-654246
-654232
-654236
-654343
-654167
-654085
-654003
-653909
-653783
-653594
-653480
-653404
-653399
-653239
-653178
-653098
-653005
-652979
-652944
-652870
-652643
-652708
-652727
-652700
-652698
-652749
-652786
-652856
-652914
-652916
-653021
-653104
-653211
-653316
-653559
-653854
-653898
-654063
-654425
-654863
-654893
-655149
-655404
-655661
-655972
-656213
-656388
-656565
-656823
-657101
-657089
-657421
-657730
-657984
-658110
-658265
-658403
-658568
-658758
-658866
-658939
-659029
-659101
-659165
-659116
-659032
-659009
-658912
-658720
-658602
-658413
-658148
-657987
-657791
-657617
-657444
-657352
-657180
-657099
-657134
-657065
-657044
-657598
-657410
-657325
-657377
-657990
-657806
-657955
-658008
-658135
-658409
-658599
-658788
-658984
-659205
-659494
-659626
-659906
-660091
-660185
-660458
-660662
-660919
-661040
-661084
-661213
-661321
-661365
-661461
-661558
-661565
-661539
-661571
-661481
-661349
-661328
-661094
-661132
-661032
-660887
-660758
-660619
-660565
-660341
-660217
-660075
-659957
-659801
-659716
-659576
-659496
-659524
-659544
-659445
-659358
-659424
-659401
-659531
-659504
-659531
-659612
-659718
-659816
-659808
-659817
-659904
-660077
-660185
-660279
-660316
-660530
-660719
-660930
-661047
-661135
-661231
-661412
-661567
-661468
-661620
-661565
-661494
-661661
-661615
-661568
-661447
-661340
-661297
-661207
-661141
-661056
-661069
-660953
-660869
-660763
-660619
-660449
-660295
-660140
-659892
-659668
-659395
-659152
-658834
-658486
-658087
-657836
-657259
-656929
-656437
-656031
-655587
-655148
-654753
-654674
-654002
-653432
-652916
-652540
-651931
-651486
-651152
-650630
-650204
-649750
-649439
-649052
-648643
-648352
-647902
-647543
-647212
-646987
-646647
-646303
-646072
-645824
-645608
-645297
-645041
-644881
-644713
-644429
-644178
-644107
-643901
-643788
-643646
-643501
-643404
-643231
-643237
-643197
-643168
-643112
-643160
-643206
-643213
-643200
-643261
-643376
-643415
-643582
-643625
-643775
-643880
-643978
-644136
-644255
-644297
-644437
-644616
-644707
-644710
-644847
-644982
-645021
-645668
-645425
-645407
-645469
-645529
-645740
-645960
-646018
-646064
-646332
-646407
-646597
-646783
-646969
-647172
-647308
-647522
-647612
-647729
-647941
-648008
-648140
-648282
-648323
-648572
-648685
-648733
-648729
-648819
-648905
-648892
-648962
-648963
-649018
-649106
-649319
-649428
-649476
-649690
-649903
-650146
-650248
-650478
-650753
-650956
-651221
-651498
-651659
-652304
-652282
-652321
-652528
-652674
-652879
-653204
-653314
-653525
-653698
-653925
-654191
-654351
-654537
-654686
-654851
-655004
-655174
-655242
-655434
-655365
-655521
-655704
-655725
-655703
-655774
-655825
-655903
-655918
-655938
-655914
-655890
-655943
-655965
-655901
-655928
-655953
-655928
-656014
-655899
-655953
-655975
-655941
-656102
-656112
-656078
-656238
-656348
-656349
-656390
-656439
-656462
-656375
-656389
-656413
-656412
-656407
-656420
-656375
-656413
-656390
-656389
-656421
-656316
-656347
-656270
-656313
-656322
-656278
-656249
-656292
-656255
-656145
-656221
-656219
-656307
-656264
-656247
-656223
-656207
-656232
-656145
-656207
-656176
-656313
-656312
-656369
-656408
-656491
-656533
-656569
-656619
-656558
-656398
-656627
-656776
-656832
-656790
-656859
-656870
-656984
-656967
-657114
-657241
-657460
-657602
-657711
-657722
-657740
-657885
-658011
-658100
-658180
-658326
-658425
-658571
-658637
-658687
-658734
-658849
-658860
-659030
-659084
-659102
-659271
-659423
-659534
-659580
-659638
-659757
-659909
-659982
-660158
-660137
-660173
-660323
-660549
-660560
-660550
-660639
-660708
-660732
-660797
-660754
-660756
-660821
-660911
-660972
-661049
-661234
-661314
-661377
-661533
-661664
-661765
-661881
-662077
-662284
-662372
-662559
-662786
-662921
-663186
-663262
-663472
-663699
-663973
-664076
-663927
-664240
-664391
-664562
-664781
-664850
-665018
-665115
-665257
-665343
-665411
-665529
-665629
-665680
-665824
-665889
-665874
-666031
-666183
-666202
-666335
-666439
-666621
-666704
-666771
-666969
-667035
-667158
-667233
-667258
-667365
-667416
-667534
-667662
-667713
-667696
-667778
-667873
-668062
-668052
-668191
-668301
-668484
-668543
-668713
-668767
-668877
-669090
-669299
-669424
-669782
-669896
-670175
-670394
-670595
-670769
-670967
-671214
-671375
-671610
-671771
-671870
-672026
-672205
-672274
-672357
-672421
-672453
-672540
-672444
-672484
-672558
-672625
-672555
-672578
-672621
-672566
-672557
-672442
-672355
-672246
-672229
-672006
-671884
-671665
-671331
-671134
-670780
-670459
-669962
-669660
-669257
-668869
-668495
-668102
-667662
-667369
-666941
-666561
-666135
-666147
-665467
-665073
-664580
-664195
-663786
-663413
-663032
-662792
-662457
-662179
-661778
-661450
-661052
-660800
-660518
-660204
-659767
-660008
-659534
-659134
-658985
-658836
-658573
-658403
-658203
-658537
-658138
-657883
-657773
-657643
-657615
-657473
-657494
-657418
-657354
-657244
-657219
-657180
-657090
-657052
-657093
-657135
-656948
-657033
-657072
-657184
-657201
-657274
-657310
-657338
-657484
-657561
-657515
-657636
-657719
-657804
-658242
-657988
-658431
-658156
-658194
-658209
-658263
-658296
-658307
-658477
-658539
-658508
-658520
-658706
-658838
-658855
-658929
-658944
-659026
-659228
-659325
-659450
-659462
-659623
-659695
-659779
-659743
-659861
-659951
-660157
-660267
-660265
-660302
-660417
-660497
-660574
-660643
-660755
-660886
-660945
-661193
-661260
-661245
-661379
-661585
-661708
-661654
-661851
-662025
-662238
-662447
-662560
-662661
-662987
-663238
-663339
-663452
-663584
-663817
-663966
-664166
-664157
-664363
-664503
-664694
-664809
-665172
-665038
-665110
-665181
-665343
-665221
-665374
-665439
-665575
-665689
-665611
-665671
-665644
-665614
-665657
-665660
-665565
-665505
-665510
-665515
-665514
-665456
-665515
-665668
-665671
-665667
-665698
-665824
-665902
-665967
-666051
-666198
-666218
-666358
-666325
-666462
-666522
-666580
-666635
-666646
-666685
-666629
-666745
-666755
-666833
-666786
-666789
-666812
-666838
-666857
-666746
-666738
-666674
-666815
-666772
-666865
-666867
-666857
-666940
-667397
-666789
-666819
-666833
-666799
-666864
-666792
-666679
-666735
-666842
-666860
-666883
-666885
-666983
-667035
-667090
-667093
-667063
-667171
-667283
-667754
-667454
-667394
-667426
-667402
-667561
-667630
-667649
-667821
-667918
-668074
-668072
-668203
-668310
-668612
-668649
-668832
-669017
-669211
-669435
-669595
-669746
-669908
-670195
-670353
-670617
-670737
-670789
-671027
-671208
-671211
-671328
-671451
-671490
-671751
-671892
-671809
-671864
-672011
-672172
-672213
-672309
-672379
-672490
-672570
-672640
-672720
-672817
-672809
-672964
-673143
-673128
-673256
-673357
-673424
-673623
-673698
-673781
-673937
-674071
-674078
-674275
-674366
-674514
-674620
-674782
-674798
-674886
-674972
-675030
-675149
-675169
-675284
-675369
-675463
-675464
-675491
-675529
-675583
-675643
-675627
-675592
-675840
-675723
-675830
-675838
-675847
-675854
-675972
-676051
-676681
-676278
-676200
-676110
-676155
-676080
-676087
-676062
-676113
-676099
-676442
-676057
-675945
-675898
-675804
-675860
-675783
-675717
-675721
-675744
-675777
-675678
-675634
-675428
-675686
-675746
-675728
-675821
-675855
-675886
-675951
-675984
-676039
-676182
-676242
-676320
-676351
-676456
-676542
-676693
-676773
-676878
-677028
-677212
-677401
-677548
-677560
-677734
-677817
-678582
-678252
-678112
-678137
-678296
-678310
-678408
-678503
-678589
-678637
-678681
-678688
-678630
-678585
-678664
-678606
-678548
-678499
-678340
-678223
-677989
-677798
-677511
-677334
-676888
-676652
-676380
-676082
-675617
-675268
-674883
-674465
-673943
-673323
-672899
-672389
-671880
-671282
-670732
-670290
-669739
-669181
-668670
-668061
-667666
-667192
-666654
-666120
-665659
-665322
-664868
-664513
-664094
-663757
-663530
-663351
-663141
-662863
-662720
-662513
-662425
-662339
-662200
-662168
-662157
-661990
-661911
-661915
-661834
-661754
-661641
-661629
-661697
-661680
-661928
-661722
-661678
-661599
-661517
-661456
-661345
-661305
-661143
-661078
-661088
-661060
-660927
-660852
-660687
-660653
-660599
-660558
-660446
-660321
-659983
-659833
-659676
-659523
-659179
-658978
-658874
-658629
-658350
-658196
-657981
-657806
-657531
-657351
-656996
-656817
-656540
-656253
-655794
-655501
-655223
-654860
-654556
-654163
-653756
-653329
-653001
-652643
-652312
-651842
-651654
-651259
-651107
-650820
-650742
-650624
-650729
-650763
-650866
-650936
-651101
-651131
-651181
-651145
-651229
-651250
-651263
-651178
-651229
-651203
-651260
-651339
-651355
-651386
-651351
-651526
-651576
-651754
-651887
-651959
-652526
-652290
-652307
-652363
-652579
-652934
-652987
-652611
-652164
-651795
-651603
-651402
-651413
-651408
-651253
-650923
-650347
-649759
-649160
-648957
-648985
-648995
-649137
-648953
-648613
-648311
-648234
-648359
-648500
-648601
-648816
-648777
-648632
-648454
-648428
-648420
-648525
-648688
-648896
-648899
-649014
-648933
-648911
-649008
-649147
-649455
-649764
-649778
-649869
-649925
-650062
-650180
-650294
-650448
-650676
-650734
-650756
-650935
-650914
-650937
-650978
-651161
-651278
-651400
-651385
-651512
-651486
-651689
-651683
-651741
-651893
-651972
-651993
-651980
-651933
-651917
-652007
-652018
-652022
-651727
-651720
-651874
-652156
-652412
-652849
-653309
-653830
-654327
-654774
-655165
-655424
-655636
-655804
-655778
-655972
-656266
-656387
-656466
-656453
-656635
-656781
-656764
-656966
-657105
-657296
-657369
-657492
-657583
-657822
-658006
-658225
-658428
-658717
-658908
-659110
-659378
-659553
-659807
-660040
-660279
-660606
-660807
-661033
-661254
-661497
-661753
-662186
-662487
-662704
-662931
-663129
-663326
-663379
-663396
-663574
-663692
-663861
-663785
-663809
-663748
-663754
-663700
-663708
-663759
-663864
-664064
-664263
-664445
-664562
-664810
-665016
-665198
-665297
-665422
-665549
-665752
-665906
-666137
-666324
-666655
-666824
-667115
-667374
-667593
-667854
-668136
-668340
-668488
-668747
-668908
-669239
-669373
-669617
-669778
-670070
-670458
-670619
-671009
-671329
-671621
-672041
-672446
-672880
-673327
-673704
-674179
-674658
-674890
-675313
-675666
-675987
-676306
-676678
-677060
-677348
-677773
-677983
-678337
-678594
-678893
-679136
-679403
-679668
-679937
-680222
-680414
-680749
-680844
-680998
-681532
-681536
-681674
-681848
-682065
-682224
-682234
-682491
-682621
-682627
-682651
-682763
-682777
-682677
-682608
-682664
-682604
-682648
-682503
-682300
-682156
-682051
-681968
-681836
-681804
-681783
-681720
-681552
-681566
-681541
-681213
-681395
-681558
-681440
-681337
-681460
-681529
-681507
-681644
-681703
-681847
-681938
-681940
-682074
-682151
-682359
-682412
-682515
-682647
-682738
-682847
-683013
-683002
-683107
-683246
-683429
-683533
-683639
-683736
-683908
-684096
-684201
-684322
-684484
-684668
-685223
-685219
-685207
-685568
-685891
-686316
-686584
-686995
-687243
-687526
-687978
-688336
-688543
-688939
-689185
-689571
-689735
-690080
-690225
-690280
-690507
-690575
-690661
-690686
-690833
-690954
-690915
-690737
-690783
-690725
-690710
-690667
-690482
-690355
-690158
-689986
-689723
-689266
-688962
-688733
-688508
-688379
-688175
-687942
-687869
-687838
-687631
-687606
-687467
-687339
-687262
-687203
-687134
-687005
-686914
-686756
-686748
-686704
-686629
-686547
-686631
-686560
-686550
-686522
-686580
-686519
-686598
-686507
-686476
-686610
-686449
-686539
-686549
-686478
-686472
-686412
-686468
-686472
-686544
-686522
-686573
-686613
-686643
-686602
-687051
-686837
-686712
-686774
-686697
-686719
-686853
-686894
-686895
-686916
-686902
-687001
-687006
-687048
-687108
-687123
-687220
-687266
-687304
-687350
-687292
-687324
-687421
-687403
-687387
-687386
-687554
-687568
-687638
-687774
-687842
-687997
-688141
-687940
-688133
-688339
-688346
-688339
-688225
-688177
-688193
-688290
-688357
-688358
-688432
-688471
-688509
-688563
-688714
-688750
-688834
-688837
-688835
-688841
-688824
-688855
-688864
-688833
-688839
-688904
-688895
-688813
-688853
-688771
-688858
-688909
-689024
-689196
-689176
-689206
-689261
-689379
-689455
-689404
-689463
-689513
-689639
-689601
-689616
-689504
-689457
-689470
-689453
-689445
-689500
-689523
-689400
-689462
-689502
-689440
-689513
-689533
-689678
-689706
-689737
-689640
-689547
-689634
-689649
-689601
-689585
-689569
-689606
-689573
-689605
-689549
-689576
-689693
-689729
-689833
-689916
-690052
-690003
-689963
-690000
-689944
-689888
-689832
-689810
-689681
-689611
-689338
-689397
-689290
-689155
-689061
-689021
-688943
-688664
-688649
-688457
-688407
-688305
-688135
-688115
-688190
-688144
-688210
-688242
-688282
-688440
-688698
-688775
-688906
-688959
-689100
-689241
-689270
-689517
-689595
-689808
-689792
-689877
-689928
-690045
-690144
-690185
-690265
-690209
-690234
-690111
-690225
-690183
-690150
-689964
-689782
-689675
-689514
-689326
-689012
-688789
-688613
-688542
-688256
-688126
-687949
-687868
-687755
-687673
-687612
-687611
-687648
-687774
-687832
-687956
-688103
-688289
-688361
-688543
-688665
-688852
-689004
-689218
-689387
-689514
-689692
-689974
-689857
-690018
-690122
-690273
-690400
-690397
-690328
-690334
-690469
-690331
-690424
-690342
-690413
-690383
-690413
-690474
-690422
-690409
-690474
-690545
-690642
-690601
-690685
-690828
-690965
-691121
-691109
-691253
-691483
-691578
-691776
-691885
-691989
-692170
-692348
-692502
-692575
-692700
-692758
-692858
-692956
-692969
-693052
-693080
-693141
-693216
-693134
-693142
-693133
-693233
-693215
-693150
-693135
-693126
-693181
-693102
-693046
-692961
-692972
-692885
-692939
-692826
-692860
-692795
-692794
-692801
-692648
-692621
-692554
-692530
-692483
-692417
-692310
-692314
-692244
-692223
-692024
-691965
-692003
-692061
-692038
-691949
-691996
-692332
-692115
-692146
-692211
-692221
-692288
-692413
-692543
-692656
-692788
-692862
-693051
-693153
-693079
-693314
-693410
-693636
-693818
-693893
-693915
-693829
-694143
-694250
-694325
-694379
-694401
-694547
-694608
-694430
-694521
-694582
-694707
-694610
-694566
-694421
-694356
-694299
-694090
-693680
-693609
-693505
-693196
-692981
-692703
-692346
-692018
-691648
-691670
-690935
-690446
-690004
-689539
-689252
-688648
-688257
-687797
-687377
-686931
-686505
-686101
-685642
-685369
-684885
-684475
-684047
-683707
-683308
-682967
-682624
-682312
-681922
-681712
-681444
-681153
-680987
-680703
-680513
-680428
-680175
-680188
-679817
-679647
-679612
-679256
-679246
-679318
-679272
-679202
-679152
-679155
-679161
-679193
-679194
-679276
-679379
-679512
-679614
-679663
-679770
-679914
-680150
-680196
-680287
-680382
-680535
-680796
-680832
-680998
-681169
-681222
-681326
-681435
-681575
-681634
-681832
-681972
-681932
-682033
-682049
-682154
-682256
-682265
-682343
-682407
-682420
-682593
-682676
-682733
-682709
-682816
-682866
-683065
-683086
-683184
-683192
-683278
-683423
-683494
-683610
-683853
-683968
-684160
-684357
-684474
-684613
-684868
-685048
-685220
-685448
-685678
-685806
-686036
-686292
-686563
-686735
-686907
-687141
-687336
-687472
-687722
-687869
-688030
-688144
-688259
-688421
-688538
-688635
-688722
-688899
-688905
-689208
-689461
-689572
-689642
-689907
-690048
-690210
-690432
-690560
-690674
-690923
-690994
-691046
-691220
-691299
-691509
-691554
-691617
-691683
-691761
-691734
-691774
-691766
-691864
-691931
-691909
-691957
-691936
-691851
-691853
-691896
-691826
-691825
-691686
-691724
-691698
-691667
-691660
-691622
-691656
-691719
-691652
-691643
-691622
-691682
-691689
-691702
-691660
-691696
-691738
-691757
-691739
-691973
-692092
-692134
-692248
-692353
-692424
-692419
-692606
-692715
-692831
-693018
-692960
-693088
-693192
-693382
-693432
-693467
-693696
-693647
-693675
-693766
-693724
-693808
-693922
-694051
-694097
-694041
-694122
-694200
-694331
-694280
-694257
-694299
-694435
-694485
-694453
-694576
-694522
-694639
-694739
-694676
-694699
-694798
-694894
-694857
-694875
-694795
-694811
-694894
-694874
-694849
-694896
-694856
-694883
-694950
-694962
-695099
-695075
-695144
-695255
-695256
-695416
-695503
-695763
-695825
-695936
-696259
-696208
-696069
-696367
-696531
-696633
-696769
-696802
-696942
-696996
-697149
-697205
-697267
-697417
-697517
-697530
-697636
-697717
-697803
-697809
-697884
-697823
-697737
-697888
-697875
-697882
-697908
-697895
-697897
-698346
-698092
-697887
-697961
-698005
-697950
-697892
-698044
-698114
-698005
-698092
-698090
-698161
-698306
-698352
-698388
-698358
-698437
-698492
-698680
-698681
-698729
-698856
-698932
-699020
-699107
-699129
-699371
-699313
-699412
-699632
-699636
-699737
-699842
-700028
-700160
-700220
-700265
-700421
-700559
-700881
-700826
-700889
-701079
-701192
-701304
-701226
-701317
-701442
-701610
-701546
-701704
-701758
-702019
-702002
-702150
-702212
-702303
-702412
-702502
-702575
-702643
-702775
-702993
-703086
-703224
-703290
-703526
-703590
-703671
-703814
-703953
-704084
-704257
-704457
-704587
-704657
-704784
-704941
-705019
-705141
-705191
-705312
-705469
-705600
-705636
-705599
-705665
-705802
-705873
-705839
-705850
-705920
-705842
-705889
-705656
-705614
-705596
-705429
-705334
-705060
-704808
-704603
-704408
-704211
-703747
-703401
-702916
-702710
-702323
-701837
-701474
-701173
-700705
-700271
-699839
-699503
-698921
-698576
-698216
-697691
-697168
-696761
-696408
-696011
-695484
-694865
-694584
-694339
-693932
-693507
-693268
-692853
-692500
-692238
-692013
-691566
-691360
-691124
-690899
-690658
-690541
-690700
-690359
-690131
-689903
-689730
-689641
-689676
-689575
-689459
-689439
-689376
-689473
-689471
-689436
-689449
-689394
-689458
-689455
-689564
-689515
-689635
-689768
-689894
-689965
-690010
-689983
-690140
-690208
-690267
-690316
-690357
-690437
-690513
-690548
-690559
-690557
-690716
-690728
-690686
-690841
-690883
-690915
-690938
-690994
-691040
-691131
-691248
-691140
-691246
-691224
-691307
-691487
-691552
-691535
-691500
-691531
-691601
-691651
-691665
-691652
-691757
-691817
-691983
-692050
-692092
-692192
-692337
-692882
-692577
-692604
-692786
-692902
-693023
-693229
-693361
-693448
-693614
-693901
-693951
-694270
-694428
-694604
-694872
-695003
-695191
-695410
-695560
-695769
-696025
-696241
-696430
-696666
-696823
-696972
-697147
-697417
-697676
-697791
-697987
-698172
-698387
-698587
-698780
-698892
-699105
-699364
-699526
-699606
-699682
-699857
-699937
-700048
-700222
-700236
-700286
-700439
-700529
-700528
-700582
-700708
-700815
-700953
-700956
-700984
-700976
-701046
-701059
-700991
-700997
-701024
-700771
-701386
-700987
-700834
-700669
-700611
-700510
-700341
-700264
-700091
-699987
-699943
-699774
-699508
-699386
-699260
-699222
-699074
-698874
-698837
-698843
-698737
-698690
-698617
-698596
-698558
-698553
-698595
-698602
-698567
-698646
-698808
-698938
-698978
-699025
-698983
-699196
-699262
-699431
-699481
-699602
-699720
-699853
-699934
-699938
-700176
-700254
-700392
-700474
-700531
-700666
-700902
-700985
-701057
-701214
-701295
-701395
-701567
-701623
-701743
-701829
-702050
-702133
-702202
-702340
-702451
-702618
-702714
-702728
-702867
-702843
-702958
-703050
-703001
-703114
-703169
-703299
-703440
-703489
-703418
-703535
-703665
-703696
-703771
-703833
-703979
-704123
-704232
-704176
-704221
-704344
-704345
-704436
-704455
-704536
-704647
-704744
-704796
-704826
-704932
-704952
-705125
-705255
-705299
-705390
-705585
-705573
-705638
-705770
-705821
-705841
-706070
-706127
-706119
-706192
-706183
-706344
-706406
-706443
-706434
-706567
-706668
-706688
-706651
-706734
-706754
-706908
-706856
-706904
-707007
-707038
-707063
-707247
-707270
-707204
-707303
-707409
-707433
-707496
-707460
-707594
-707639
-707674
-707732
-707770
-707820
-707895
-707977
-707980
-707997
-708061
-708165
-708182
-708138
-708136
-708349
-708377
-708392
-708444
-708494
-708648
-708679
-708759
-708785
-708938
-709084
-709154
-709125
-709275
-709335
-709483
-709915
-709794
-709822
-709909
-710053
-710147
-710320
-710421
-710480
-710609
-710793
-710981
-711202
-711228
-711502
-711594
-711791
-711979
-712005
-712182
-712363
-712541
-712551
-712675
-712906
-713115
-713200
-713360
-713451
-713606
-713872
-714021
-714105
-714298
-714507
-714758
-714772
-714859
-715148
-715077
-715423
-715511
-715633
-715731
-715893
-716157
-716301
-716717
-716526
-716562
-716646
-716717
-716827
-716814
-716697
-716832
-717028
-716979
-716996
-716955
-716921
-716833
-716650
-716598
-716434
-716179
-715952
-715552
-715192
-714840
-714392
-713940
-713437
-712818
-712367
-711741
-711188
-710588
-709971
-709359
-708679
-708089
-707477
-706869
-706271
-705673
-705110
-704524
-703871
-703407
-702792
-702275
-702188
-701323
-700816
-700394
-699894
-699445
-699028
-698770
-698508
-698033
-697699
-697488
-697227
-696991
-696731
-696470
-696275
-696241
-695804
-695860
-695718
-695513
-695395
-695463
-695430
-695286
-695254
-695186
-695151
-695044
-695052
-694959
-694902
-694990
-694945
-694874
-694804
-694701
-694786
-694718
-694663
-694547
-694530
-694523
-694485
-694386
-694475
-694462
-694481
-694429
-694336
-694497
-694486
-694506
-694525
-694521
-694640
-694685
-694781
-694778
-694887
-694918
-695081
-695157
-695147
-695068
-695143
-695191
-695202
-695213
-695233
-695256
-695340
-695136
-695189
-695071
-695068
-695150
-695100
-695092
-694985
-694973
-694933
-694970
-694966
-694939
-694895
-694843
-694904
-694776
-694899
-694814
-694794
-694776
-694743
-694757
-694699
-694670
-694678
-694626
-694561
-694626
-694665
-694519
-694504
-694399
-694278
-694189
-694116
-694021
-693904
-693841
-693682
-693712
-693635
-693413
-693349
-693229
-693203
-693090
-692974
-692775
-692691
-692595
-692470
-692398
-692295
-692080
-692027
-691822
-691814
-691617
-691517
-691382
-691299
-691196
-691069
-690906
-690902
-690681
-690584
-690516
-690406
-690252
-690158
-690110
-690014
-689954
-689814
-689726
-689703
-689633
-689595
-689656
-689601
-689267
-689400
-689506
-689594
-689605
-689634
-689320
-689517
-689570
-689602
-689543
-689606
-689697
-689698
-689686
-689655
-689541
-689725
-689881
-689842
-689777
-689793
-689792
-689897
-689900
-689834
-689779
-689954
-689932
-690039
-689926
-689998
-690018
-690102
-690055
-690134
-690146
-690264
-690315
-690272
-690244
-690366
-690453
-690554
-690605
-690591
-690578
-690724
-690816
-690815
-690926
-691002
-691099
-691102
-691182
-691214
-691395
-691404
-691465
-691451
-691543
-691581
-691683
-691839
-691858
-691935
-691950
-692052
-692179
-692245
-692343
-692383
-692517
-692694
-692649
-692760
-692738
-692899
-692974
-692999
-693024
-693097
-693188
-693209
-693280
-693344
-693289
-693435
-693414
-693421
-693353
-693421
-693305
-693257
-693277
-693301
-693329
-693170
-693160
-693106
-692948
-692854
-692859
-692734
-692658
-692595
-692387
-692259
-692157
-691975
-691817
-691647
-691415
-691222
-690954
-690824
-690634
-690322
-690111
-689959
-689635
-689351
-689079
-688911
-688613
-688242
-688087
-688026
-687882
-687698
-687569
-687431
-687388
-687222
-687066
-686972
-686878
-686841
-686811
-686674
-686480
-686566
-686494
-686868
-686498
-686288
-686279
-686186
-686239
-686113
-686096
-686076
-686115
-685947
-685927
-685885
-685811
-685850
-685904
-685777
-685818
-685725
-685772
-685824
-685687
-685760
-685665
-685685
-685715
-685602
-685702
-685699
-685660
-685684
-685630
-685530
-685545
-685551
-685492
-685481
-685456
-685380
-685406
-685462
-685537
-685511
-685574
-685610
-685683
-685611
-685625
-685722
-685744
-685937
-685980
-685965
-686059
-686230
-686369
-686313
-686383
-686478
-686643
-686772
-686814
-686852
-687055
-687180
-687239
-687347
-687426
-687572
-687807
-687975
-688034
-688086
-688138
-688295
-688316
-688359
-688315
-688365
-688354
-688344
-688239
-687944
-687817
-687661
-687444
-687163
-686824
-686445
-686158
-685783
-685316
-684911
-684481
-684070
-683598
-683100
-682578
-682067
-681643
-681241
-680742
-680169
-679766
-679465
-679034
-678561
-678176
-677748
-677458
-677140
-676753
-676387
-676156
-675948
-675611
-675278
-674985
-674782
-674613
-674416
-674197
-674038
-673903
-673765
-673577
-673582
-673440
-674034
-673483
-673252
-673191
-673180
-673150
-673164
-673170
-673231
-673137
-673219
-673305
-673399
-673486
-673601
-673713
-673935
-674063
-674126
-674200
-674233
-674472
-674595
-674613
-674727
-675437
-675180
-675135
-675156
-675243
-675318
-675345
-675398
-675505
-675525
-675967
-675846
-675763
-675856
-675902
-675747
-675925
-676062
-676002
-675986
-676098
-676183
-676162
-676041
-676128
-676205
-676316
-676282
-676328
-676456
-676573
-676693
-676820
-676796
-676929
-677074
-677741
-677562
-677642
-677666
-677819
-678048
-678289
-678310
-678415
-678628
-678882
-679042
-679131
-679253
-679401
-679508
-679605
-679745
-679799
-680037
-680147
-680868
-680426
-680371
-680382
-680532
-680634
-680691
-680706
-680698
-680797
-680842
-680889
-680934
-680957
-681112
-681194
-681157
-681242
-681265
-681289
-681149
-681683
-681320
-681188
-681258
-681221
-681228
-681171
-681076
-681139
-681135
-681037
-681071
-681112
-681193
-681121
-681059
-681178
-681173
-680970
-681070
-681101
-681162
-681125
-681153
-681156
-681051
-681148
-681089
-681025
-681029
-681091
-680952
-680989
-681038
-681032
-680953
-680949
-680976
-681111
-681144
-681077
-681232
-681036
-681218
-681366
-681395
-681385
-681557
-681533
-681479
-681553
-681663
-681739
-681838
-681870
-681849
-681928
-682077
-682227
-682235
-682369
-682436
-682612
-682645
-682811
-682884
-683004
-683089
-683356
-683463
-683477
-683566
-683732
-683891
-684025
-684115
-684213
-684405
-684548
-684691
-684681
-684833
-684985
-685063
-685217
-685234
-685305
-685497
-685554
-685643
-685688
-685763
-685808
-685835
-685974
-686001
-686681
-686375
-686254
-686285
-686263
-686438
-686515
-686497
-686984
-686885
-686851
-687004
-687078
-687211
-687398
-687428
-687497
-687740
-687887
-688004
-688189
-688272
-688438
-688513
-688679
-688765
-688950
-689137
-689239
-689214
-689333
-689564
-689656
-689722
-689843
-689790
-689933
-690028
-690025
-690084
-690145
-690200
-690244
-690261
-690280
-690360
-690359
-690458
-690540
-690545
-690661
-690663
-690713
-690837
-690797
-690722
-691023
-691109
-691095
-691096
-691245
-691363
-691336
-691477
-691523
-691562
-691693
-691760
-691741
-691899
-691871
-692042
-692063
-692230
-692280
-692371
-692573
-692491
-692691
-692816
-692883
-693108
-693196
-693395
-693581
-693662
-693883
-693931
-693996
-694201
-694396
-694573
-694639
-694702
-694946
-695388
-695385
-695554
-695738
-695838
-695950
-696165
-696306
-696416
-696578
-696673
-696855
-697017
-697118
-697212
-697375
-697598
-697806
-697966
-698050
-698244
-698366
-698431
-698550
-698656
-698824
-699009
-699144
-699178
-699298
-699421
-699467
-699580
-699655
-699590
-699714
-699853
-699823
-699774
-699755
-699745
-699590
-699485
-699363
-699129
-698939
-698735
-698444
-698004
-697702
-697363
-696946
-696560
-696164
-695695
-695282
-694913
-694377
-693864
-693279
-692809
-692306
-691912
-691396
-690824
-690476
-689929
-689498
-689020
-688536
-688212
-687740
-687423
-686949
-686523
-686200
-685876
-685676
-685271
-684953
-684843
-684552
-684353
-684184
-684057
-684287
-683914
-683718
-683634
-683428
-683495
-683506
-683459
-683401
-683304
-683321
-683310
-683347
-683397
-683451
-683520
-683533
-683647
-683589
-683655
-683739
-683813
-683943
-683955
-684052
-684129
-684299
-684422
-684551
-684493
-684681
-684808
-684913
-684977
-685045
-685208
-685264
-685380
-685383
-685284
-685476
-685557
-685665
-685692
-685725
-685724
-685785
-685766
-685788
-685568
-685839
-685904
-685988
-685936
-686066
-686100
-686209
-686471
-686134
-686382
-686448
-686648
-686883
-686994
-687151
-687278
-687463
-687553
-687713
-687928
-688091
-688245
-688429
-688610
-688832
-689000
-689247
-689407
-689636
-689811
-689919
-690130
-690291
-690516
-690743
-690875
-691108
-691288
-691398
-691660
-692274
-692185
-692242
-692280
-692477
-692563
-692735
-692709
-692859
-693039
-693220
-693232
-693243
-693424
-693584
-693617
-693601
-693434
-693664
-693702
-693785
-693762
-693859
-693929
-693958
-694012
-694095
-694013
-694092
-694192
-694128
-694090
-694123
-694148
-694180
-694141
-694198
-694125
-694194
-694252
-694127
-694117
-694126
-694150
-694043
-694039
-693944
-693897
-693841
-693788
-693720
-693671
-693754
-693744
-693711
-693723
-693687
-693673
-693785
-693840
-693832
-693729
-693890
-693962
-694069
-694131
-694077
-694064
-694239
-694285
-694312
-694339
-694392
-694449
-694519
-694524
-694521
-694477
-694559
-694570
-694594
-694731
-694728
-694744
-694683
-694632
-694677
-694728
-694747
-694696
-694701
-694717
-694774
-694880
-694902
-695066
-695161
-695163
-695341
-695515
-695652
-695726
-695781
-695907
-696032
-696152
-696352
-696381
-696555
-696608
-696652
-696789
-696918
-696798
-697041
-697710
-697314
-697180
-697334
-697290
-697325
-697352
-697473
-697501
-697469
-697558
-697503
-697606
-697739
-697738
-697852
-697932
-698019
-698026
-698112
-698290
-698239
-698282
-698373
-698539
-698570
-698695
-698653
-698726
-698809
-698848
-699075
-698970
-699071
-699105
-699285
-699260
-699393
-699387
-699473
-699573
-699532
-699650
-699692
-699616
-699727
-699692
-699688
-699712
-699738
-699775
-699829
-699810
-699874
-699843
-699942
-699985
-699929
-700010
-700095
-700059
-700184
-700252
-700246
-700371
-700230
-700378
-700308
-700408
-700404
-700379
-700496
-700409
-700472
-700522
-700491
-700476
-700500
-700510
-700560
-700434
-700384
-700442
-700536
-700504
-700575
-700579
-700519
-700627
-700598
-700632
-700722
-700727
-700837
-700886
-700899
-700844
-700894
-700983
-701076
-701022
-701037
-701107
-701158
-701173
-701303
-701246
-701334
-701476
-701636
-701655
-701696
-701863
-701887
-702087
-702070
-702133
-702238
-702269
-702345
-702438
-702560
-702511
-702593
-702663
-702712
-702661
-702689
-702765
-702841
-702921
-702932
-702993
-702998
-703067
-703052
-703018
-702858
-703081
-703183
-703149
-703189
-703217
-703239
-703284
-703382
-703198
-703194
-703202
-703174
-703079
-702868
-702812
-702651
-702608
-702452
-702148
-701843
-701612
-701323
-700939
-700907
-700352
-699791
-699236
-698769
-698353
-697832
-697299
-696730
-696068
-695469
-694814
-694177
-693532
-692870
-692220
-691619
-691026
-690444
-689933
-689263
-688717
-688204
-687735
-687215
-686626
-686281
-685926
-685481
-684895
-684534
-684089
-683772
-683475
-683118
-682855
-682606
-682433
-682109
-681968
-681780
-681595
-681520
-681324
-681167
-681107
-680924
-680966
-680921
-680889
-680769
-680737
-680774
-680770
-680722
-680769
-680762
-680849
-680906
-680804
-680846
-680898
-680996
-680993
-680998
-681049
-681180
-681192
-681119
-681161
-681248
-681267
-681394
-681257
-681428
-681514
-681512
-681643
-681639
-681677
-681705
-681719
-681785
-681873
-681933
-681889
-681868
-681865
-681914
-681996
-681977
-681994
-682043
-682037
-681895
-682130
-682238
-682252
-682402
-682502
-682452
-682542
-682694
-682799
-682812
-682991
-683095
-683217
-683293
-683398
-683584
-683784
-683986
-684044
-684203
-684242
-684473
-684643
-684680
-684916
-685002
-685186
-685378
-685503
-685586
-686126
-685938
-686041
-686168
-686241
-686301
-686386
-686577
-686618
-686646
-686695
-686799
-687388
-687010
-686984
-687041
-687033
-687098
-687000
-687001
-687026
-687079
-687148
-687092
-687035
-687125
-687149
-687183
-687195
-687182
-687151
-687214
-687239
-687153
-687126
-687212
-687164
-687213
-687059
-687027
-687040
-687075
-687022
-687023
-687065
-687036
-687023
-687014
-687074
-687035
-687091
-687164
-687168
-687095
-687053
-687055
-687152
-687178
-687107
-687108
-687210
-687240
-687168
-687309
-687297
-687347
-687402
-687557
-687410
-687629
-687742
-687819
-687884
-687961
-688017
-688196
-688314
-688330
-688401
-688524
-688579
-688713
-688838
-688937
-689003
-689052
-689321
-689415
-689431
-689537
-689638
-689809
-689919
-689978
-690001
-690054
-690145
-690251
-690309
-690380
-690460
-690463
-690570
-690540
-690628
-690749
-690756
-690874
-690872
-690870
-690930
-690956
-691147
-691154
-691088
-691244
-691282
-691372
-691392
-691387
-691580
-691652
-691658
-691711
-691749
-691899
-692103
-692211
-692148
-692192
-692291
-692445
-692529
-692630
-692677
-692796
-692827
-692854
-692906
-692998
-692997
-693201
-693233
-693241
-693225
-693303
-693417
-693582
-693507
-693568
-693634
-693702
-693714
-693774
-693843
-693780
-693869
-693987
-693971
-693970
-694157
-694125
-694108
-694181
-694221
-694236
-694277
-694324
-694404
-694291
-694430
-694497
-694662
-694696
-694660
-694825
-694894
-694896
-694952
-695031
-695029
-695202
-695339
-695331
-695861
-695622
-695600
-695560
-695758
-695767
-695795
-695877
-695949
-695833
-695878
-695952
-696026
-696031
-696034
-696009
-696031
-696020
-696138
-696198
-696174
-696310
-696463
-696354
-696295
-696388
-696442
-696571
-696533
-696614
-696631
-696636
-696783
-696774
-696847
-696918
-696981
-697102
-697113
-697157
-697225
-697401
-697460
-697552
-697623
-697696
-697758
-697810
-697916
-697965
-698199
-698269
-698374
-698362
-698450
-698557
-698636
-698683
-698692
-698702
-698838
-698931
-699357
-699068
-699029
-698985
-699140
-699040
-699060
-699106
-699153
-699174
-699265
-699277
-699796
-699458
-699504
-699350
-699333
-699506
-699579
-700254
-699710
-699597
-699598
-699738
-699729
-699739
-699754
-699772
-699815
-699906
-699874
-699779
-699768
-699889
-699979
-700042
-699983
-700265
-700202
-700235
-700320
-700187
-700340
-700302
-700468
-700481
-700456
-700604
-700607
-700591
-700713
-700716
-700734
-700757
-700769
-700835
-700879
-700929
-701052
-701117
-701074
-701075
-701224
-701337
-701415
-701380
-701448
-701623
-701634
-701657
-701695
-701685
-701748
-701876
-701821
-701774
-701823
-701927
-701969
-702031
-702002
-702030
-702098
-702197
-702250
-702170
-702141
-702267
-702464
-702522
-702569
-702538
-702594
-703003
-702784
-702722
-702793
-702813
-702937
-702959
-703096
-703169
-703220
-703435
-703479
-703488
-703548
-703668
-704214
-703985
-703916
-703921
-703991
-704163
-704323
-704292
-704302
-704348
-704469
-704448
-704412
-704457
-704604
-704755
-704785
-704747
-704894
-704941
-705122
-705134
-705215
-705369
-705464
-705594
-705654
-705780
-705873
-705963
-706124
-706281
-706322
-706537
-706535
-706605
-706738
-706904
-706908
-707008
-707174
-707142
-707230
-707330
-707247
-707419
-707379
-707371
-707321
-707180
-707014
-707025
-706730
-706499
-706317
-706037
-705645
-705234
-704834
-704511
-703874
-703375
-702722
-702151
-701573
-700924
-700659
-699598
-698865
-698127
-697450
-696748
-695940
-695228
-694558
-693884
-693153
-692233
-691551
-691335
-690485
-689681
-689078
-688333
-687838
-687262
-686651
-686206
-685769
-685377
-684998
-684589
-684164
-683758
-683446
-683123
-682941
-682664
-682382
-682113
-681991
-681819
-681636
-681402
-681263
-681240
-681159
-681025
-680854
-680875
-680844
-680787
-680815
-680765
-680718
-680769
-680813
-680854
-680797
-680798
-680870
-680969
-680853
-680952
-681003
-681137
-681066
-681088
-681163
-680951
-681105
-681137
-681275
-681303
-681268
-681290
-681210
-681256
-681356
-681294
-681316
-681289
-681320
-681365
-681203
-681377
-681291
-681180
-681251
-681230
-681305
-681288
-681243
-681237
-681276
-681249
-681251
-681224
-681267
-681325
-681354
-681294
-681328
-681378
-681400
-681538
-681617
-681637
-681653
-681841
-681926
-681974
-682028
-682169
-682329
-682522
-682633
-682614
-682736
-682979
-683034
-683244
-683304
-683410
-683592
-684105
-683974
-684006
-684157
-684267
-684402
-684489
-684613
-684686
-684793
-684937
-685015
-685027
-685082
-685205
-685274
-685254
-685364
-685454
-685596
-685465
-685540
-685594
-685651
-685686
-685667
-685647
-685622
-685649
-685769
-685821
-685763
-685755
-685846
-685879
-685847
-685805
-685758
-685844
-685766
-685837
-685795
-685752
-685678
-685650
-685675
-685615
-685441
-685414
-685410
-685363
-685293
-685233
-685231
-685223
-685821
-685252
-685072
-685015
-685095
-685096
-685129
-685106
-685127
-685101
-685112
-685102
-685191
-685271
-685264
-685216
-685175
-685318
-685303
-685293
-685357
-685352
-685431
-685543
-685644
-685593
-685722
-685767
-685795
-685965
-685963
-686403
-686222
-686304
-686379
-687004
-686604
-686553
-686682
-686766
-686692
-686864
-686900
-686973
-687079
-687044
-687027
-687135
-687136
-687265
-687319
-687400
-687540
-687642
-687663
-687774
-687842
-687812
-687970
-688043
-687997
-688031
-688296
-688301
-688427
-688237
-688476
-688627
-688667
-688818
-688758
-688819
-688983
-689134
-689191
-689165
-689254
-689223
-689482
-689432
-689518
-689615
-689592
-689729
-689886
-689888
-689909
-690044
-690145
-690174
-690233
-690090
-690377
-690500
-690670
-690795
-690768
-690871
-690937
-690899
-691002
-691118
-691275
-691385
-691359
-691487
-691432
-691467
-691613
-691725
-691732
-691860
-691969
-691964
-692079
-692145
-692174
-692215
-692319
-692314
-692427
-692384
-692568
-692610
-692657
-692677
-692790
-692833
-692918
-692902
-692988
-693100
-693136
-693269
-693264
-693310
-693451
-693505
-693524
-693614
-693653
-693656
-693798
-693870
-693746
-693859
-694010
-694108
-694173
-694274
-694056
-694250
-694430
-694546
-694552
-694526
-694606
-694701
-694745
-694762
-694792
-694822
-694875
-694972
-695031
-695115
-695078
-695043
-695141
-695197
-695301
-695236
-695303
-695402
-695336
-695387
-695560
-695639
-695762
-695778
-695836
-695855
-695942
-696033
-696205
-696239
-696301
-696508
-696543
-696563
-696690
-696724
-696852
-696918
-696922
-696935
-697005
-697074
-697042
-697098
-697205
-697250
-697202
-697448
-697418
-697431
-697610
-697613
-697823
-697796
-697858
-697956
-698011
-698174
-698219
-698262
-698329
-698501
-698642
-698629
-698680
-698713
-698758
-698850
-698954
-698990
-699157
-699222
-699269
-699287
-699297
-699357
-699490
-699584
-699533
-699598
-699634
-699796
-699758
-699795
-699900
-699874
-699957
-699978
-699961
-700037
-700169
-700216
-700205
-700254
-700317
-700236
-700416
-700563
-700648
-700699
-700834
-700941
-701023
-701014
-701067
-701213
-701405
-701510
-701572
-701539
-701684
-702323
-702028
-701927
-702043
-702068
-702030
-702101
-702061
-702115
-702323
-702386
-702399
-702281
-702332
-702419
-702381
-702369
-702482
-702466
-702406
-702476
-702528
-702557
-702482
-702519
-702558
-702623
-702659
-702831
-702840
-702890
-703046
-703035
-703074
-703160
-703280
-703397
-703356
-703436
-703572
-703611
-703788
-703752
-703796
-703925
-703961
-703914
-704040
-704119
-704099
-704154
-704139
-704244
-704384
-704397
-704399
-704326
-704493
-704596
-704657
-704787
-704779
-704848
-704880
-705035
-705012
-705125
-705151
-705261
-705334
-705442
-705573
-705568
-705651
-705767
-705762
-705830
-705846
-705953
-706097
-706137
-706175
-706315
-706332
-706429
-706486
-706549
-706551
-706679
-706635
-706702
-706705
-706754
-706729
-706643
-706632
-706476
-706261
-706080
-705820
-705470
-705129
-704703
-704244
-703831
-703324
-702791
-702254
-701681
-701067
-700501
-699768
-699223
-698538
-697912
-697228
-696590
-695898
-695405
-694570
-693892
-693425
-692744
-692188
-691591
-690917
-690237
-689638
-689078
-688564
-688036
-687457
-686936
-686144
-685862
-685443
-684945
-684553
-684187
-684135
-683585
-683538
-683042
-682727
-682438
-682847
-682135
-681907
-681681
-681566
-681435
-681296
-681259
-681210
-681214
-681243
-681189
-681272
-681263
-681200
-681149
-681161
-681170
-681339
-681447
-681366
-681512
-681464
-681587
-681617
-681664
-681746
-681745
-681797
-681965
-681977
-681995
-682177
-682317
-682336
-682480
-682570
-682634
-682756
-682867
-682834
-682892
-682928
-683011
-683109
-683209
-683258
-683222
-683333
-683398
-683374
-683358
-683398
-683424
-683412
-683472
-683516
-683513
-683598
-683722
-683703
-683765
-683902
-684022
-684128
-684234
-684318
-684346
-684542
-684697
-684789
-684884
-684942
-685174
-685215
-685423
-685457
-685550
-685818
-685959
-686094
-686159
-686203
-686421
-686557
-686655
-686635
-687026
-686910
-686929
-686991
-686839
-686995
-687064
-687152
-687322
-687256
-687350
-687369
-687561
-687429
-687450
-687573
-687558
-687603
-687638
-687713
-687675
-687769
-687773
-687730
-687673
-687729
-688318
-687888
-687683
-687609
-687592
-687797
-687596
-687535
-687368
-687273
-687281
-687245
-687127
-686910
-686886
-686932
-686684
-686791
-686760
-686709
-686699
-686716
-686758
-686717
-686668
-686692
-686671
-686617
-686519
-686557
-686528
-686520
-686499
-686492
-686510
-686535
-686589
-686557
-686622
-686669
-686632
-686687
-686659
-686739
-686773
-686738
-686846
-686646
-686816
-686772
-686773
-686858
-686936
-686859
-686967
-687351
-687263
-687121
-687179
-687203
-687277
-687381
-687520
-687509
-687490
-687639
-687747
-687785
-687702
-687772
-687855
-687888
-687925
-687915
-688121
-688147
-688183
-688299
-688349
-688330
-688393
-688490
-688649
-688591
-688606
-688681
-688761
-688847
-689008
-688925
-689174
-689175
-689268
-689313
-689428
-689531
-689666
-689723
-689830
-689963
-690030
-690173
-690191
-690272
-690248
-690408
-690576
-690684
-690666
-690839
-690934
-691046
-691052
-691148
-691176
-691244
-691253
-691362
-691342
-691386
-691562
-691613
-691555
-691528
-691748
-691897
-691963
-691958
-691977
-692153
-692283
-692273
-692373
-692356
-692433
-692521
-692628
-692620
-692704
-692819
-692839
-692815
-692714
-692951
-692965
-693028
-693093
-693102
-693198
-693278
-693343
-693427
-693443
-693479
-693667
-693679
-693734
-693791
-693823
-693926
-693661
-693888
-694002
-694047
-694100
-694218
-694194
-694291
-694373
-694416
-694433
-694548
-694693
-694730
-694800
-694842
-694832
-694989
-695112
-695229
-695222
-695201
-695222
-695334
-695404
-695800
-695333
-695484
-695627
-695657
-695630
-695736
-695732
-695881
-695942
-695984
-695934
-695982
-695991
-696113
-696164
-696113
-696213
-696189
-696306
-696312
-696331
-696346
-696426
-696551
-696495
-696585
-696590
-696690
-696830
-696646
-696835
-696951
-697080
-697142
-697082
-697259
-697339
-697338
-697509
-697500
-697483
-697606
-697610
-697606
-697530
-697601
-697618
-697673
-697695
-697581
-697603
-697714
-697788
-697783
-697726
-697777
-697818
-697799
-697949
-697918
-697899
-698002
-697861
-698129
-698158
-698216
-698292
-698356
-698437
-698488
-698559
-698664
-698705
-698858
-698852
-698902
-699057
-699068
-699230
-699289
-699312
-699530
-699600
-700219
-699876
-699777
-699915
-699892
-700071
-699824
-699981
-700119
-700176
-700165
-700249
-700275
-700331
-700409
-700424
-700352
-700377
-700327
-700325
-700419
-700322
-700377
-700268
-700277
-700203
-700074
-699871
-699718
-699506
-699143
-698825
-698491
-698192
-697783
-697385
-696887
-696305
-695855
-695309
-694624
-694045
-693405
-692841
-692217
-691659
-691010
-690331
-689727
-689164
-688464
-687848
-687241
-686684
-686069
-685460
-684834
-684362
-683843
-683346
-682845
-682376
-681899
-681397
-680971
-680590
-680185
-679864
-679268
-679131
-678867
-678695
-678456
-678246
-678100
-677846
-677756
-677639
-677494
-677435
-677348
-677237
-677176
-677119
-677089
-677022
-676999
-676984
-676949
-677030
-677127
-677128
-677087
-677162
-677194
-677221
-677291
-677330
-677316
-677463
-677457
-677520
-677523
-677615
-677707
-677693
-677765
-677782
-677838
-677936
-678024
-678007
-677991
-678051
-678132
-678185
-678104
-678324
-678346
-678493
-678463
-678499
-678522
-678572
-678708
-678802
-678791
-678766
-678955
-679016
-679054
-679101
-679186
-679795
-679541
-679433
-679475
-679456
-679622
-679758
-679845
-679889
-680039
-680143
-680313
-680329
-680386
-680541
-680609
-680713
-680896
-681037
-681088
-681301
-681555
-681672
-681715
-681886
-682065
-682217
-682173
-682476
-682633
-682836
-682918
-683122
-683167
-683256
-683406
-683510
-683734
-683718
-683796
-683835
-683974
-683967
-683998
-684058
-684056
-684055
-684181
-684200
-684077
-684110
-684091
-684155
-684033
-684010
-683981
-684114
-683987
-684026
-683917
-683929
-683868
-683779
-683701
-683671
-683621
-683601
-683516
-683548
-683429
-683428
-683472
-683411
-683192
-683264
-683315
-683361
-683279
-683276
-683258
-683305
-683331
-683316
-683325
-683245
-683355
-683370
-683464
-683448
-683504
-683512
-683529
-683639
-683665
-683512
-683627
-683731
-683720
-683766
-683805
-683747
-683945
-683988
-683925
-683984
-684063
-684200
-684287
-684327
-684396
-684368
-684470
-684565
-684593
-684653
-684824
-684964
-684984
-685081
-685112
-685219
-685317
-685373
-685458
-685520
-685671
-685661
-685824
-685847
-685961
-686042
-686170
-686251
-686166
-686416
-686428
-686551
-686612
-686637
-686756
-686780
-686840
-686802
-686876
-687047
-687104
-687154
-687135
-687291
-687336
-687383
-687544
-687511
-687570
-687677
-687707
-687784
-687734
-687721
-687872
-687876
-687918
-687875
-687973
-688074
-688089
-688120
-688254
-688202
-688382
-688540
-688534
-688575
-688716
-688774
-688883
-688974
-689052
-689025
-689132
-689304
-689403
-689343
-689493
-689617
-689675
-689859
-689892
-689900
-689999
-690038
-690139
-690167
-690216
-690200
-690352
-690420
-690345
-690394
-690582
-690602
-690705
-690779
-690784
-690921
-690946
-690976
-691022
-690976
-691022
-691117
-691187
-691188
-691227
-691364
-691476
-691440
-691428
-691472
-691561
-691617
-691668
-691669
-691705
-691795
-691719
-691809
-691795
-691771
-691814
-691888
-691943
-691998
-691941
-692005
-692065
-691920
-692051
-692112
-692155
-692244
-692351
-692382
-692451
-692452
-692527
-692559
-692624
-692672
-692737
-692863
-692942
-692952
-692889
-693147
-693175
-693512
-693313
-693322
-693434
-693537
-693490
-693562
-693601
-693704
-693672
-694383
-693912
-693860
-693870
-693921
-693892
-693973
-693989
-694081
-694113
-694148
-694311
-694403
-694525
-694566
-694638
-694728
-694819
-694943
-694857
-695035
-695106
-695297
-695428
-695460
-695509
-695628
-695644
-695681
-695874
-695849
-696034
-696103
-696214
-696292
-696175
-696442
-696506
-696616
-696610
-696752
-696751
-696902
-696912
-696847
-696906
-696872
-696974
-696914
-696934
-696825
-696700
-696642
-696576
-696431
-696150
-696003
-695678
-695430
-695093
-694672
-694223
-693778
-693275
-692777
-692119
-691611
-691035
-690496
-689857
-689201
-688523
-688036
-687318
-686714
-686094
-685320
-684713
-684153
-683517
-682927
-682326
-681749
-681191
-680733
-680114
-679660
-679135
-678725
-678294
-677882
-677367
-677055
-676671
-676320
-676036
-675513
-675391
-675293
-675048
-674922
-674647
-674454
-674310
-674302
-673913
-673939
-673951
-673978
-673932
-673860
-673851
-674232
-673896
-673846
-673747
-673805
-673823
-673913
-673872
-673715
-673821
-673938
-673860
-673891
-673931
-674012
-674084
-674083
-674119
-674179
-674246
-674431
-674438
-674552
-674587
-674647
-674728
-674886
-674939
-674928
-675020
-675100
-675152
-675219
-675268
-675283
-675392
-675407
-675465
-675434
-675516
-675525
-675600
-675663
-675576
-675612
-675707
-675755
-675828
-675837
-675794
-675857
-675915
-675961
-676062
-676133
-676200
-676290
-676446
-676529
-676588
-676855
-676926
-677065
-677130
-677230
-677485
-677606
-677707
-677831
-678039
-678256
-678212
-678384
-678485
-678731
-678903
-679074
-679060
-679159
-679293
-679386
-679571
-679596
-679671
-679502
-679718
-679967
-680068
-680033
-680146
-680186
-680308
-680296
-680207
-680244
-680308
-680359
-680424
-680441
-680453
-680594
-680532
-680427
-680439
-680528
-680522
-680482
-680403
-680217
-680186
-680215
-680220
-680184
-680091
-680141
-680128
-680090
-680046
-680032
-679909
-679977
-679918
-679794
-679862
-679848
-679822
-679817
-679721
-679704
-679753
-679799
-679762
-679684
-679647
-679736
-679818
-679825
-679785
-679884
-679936
-679934
-679935
-679884
-679984
-679997
-680052
-680151
-680149
-680156
-680312
-680367
-680362
-680410
-680531
-680610
-680714
-680772
-680784
-680848
-680985
-681042
-681118
-681120
-681303
-681467
-681520
-681606
-681739
-681790
-681893
-681939
-681963
-682034
-682093
-682161
-682212
-682288
-682361
-682417
-682568
-682665
-682716
-682651
-682802
-682867
-682903
-682969
-682958
-682937
-683024
-683108
-683220
-683717
-683404
-683409
-683432
-683411
-683555
-683631
-683685
-683746
-683838
-683819
-683782
-683900
-683992
-684104
-684398
-684319
-684361
-684421
-684504
-684599
-684602
-684693
-684663
-684764
-684878
-684872
-684986
-684977
-685119
-685091
-685176
-685168
-685272
-685350
-685278
-685381
-685454
-685546
-685540
-685650
-685743
-685799
-685888
-686006
-686074
-686039
-686165
-686259
-686337
-686400
-686374
-686555
-686627
-686724
-686658
-686691
-686824
-686902
-686678
-686908
-687038
-687131
-687113
-687260
-687198
-687232
-687337
-687443
-687453
-687409
-687533
-687560
-687575
-687585
-687601
-687638
-687675
-687669
-687695
-687725
-687749
-687799
-687848
-687920
-687948
-687965
-688018
-688133
-688081
-688199
-688327
-688316
-688873
-688584
-688532
-688618
-688597
-688585
-688492
-688627
-688588
-688826
-688888
-688868
-688911
-688900
-688925
-689083
-689147
-689184
-689118
-689192
-689246
-689402
-689383
-689457
-689532
-689574
-689487
-689480
-689574
-689551
-689694
-689629
-689722
-689683
-689679
-689729
-689855
-689891
-689864
-689913
-689851
-689897
-689946
-689951
-690064
-690193
-690287
-690282
-690297
-690351
-690384
-690472
-690568
-690574
-690485
-690674
-690647
-690685
-690741
-690795
-690904
-690890
-690891
-691054
-691135
-691196
-691279
-691346
-691487
-691531
-691754
-691787
-691776
-692006
-692100
-692174
-692229
-692301
-692407
-692417
-692575
-692679
-692500
-692727
-692764
-692828
-692850
-692836
-692950
-692927
-692994
-692898
-692987
-692951
-692963
-693056
-693034
-693011
-692863
-692710
-692699
-692443
-692299
-692075
-692219
-691623
-691255
-690902
-690463
-690089
-689605
-689133
-688611
-688019
-687495
-686978
-686253
-685659
-684931
-684252
-683576
-682938
-682235
-681517
-680753
-680262
-679660
-679003
-678339
-677761
-677153
-676516
-676019
-675445
-674888
-674254
-673765
-673303
-672810
-672326
-671950
-671615
-671020
-670693
-670305
-670181
-669798
-669589
-669308
-669154
-668902
-668701
-668472
-668554
-668464
-668295
-668279
-668192
-668120
-668097
-668256
-668147
-668167
-668231
-668314
-668426
-668383
-668343
-668347
-668427
-668476
-668442
-668537
-668595
-668628
-668663
-668673
-668721
-668820
-668920
-668744
-668841
-668991
-669066
-669108
-669151
-669178
-669215
-669364
-669436
-669496
-669543
-669621
-669635
-669816
-669759
-669886
-669882
-669981
-669999
-670068
-670076
-670186
-670283
-670235
-670259
-670323
-670317
-670338
-670489
-670510
-670518
-670631
-670730
-670795
-670949
-670966
-671080
-671141
-671265
-671420
-671410
-671542
-671707
-671888
-671924
-672002
-672186
-672383
-672490
-672673
-672848
-672917
-672986
-673134
-673300
-673398
-673511
-673738
-673778
-673876
-674022
-674390
-674348
-674357
-674376
-674427
-674549
-674620
-674690
-674612
-674654
-674677
-674767
-674805
-674727
-674760
-674722
-674764
-674783
-674720
-674658
-674545
-674637
-674591
-674518
-674594
-674483
-674484
-674442
-674424
-674412
-674416
-674446
-674408
-674166
-674168
-674085
-674164
-674165
-674118
-674064
-674185
-674124
-674096
-674129
-674014
-674031
-674168
-674140
-674116
-674105
-674006
-674065
-674066
-674022
-674017
-674076
-674090
-674044
-674143
-674237
-674129
-674235
-674273
-674311
-674620
-674433
-674494
-674511
-674497
-674563
-674591
-674716
-674751
-674768
-674868
-674865
-674953
-675011
-675180
-675199
-675350
-675405
-675546
-675615
-675613
-675684
-675767
-675913
-675943
-675974
-676095
-676252
-676370
-676342
-676470
-676437
-676446
-676563
-676681
-676728
-676780
-676877
-676979
-676964
-676997
-676991
-677163
-677114
-677176
-677238
-677268
-677302
-677322
-677387
-677488
-677487
-677576
-677710
-677771
-677788
-678005
-678080
-678167
-678221
-678255
-678330
-678449
-678471
-678589
-678612
-678744
-678821
-678980
-678944
-679027
-679131
-679252
-679336
-679416
-679538
-679655
-679758
-679903
-679979
-680006
-680101
-680211
-680341
-680433
-680427
-680628
-680813
-680776
-680872
-681043
-681047
-681333
-681316
-681437
-681515
-681405
-681629
-681729
-681841
-681934
-682000
-681977
-682018
-682048
-682185
-681938
-682172
-682281
-682367
-682482
-682540
-682589
-682664
-682701
-682778
-682814
-682999
-682965
-683066
-683055
-683124
-683185
-683256
-683374
-683490
-683576
-683668
-683729
-683731
-683835
-683882
-684054
-684096
-684169
-684209
-684258
-684304
-684432
-684446
-684443
-684459
-684508
-684507
-684509
-684517
-684568
-684651
-684696
-684675
-684668
-684722
-684799
-684883
-684848
-684859
-684924
-685029
-685031
-685158
-685100
-685190
-685298
-685291
-685249
-685336
-685385
-685485
-685466
-685588
-685645
-685649
-685763
-685758
-685787
-685940
-685986
-686071
-686207
-686104
-686219
-686339
-686324
-686428
-686435
-686544
-686606
-686652
-686458
-686630
-686729
-686842
-687031
-687116
-687155
-687234
-687300
-687425
-687484
-687723
-687550
-688415
-688595
-689166
-688792
-688884
-688900
-688991
-688995
-689032
-689109
-689164
-689203
-689151
-689354
-689300
-689268
-689198
-689244
-689285
-689322
-689347
-689287
-689304
-689217
-689114
-689182
-688979
-688875
-688752
-688608
-688369
-688028
-687724
-687406
-687016
-686651
-686204
-685680
-685035
-684721
-684066
-683565
-682866
-682329
-681640
-680960
-680380
-679794
-679061
-678400
-677780
-677066
-676473
-675821
-675239
-674702
-673987
-673435
-672851
-672187
-671741
-671194
-670732
-670338
-669999
-669471
-669067
-668725
-668408
-668146
-667949
-667646
-667307
-667180
-666949
-666760
-666605
-666421
-666354
-666261
-666247
-666048
-665924
-665881
-665901
-665957
-665945
-665940
-665734
-665834
-665780
-665783
-665854
-665922
-665905
-665978
-666292
-666018
-665959
-665962
-666147
-666242
-666305
-666312
-666407
-666468
-666560
-666548
-666620
-666670
-666789
-666887
-666890
-667068
-667124
-667275
-667344
-667232
-667269
-667367
-667368
-667453
-667407
-667437
-667495
-667457
-667460
-667578
-667556
-667595
-667503
-667613
-667656
-667625
-667715
-667758
-667744
-667780
-667908
-668028
-668058
-668151
-668131
-668231
-668445
-668655
-668665
-668751
-668916
-669071
-669276
-669327
-669537
-669735
-669966
-670117
-670291
-670385
-670545
-670622
-670769
-670931
-671080
-671173
-671365
-671369
-671451
-671553
-671595
-671686
-671691
-671781
-671858
-671932
-671943
-671849
-672041
-672111
-672202
-672226
-672274
-672223
-672216
-672305
-672282
-672300
-672178
-672252
-672259
-672280
-672123
-672136
-672072
-672094
-672114
-672058
-672032
-672008
-671979
-671958
-671813
-671811
-671695
-671673
-671634
-671633
-671598
-671531
-671553
-671563
-671517
-671465
-671454
-671522
-671607
-671618
-671446
-671620
-671730
-671679
-671797
-671804
-671847
-671978
-672019
-671905
-672044
-672158
-672315
-672365
-672362
-672443
-672502
-672674
-672709
-672783
-672849
-672874
-673036
-673174
-673211
-673267
-673396
-673454
-673521
-673623
-673774
-673775
-673884
-674004
-674119
-674146
-674332
-674410
-674612
-675018
-674932
-674810
-674978
-675151
-675135
-675181
-675310
-675456
-675631
-676126
-675896
-675941
-676077
-676067
-676079
-676261
-676413
-676444
-676466
-676632
-676740
-676871
-677025
-677085
-677134
-677121
-677266
-677457
-677480
-677443
-677691
-677832
-678004
-678123
-678144
-678308
-678362
-678413
-678595
-678704
-678705
-678869
-678951
-679025
-679132
-679185
-679355
-679372
-679446
-679441
-679505
-679669
-679754
-679891
-679705
-679906
-680032
-680163
-680148
-680198
-680274
-680284
-680455
-680581
-680618
-680726
-680822
-680872
-681052
-681020
-681127
-681221
-681291
-681311
-681449
-681551
-681655
-681733
-681814
-681847
-681794
-681919
-682083
-682099
-682094
-682199
-682293
-682303
-682389
-682477
-682444
-682625
-682564
-682734
-682780
-682716
-682813
-682978
-682955
-683004
-683031
-683109
-683185
-683178
-683271
-683372
-683463
-683580
-683592
-683605
-683618
-683751
-683872
-683912
-683886
-683934
-684020
-684110
-684093
-684178
-684103
-684225
-684342
-684372
-684423
-684522
-684486
-684589
-684650
-684586
-684619
-684624
-684641
-684753
-684712
-684701
-684803
-684875
-684811
-684759
-684843
-684899
-684931
-684920
-684913
-684978
-684988
-685157
-685151
-685197
-685291
-685311
-685496
-685580
-685592
-685599
-685644
-685668
-685744
-685871
-685820
-685842
-685982
-686040
-686092
-686643
-686333
-686360
-686207
-686366
-686324
-686454
-686500
-686519
-686591
-686686
-686902
-687043
-687131
-687095
-687179
-687243
-687433
-687553
-687580
-687575
-687749
-687836
-687892
-688002
-688029
-688101
-688229
-688359
-688485
-688632
-688680
-688842
-688825
-688956
-688926
-689082
-689057
-689158
-689201
-689244
-689248
-689252
-689294
-689412
-689330
-689348
-689347
-689262
-689224
-689195
-689038
-688849
-688603
-688363
-688037
-687762
-687465
-687030
-686643
-686109
-685698
-685082
-684468
-683877
-683299
-682616
-682067
-681371
-680686
-680043
-679363
-678784
-678052
-677394
-676655
-675985
-675376
-674656
-674111
-673454
-672788
-672203
-671656
-670982
-670451
-670034
-669563
-668956
-668559
-668128
-667710
-667349
-666909
-666487
-666133
-665867
-665546
-665169
-664909
-664625
-664493
-664415
-664203
-663981
-663926
-663836
-663816
-663691
-663695
-663653
-663584
-663677
-663618
-663538
-663585
-663698
-663669
-663733
-663809
-663796
-663825
-663926
-664079
-663993
-664076
-664084
-664089
-664185
-664176
-664240
-664196
-664857
-664392
-664437
-664473
-664472
-664601
-664588
-664643
-664696
-664760
-664714
-664729
-664743
-664803
-664811
-664799
-664903
-664875
-664959
-664909
-664855
-664995
-665081
-664985
-665082
-665104
-665132
-665118
-665110
-665102
-665211
-665322
-665263
-665285
-665834
-665593
-665456
-665563
-665676
-665838
-666064
-666140
-666247
-666287
-666530
-666614
-666729
-666875
-667033
-667274
-667370
-667458
-667605
-667678
-667971
-668114
-668311
-668414
-668445
-668639
-668828
-668942
-669061
-669117
-669335
-669383
-669490
-669517
-669725
-669722
-669813
-669897
-669863
-669891
-669968
-670015
-670020
-670025
-670089
-670106
-670064
-670139
-670106
-670112
-669990
-670183
-670209
-670118
-670190
-670115
-670055
-670007
-669988
-670008
-669932
-670003
-669964
-669910
-669891
-669824
-669850
-669703
-669664
-669640
-669600
-669631
-669602
-669607
-669538
-669553
-669640
-669492
-669587
-669507
-669644
-669655
-669619
-669657
-669615
-669752
-669840
-669725
-669755
-669908
-669973
-669908
-669897
-670067
-670166
-670131
-670271
-670297
-670254
-670456
-670450
-670581
-670635
-670613
-670661
-670848
-670887
-670921
-671017
-671081
-671147
-671176
-671282
-671380
-671514
-671716
-671609
-671839
-671908
-671978
-672024
-672064
-672084
-672206
-672354
-672400
-672422
-672426
-672700
-672759
-672941
-672974
-672987
-673128
-673103
-673229
-673342
-673364
-673437
-673499
-673564
-673699
-673712
-673761
-673938
-673958
-674009
-674055
-674154
-674221
-674324
-674325
-674311
-674443
-674454
-674458
-674546
-674623
-674639
-674754
-674834
-674762
-674814
-674968
-675102
-675184
-675189
-675255
-675407
-675428
-675557
-675529
-675598
-675643
-675758
-675951
-675892
-675888
-675945
-676073
-676213
-676248
-676325
-676360
-676420
-676415
-676426
-676438
-676566
-676625
-676639
-676771
-676695
-676662
-676814
-676847
-676837
-676910
-676971
-677016
-677045
-676982
-676960
-677128
-677169
-677148
-677104
-677269
-677291
-677328
-677324
-677421
-677406
-677438
-677618
-677637
-677641
-677685
-677771
-677754
-677856
-677885
-677770
-677930
-678016
-678034
-678036
-678189
-678259
-678290
-678376
-678388
-678434
-678490
-678503
-678541
-678649
-678704
-678715
-678753
-678776
-678766
-678941
-678995
-679044
-679060
-678991
-678923
-679036
-679152
-679150
-679160
-679251
-679412
-679486
-679442
-679465
-679575
-679585
-679736
-679745
-679724
-679801
-679799
-679949
-680003
-680099
-680071
-680167
-680277
-680310
-680370
-680455
-680419
-680575
-680585
-680533
-680594
-680677
-680665
-680719
-680691
-680609
-680753
-680740
-680687
-680698
-680681
-680797
-680528
-680710
-680719
-680852
-680807
-680882
-680979
-681038
-681037
-681182
-681238
-681265
-681315
-681532
-681483
-681633
-681690
-681669
-681736
-681805
-682014
-682086
-682135
-682182
-682274
-682317
-682402
-682526
-682492
-682628
-682798
-682867
-682855
-682798
-682970
-682990
-683078
-683192
-683238
-683345
-683400
-683415
-683645
-683702
-683763
-683682
-684159
-684018
-684215
-684360
-684464
-684601
-684662
-684876
-684897
-684994
-685108
-684892
-685114
-685234
-685266
-685304
-685389
-685425
-685431
-685350
-685286
-685411
-685276
-685342
-685262
-685108
-685027
-684971
-684827
-684636
-684264
-683990
-683528
-683194
-682750
-682283
-681737
-681216
-680678
-680021
-679333
-678626
-677988
-677134
-676486
-675792
-675055
-674455
-673629
-672959
-672211
-671588
-671232
-670283
-669506
-668844
-668101
-667587
-667011
-666301
-665727
-665230
-664678
-664176
-663820
-663319
-662864
-662506
-662088
-661647
-661303
-660915
-660700
-660422
-660115
-659811
-659647
-659409
-659330
-659183
-658953
-658806
-658809
-658775
-658715
-658652
-658612
-658710
-658788
-658757
-658768
-658810
-658945
-659047
-659107
-659190
-659111
-659304
-659342
-659318
-659416
-659462
-659518
-659629
-659716
-659676
-659836
-659916
-659862
-659979
-660119
-660219
-660207
-660398
-660432
-660345
-660412
-660444
-660584
-660589
-660580
-660517
-661047
-660882
-660740
-660774
-660780
-660817
-660912
-660992
-660933
-660960
-661147
-661308
-661293
-661337
-661393
-661282
-661498
-661741
-661711
-661792
-662027
-662162
-662234
-662424
-662546
-662676
-662850
-663026
-663145
-663225
-663547
-663731
-663862
-664063
-664226
-664313
-664579
-664761
-664829
-665094
-665196
-665378
-665599
-665780
-665816
-665932
-666095
-666175
-666271
-666315
-667015
-666709
-666639
-666700
-666827
-666893
-666940
-667013
-667033
-667054
-667196
-667220
-667191
-667198
-667208
-667317
-667344
-667341
-667206
-667191
-667289
-667201
-667154
-667184
-667240
-667246
-667139
-667042
-667000
-666995
-666994
-667059
-667039
-666896
-666808
-666925
-666914
-666812
-666893
-666855
-666891
-666861
-666880
-666889
-666975
-666927
-666981
-666954
-667024
-667000
-667051
-667068
-667027
-667039
-667171
-667230
-667242
-667344
-667446
-667463
-667508
-667621
-667596
-667731
-667889
-667939
-668007
-668068
-668271
-668590
-668508
-668522
-668546
-668732
-668787
-668948
-669078
-669105
-669089
-669186
-669477
-669600
-669679
-669788
-669884
-670032
-670086
-670156
-670235
-670272
-670372
-670485
-670508
-670685
-670784
-670806
-670869
-670975
-671025
-671124
-671176
-671222
-671251
-671324
-671471
-671594
-671673
-671809
-671824
-671840
-672021
-672032
-672092
-672158
-672272
-672360
-672461
-672554
-672610
-672761
-672870
-672928
-672979
-673085
-673202
-673317
-673366
-673468
-673499
-673565
-673739
-673789
-673887
-673857
-673938
-673898
-673973
-674021
-674127
-674191
-674321
-674368
-674378
-674473
-674569
-674672
-674757
-674849
-674921
-675069
-675055
-675070
-675187
-675822
-675533
-675517
-675518
-675681
-675778
-675866
-675909
-675951
-675993
-676085
-676192
-676222
-676197
-676246
-676416
-676343
-676375
-676416
-676461
-676507
-676591
-676550
-676589
-676681
-676701
-676751
-676820
-676811
-676814
-676975
-677011
-677132
-677120
-677250
-677325
-677412
-677433
-677483
-677595
-677759
-677787
-677796
-677854
-677906
-678077
-678044
-678201
-678218
-678217
-678467
-678512
-678563
-678622
-678611
-678664
-678651
-678674
-678752
-678713
-678758
-678833
-678790
-678844
-678823
-679004
-678882
-679058
-679082
-679248
-679227
-679352
-679459
-679518
-679599
-679621
-679782
-679670
-679852
-679822
-680027
-680070
-680138
-680251
-680295
-680360
-680416
-680526
-680476
-680560
-680628
-680777
-680853
-680851
-680926
-681076
-681170
-681161
-681211
-681063
-681349
-681515
-681567
-681608
-681374
-681647
-681742
-681709
-681837
-681872
-681968
-681991
-681930
-682056
-682042
-682122
-682227
-682331
-682419
-682417
-682507
-682525
-682636
-682570
-682638
-682713
-682770
-682870
-682890
-682977
-683064
-683043
-682876
-683035
-683129
-683120
-683186
-682961
-683123
-683203
-683214
-683297
-683345
-683375
-683385
-683472
-683595
-683599
-683666
-683708
-683724
-683791
-683793
-683840
-683868
-683908
-683907
-683840
-683901
-683959
-683987
-684032
-684096
-684184
-684302
-684958
-684559
-684590
-684611
-684710
-684803
-684882
-685033
-684983
-685049
-685133
-685131
-685264
-685302
-685335
-685356
-685569
-685683
-685716
-685814
-685921
-686079
-686148
-686296
-686366
-686485
-686570
-686669
-686820
-686895
-687024
-687096
-687286
-687308
-687298
-687289
-687170
-687273
-687342
-687886
-687559
-687475
-687371
-687320
-687300
-687198
-687131
-686987
-686876
-686705
-686516
-686283
-685943
-685659
-685356
-684936
-684897
-684056
-683429
-682896
-682320
-681653
-680833
-680030
-679412
-678750
-678004
-677246
-676485
-675724
-674934
-674313
-673473
-672742
-672148
-671453
-670706
-670157
-669454
-668703
-668082
-667480
-666968
-666335
-665860
-665270
-664852
-664386
-663922
-663515
-663251
-662886
-662583
-662176
-661878
-661589
-661389
-661111
-660886
-660684
-660574
-660414
-660373
-660268
-660072
-660094
-659855
-659931
-659838
-659907
-660019
-659984
-659924
-659914
-660032
-660051
-660006
-660075
-660070
-660072
-660223
-660288
-660323
-660401
-660433
-660537
-660654
-660684
-660713
-660763
-660962
-661001
-661048
-661152
-661108
-661212
-661274
-661359
-661337
-661401
-661410
-661414
-661441
-661496
-661494
-661540
-661555
-661540
-661565
-661656
-661722
-661723
-661761
-661771
-661789
-661864
-661860
-661788
-661804
-661826
-661949
-661927
-662005
-662084
-662103
-662111
-662140
-662329
-662405
-662499
-662640
-662673
-662879
-662949
-663087
-663221
-663377
-663531
-663741
-663847
-664143
-664247
-664478
-664659
-664837
-665011
-665159
-665284
-665478
-665548
-665748
-665987
-666008
-666164
-666240
-666380
-666534
-666530
-666688
-666792
-666945
-666965
-667048
-667100
-667134
-667152
-667231
-667250
-667302
-667393
-667323
-667365
-667374
-667370
-667338
-667406
-667403
-667400
-667492
-667454
-667417
-667353
-667436
-667437
-667428
-667346
-667403
-667589
-667377
-667287
-667340
-667253
-667376
-667283
-667226
-667307
-667197
-667294
-667348
-667295
-667371
-667435
-667370
-667401
-667480
-667550
-667604
-667557
-667551
-667619
-667668
-667667
-667635
-667629
-667800
-667683
-667717
-667768
-667947
-667975
-668007
-668126
-668865
-668450
-668465
-668383
-668400
-668453
-668530
-668679
-668838
-668837
-668977
-669052
-669179
-669289
-669278
-669375
-669470
-669594
-669674
-669747
-669713
-669816
-669822
-669917
-669918
-670093
-670020
-670167
-670310
-670321
-670355
-670456
-670559
-670624
-670671
-670736
-670915
-671034
-671028
-671140
-671155
-671317
-671427
-671555
-671585
-671662
-671695
-671859
-671959
-672038
-672018
-672042
-672183
-672212
-672242
-672395
-672525
-672617
-672738
-672819
-672856
-672923
-672971
-673060
-673223
-673248
-673372
-673323
-673386
-673589
-673693
-673808
-673878
-673847
-673935
-674014
-674168
-674271
-674278
-674312
-674485
-674554
-674580
-674654
-674802
-674875
-674975
-675023
-675020
-675182
-675211
-675300
-675239
-675254
-675353
-675436
-675521
-675410
-675420
-675421
-675539
-675614
-675548
-675534
-675509
-675663
-675718
-675789
-675782
-675787
-675932
-675952
-676006
-676104
-676133
-676238
-676318
-676496
-676559
-676728
-676771
-676844
-676836
-676906
-677054
-677135
-677214
-677218
-677217
-677237
-677239
-677228
-677188
-677155
-677242
-677275
-677162
-677163
-677148
-677185
-677169
-677110
-677100
-677088
-677164
-677178
-677255
-677354
-677299
-677331
-677438
-677447
-677507
-677512
-677509
-677555
-677648
-677696
-677747
-677728
-677895
-677928
-677940
-678006
-678138
-678225
-678163
-678156
-678256
-678304
-678297
-678364
-678307
-678281
-678378
-678358
-678431
-678299
-678389
-678425
-678478
-678242
-678448
-678396
-678410
-678526
-678568
-678550
-678597
-678556
-678604
-678620
-678628
-678981
-678682
-678742
-678734
-678733
-678738
-678792
-678869
-678920
-678988
-678934
-679024
-679062
-679036
-679157
-679133
-679214
-679271
-679264
-679266
-679237
-679321
-679385
-679424
-679452
-679512
-679579
-679595
-679651
-679766
-679836
-679938
-680074
-680067
-680219
-680175
-680267
-680367
-680512
-680532
-680528
-680658
-680727
-680877
-680880
-680916
-680990
-681026
-681137
-681226
-681261
-681410
-681505
-681521
-681654
-681684
-681696
-681759
-681853
-681864
-681917
-682008
-682158
-682117
-682173
-682137
-682163
-682298
-682325
-682336
-682296
-682364
-682778
-682526
-682453
-682366
-682364
-682187
-682170
-681874
-681670
-681532
-681342
-680965
-680663
-680257
-679736
-679322
-678858
-678247
-677703
-677103
-676437
-675792
-675082
-674302
-673672
-672953
-672213
-671565
-670702
-670019
-669246
-668528
-667852
-667103
-666468
-665651
-665131
-664558
-663958
-663425
-662866
-662374
-661892
-661411
-661060
-660633
-660202
-659816
-659456
-659233
-658845
-658575
-658345
-658075
-657855
-657679
-657390
-657300
-657207
-657103
-656884
-656770
-656720
-656584
-656498
-656473
-656477
-656471
-656387
-656349
-656406
-656440
-656527
-656579
-656565
-656714
-656887
-656969
-657049
-657119
-657305
-657476
-657486
-657631
-657700
-657898
-658023
-658080
-658132
-658299
-658427
-658515
-658621
-658685
-658825
-658842
-658941
-658985
-659007
-659158
-659249
-659291
-659288
-659372
-659412
-659471
-659557
-659647
-659538
-659542
-659551
-659675
-659699
-659773
-659739
-659812
-659862
-659872
-659960
-660067
-660165
-660228
-660222
-660297
-660453
-660665
-660686
-660870
-661064
-661283
-661394
-661547
-661633
-661830
-662047
-662251
-662353
-662419
-662573
-662709
-662902
-663018
-663036
-663106
-663242
-663305
-663359
-663347
-663391
-663490
-663618
-663707
-663738
-663790
-663919
-664010
-663954
-664006
-664051
-664179
-664274
-664349
-664371
-664250
-664329
-664359
-664435
-664284
-664270
-664278
-664231
-664224
-664231
-664167
-664098
-663998
-664045
-663870
-663820
-663776
-663844
-663745
-663689
-663613
-663538
-663520
-663573
-663454
-663358
-663338
-663333
-663247
-663268
-663111
-663152
-663107
-663109
-663100
-663044
-663135
-663246
-663237
-663212
-663253
-663290
-663335
-663312
-663349
-663463
-663555
-663551
-663523
-663698
-663700
-663829
-663913
-663884
-663867
-663927
-664038
-664146
-664136
-664200
-664258
-664358
-664381
-664564
-664574
-664563
-664679
-664798
-664906
-664972
-665071
-665106
-665324
-665373
-665468
-665556
-665662
-665883
-666003
-666052
-666217
-666452
-666484
-666424
-666660
-666872
-666970
-667186
-667246
-667380
-667488
-667699
-667911
-668055
-668113
-668194
-668391
-668451
-668584
-668700
-668870
-669056
-669210
-669239
-669301
-669278
-669538
-669780
-669931
-670033
-670229
-670393
-670535
-670686
-670712
-670916
-671086
-671246
-671334
-671416
-671598
-671769
-671990
-672086
-672206
-672319
-672514
-672698
-672798
-672890
-672968
-673132
-673312
-673377
-673511
-673628
-673795
-673808
-673953
-674031
-674129
-674302
-674512
-674518
-674607
-674640
-674765
-674922
-675022
-675063
-675071
-675178
-675434
-675453
-675529
-675552
-675599
-675716
-675743
-675792
-675865
-675969
-675997
-676204
-676143
-676344
-676467
-676600
-676506
-676548
-676695
-676840
-676964
-677036
-677042
-677212
-677246
-677435
-677512
-677625
-677815
-677868
-678041
-678056
-678132
-678087
-678129
-678261
-678222
-678224
-678295
-678397
-678428
-678470
-678468
-678598
-678672
-678696
-678843
-678803
-678877
-678941
-679117
-679088
-679149
-679225
-679323
-679379
-679422
-679474
-679614
-679612
-679706
-679785
-679782
-679819
-680028
-680103
-680163
-680319
-680418
-680546
-680626
-680642
-680765
-680841
-680780
-680930
-681006
-681110
-681182
-681294
-681310
-681403
-681530
-681673
-681700
-681814
-681941
-682001
-682126
-682204
-682268
-682357
-682479
-682629
-682695
-682744
-682895
-682979
-683059
-683208
-683263
-683273
-683374
-683511
-683619
-683610
-683587
-683684
-683714
-683762
-683828
-683785
-683951
-683994
-683961
-683873
-683906
-683959
-683840
-683739
-683634
-683464
-683277
-683005
-682741
-682365
-681933
-681518
-681068
-680635
-680087
-679483
-679005
-678379
-677739
-677048
-676331
-675711
-675108
-674430
-673601
-672929
-672237
-671575
-670732
-670122
-669529
-668836
-668201
-667699
-666945
-666387
-665800
-665228
-664701
-664135
-663599
-663080
-662727
-662302
-661772
-661329
-661006
-660690
-660405
-660114
-659803
-659682
-659424
-659197
-658997
-658830
-658767
-658721
-658675
-658510
-658411
-658392
-658452
-658391
-658409
-658366
-658390
-658527
-658553
-658585
-658607
-658674
-658717
-658814
-658781
-658854
-658933
-659008
-659100
-659137
-659177
-659261
-659399
-659410
-659541
-659501
-659608
-659458
-659650
-659825
-659935
-660037
-660103
-660178
-660175
-660275
-660350
-660370
-660537
-660490
-660542
-660630
-660717
-660605
-660671
-660738
-660718
-660830
-660858
-660852
-660916
-661026
-661155
-661118
-661212
-661287
-661356
-661422
-661470
-661560
-661566
-661723
-661833
-661885
-662035
-662175
-662273
-662324
-662464
-662663
-662889
-663082
-663243
-663379
-663649
-663711
-663971
-664129
-664336
-664451
-664660
-664794
-665003
-664997
-665156
-665268
-665432
-665472
-665577
-665584
-665598
-665767
-665817
-665804
-665803
-665918
-665924
-665900
-665923
-665961
-665945
-665971
-665993
-665912
-665889
-665927
-665858
-665872
-665765
-665680
-665710
-665745
-665767
-665684
-665530
-665579
-665592
-665579
-665479
-665424
-665454
-665539
-665450
-665346
-665336
-665349
-665331
-665339
-665269
-665191
-665178
-665191
-665136
-665202
-665111
-665120
-665182
-665155
-665123
-665100
-665198
-665230
-665252
-665245
-665298
-665347
-665376
-665511
-665425
-665505
-665594
-665602
-665741
-665787
-665933
-666031
-666056
-666209
-666258
-666311
-666327
-666510
-666564
-666666
-666654
-666741
-666833
-666967
-666997
-667046
-667148
-667243
-667229
-667302
-667442
-667579
-667553
-667611
-667732
-667819
-667870
-667901
-668067
-668041
-668177
-668236
-668296
-668397
-668414
-668222
-668588
-668709
-668767
-668938
-669004
-669025
-669166
-669235
-669367
-669425
-669557
-669613
-669657
-669688
-669735
-669779
-669846
-669848
-669917
-669995
-669814
-669996
-670281
-670218
-670217
-670251
-670332
-670428
-670519
-670668
-670498
-670703
-670901
-670917
-671027
-671131
-671178
-671260
-671267
-671313
-671392
-671454
-671605
-671600
-671614
-671786
-671776
-671846
-671900
-671984
-672034
-672162
-672063
-672162
-672225
-672252
-672276
-672222
-672214
-672203
-672308
-672422
-672504
-672440
-672528
-672492
-672590
-672599
-672594
-672668
-672785
-672833
-672827
-672911
-672921
-672956
-673021
-673004
-673017
-673119
-673133
-673249
-673225
-673175
-673332
-673430
-673414
-673456
-673432
-673533
-673494
-673542
-673463
-673450
-673853
-673559
-673456
-673424
-673450
-673508
-673502
-673464
-673452
-673448
-673512
-673621
-673655
-673662
-673615
-673586
-673726
-673752
-673838
-673773
-673824
-673850
-673986
-674039
-674041
-674067
-674185
-674146
-674289
-674267
-674301
-674393
-674489
-674521
-674437
-674534
-674743
-674740
-674791
-674856
-674898
-674953
-675032
-675060
-675240
-675208
-675263
-675406
-675415
-675426
-675490
-675694
-675749
-675807
-675930
-675978
-676007
-676145
-676329
-676340
-676444
-676653
-676740
-676820
-676944
-677029
-677191
-677142
-677314
-677321
-677093
-677250
-677326
-677339
-677340
-677497
-677521
-677597
-677546
-677582
-677586
-677572
-677682
-677718
-677575
-677502
-677515
-677389
-677217
-677002
-676754
-676496
-676232
-675777
-675379
-674950
-674418
-674009
-673403
-672827
-672218
-671530
-670876
-670151
-669462
-668801
-668009
-667266
-666561
-665725
-664937
-664230
-663503
-662891
-662124
-661509
-660916
-660276
-659592
-658993
-658394
-657925
-657343
-656777
-656310
-655764
-655341
-654893
-654548
-654075
-653725
-653440
-653086
-653183
-652659
-652260
-651988
-651892
-651730
-651647
-651501
-651383
-651364
-651282
-651124
-651046
-651019
-651073
-650985
-651100
-651003
-651010
-651045
-651042
-651112
-651070
-651048
-651115
-651149
-651233
-651235
-651368
-651449
-651499
-651491
-651607
-651676
-651654
-651704
-651834
-651798
-651877
-651967
-651912
-651936
-651977
-652022
-652005
