PPG
-1968292
-1967564
-1965627
-1965413
-1965285
-1961961
-1962877
-1964577
-1965442
-1965777
-1967869
-1967397
-1965324
-1964485
-1964502
-1961583
-1962215
-1964147
-1965219
-1965631
-1967621
-1967139
-1965286
-1964548
-1963822
-1960641
-1961967
-1964119
-1965034
-1965385
-1967558
-1967104
-1965208
-1964879
-1964638
-1961764
-1962296
-1964192
-1965224
-1965568
-1968083
-1967370
-1965470
-1964920
-1964751
-1961681
-1962660
-1964465
-1965438
-1965793
-1968186
-1967462
-1965238
-1965221
-1965261
-1962108
-1962927
-1964983
-1966055
-1966214
-1968634
-1968205
-1966413
-1966046
-1965823
-1962871
-1963725
-1965726
-1966832
-1967078
-1969254
-1968701
-1966739
-1966504
-1965969
-1963076
-1963949
-1965962
-1968410
-1968782
-1970217
-1969239
-1967451
-1966910
-1966961
-1963894
-1964712
-1966482
-1967462
-1967836
-1969990
-1969400
-1967488
-1967340
-1967130
-1964223
-1964836
-1966922
-1968041
-1968194
-1970374
-1969751
-1967762
-1967599
-1968654
-1964633
-1965106
-1967041
-1968041
-1968069
-1970692
-1970210
-1968406
-1968012
-1967901
-1964890
-1965687
-1967841
-1968786
-1969129
-1971527
-1970930
-1969099
-1968934
-1968881
-1965910
-1966637
-1968531
-1969624
-1970019
-1972410
-1971938
-1970091
-1969835
-1970662
-1966868
-1967243
-1969308
-1970744
-1970964
-1973223
-1972715
-1971002
-1970815
-1970561
-1967681
-1968437
-1970500
-1971832
-1971886
-1974043
-1973317
-1971303
-1970825
-1970538
-1967627
-1968332
-1970522
-1971393
-1971864
-1974007
-1973632
-1971598
-1971205
-1971065
-1968064
-1968917
-1970759
-1971986
-1972297
-1974406
-1973927
-1971886
-1971467
-1971044
-1968060
-1968526
-1970243
-1971171
-1970975
-1972886
-1971814
-1969522
-1970456
-1968441
-1964238
-1964517
-1965905
-1965980
-1965396
-1966999
-1965543
-1962906
-1962155
-1960949
-1957151
-1957212
-1958617
-1958754
-1958122
-1959568
-1958222
-1955462
-1954650
-1953601
-1951217
-1950426
-1951446
-1951698
-1951085
-1952882
-1951828
-1949484
-1949537
-1948066
-1944558
-1944538
-1946043
-1946736
-1947594
-1948872
-1947711
-1945433
-1944763
-1944292
-1940901
-1941408
-1943216
-1943931
-1943847
-1945808
-1945339
-1942690
-1942546
-1942156
-1939148
-1939706
-1941923
-1942809
-1942838
-1945174
-1944512
-1942498
-1942126
-1941843
-1938843
-1939701
-1941681
-1942809
-1942732
-1945210
-1944716
-1942091
-1942283
-1942200
-1939393
-1939841
-1941965
-1943157
-1943319
-1945494
-1945285
-1943334
-1943044
-1942849
-1939803
-1940510
-1942766
-1943602
-1943938
-1946461
-1946099
-1944139
-1943613
-1943391
-1940533
-1941054
-1943073
-1944280
-1944399
-1946751
-1946219
-1944404
-1944170
-1943999
-1941014
-1941681
-1944029
-1944918
-1945189
-1947843
-1947477
-1945440
-1945228
-1945160
-1942264
-1943174
-1945313
-1946264
-1946399
-1948879
-1948522
-1946655
-1946440
-1946552
-1943621
-1944292
-1946663
-1947590
-1947858
-1950354
-1950253
-1948357
-1948202
-1947960
-1945134
-1945869
-1948138
-1949582
-1949588
-1952176
-1951777
-1950156
-1949838
-1949960
-1946926
-1947609
-1949792
-1951106
-1950957
-1953656
-1953268
-1951374
-1951298
-1950926
-1948054
-1948845
-1950911
-1952277
-1952242
-1954672
-1954206
-1952436
-1952278
-1951959
-1948972
-1950013
-1951968
-1953215
-1953101
-1955469
-1954715
-1952586
-1951819
-1951843
-1948940
-1949827
-1951808
-1952818
-1952883
-1955336
-1954749
-1952780
-1952127
-1951851
-1949079
-1949541
-1951843
-1952790
-1952681
-1955096
-1954468
-1952363
-1952036
-1951740
-1948916
-1949557
-1951910
-1952917
-1952793
-1955058
-1954422
-1952457
-1952559
-1952055
-1949106
-1949697
-1952026
-1952738
-1952675
-1955005
-1954579
-1952434
-1952165
-1951977
-1949277
-1949880
-1952128
-1953192
-1953195
-1955411
-1954839
-1953080
-1952827
-1952377
-1949673
-1950220
-1952668
-1953414
-1953459
-1955825
-1955340
-1953044
-1953100
-1954257
-1950567
-1951225
-1953099
-1954341
-1954245
-1956674
-1956104
-1954112
-1953939
-1953688
-1950924
-1951627
-1953898
-1955024
-1955167
-1957556
-1957121
-1955044
-1954902
-1954761
-1951852
-1952535
-1954287
-1955814
-1958332
-1957688
-1955385
-1955330
-1952609
-1955671
-1956364
-1956750
-1958792
-1956407
-1956069
-1953259
-1953803
-1956135
-1956956
-1959561
-1959065
-1956901
-1954120
-1954583
-1956947
-1957854
-1957834
-1960220
-1957868
-1957580
-1957620
-1954802
-1955374
-1958306
-1960647
-1960247
-1958086
-1957978
-1955503
-1957777
-1958597
-1958681
-1961197
-1960611
-1958589
-1955610
-1957612
-1958892
-1959277
-1961431
-1960880
-1958819
-1955985
-1956366
-1959577
-1961859
-1961720
-1959372
-1959141
-1956372
-1959410
-1960236
-1962850
-1962301
-1960260
-1959980
-1959796
-1957129
-1957633
-1961240
-1961232
-1963434
-1963328
-1960902
-1960538
-1960415
-1957602
-1958039
-1959991
-1960744
-1960539
-1963048
-1962387
-1959910
-1959222
-1958516
-1955295
-1955393
-1957396
-1957820
-1957178
-1958770
-1957725
-1954921
-1954049
-1952483
-1949121
-1949217
-1950621
-1950723
-1950099
-1951617
-1950313
-1947373
-1946379
-1945181
-1941769
-1941662
-1943131
-1943344
-1942758
-1944358
-1943415
-1940658
-1939677
-1938325
-1935393
-1935464
-1937446
-1937847
-1937316
-1939327
-1938398
-1935914
-1935308
-1934680
-1931566
-1932016
-1934144
-1934604
-1934301
-1936725
-1936310
-1933942
-1933348
-1933011
-1930003
-1930530
-1932588
-1933674
-1933626
-1935894
-1935498
-1933243
-1933150
-1932845
-1929718
-1930527
-1934163
-1934189
-1933881
-1936450
-1936052
-1933727
-1933493
-1933259
-1930289
-1931165
-1933525
-1934470
-1934393
-1936860
-1936482
-1934355
-1934040
-1934220
-1931330
-1931760
-1934271
-1935149
-1935235
-1937736
-1937231
-1935044
-1934849
-1934446
-1931665
-1931992
-1934656
-1935538
-1935675
-1938092
-1937591
-1935402
-1935247
-1934888
-1931852
-1932541
-1935013
-1935863
-1935779
-1938448
-1938065
-1935643
-1935529
-1934962
-1932066
-1932490
-1934860
-1935883
-1936245
-1938959
-1938670
-1936308
-1936278
-1936232
-1933357
-1933977
-1936745
-1937833
-1937933
-1940769
-1940567
-1938311
-1937839
-1938029
-1935115
-1935999
-1938751
-1939665
-1939272
-1942315
-1942191
-1940057
-1939744
-1939705
-1936629
-1937466
-1940162
-1941345
-1941359
-1944026
-1943640
-1941572
-1941528
-1941120
-1938234
-1939167
-1941958
-1942846
-1942505
-1945399
-1944949
-1943494
-1942650
-1942234
-1939044
-1939888
-1942742
-1943480
-1943699
-1946412
-1946081
-1943629
-1943662
-1943934
-1940390
-1941057
-1943749
-1944601
-1944489
-1947633
-1947088
-1944686
-1944196
-1944073
-1940765
-1941447
-1944072
-1944954
-1944564
-1947369
-1946278
-1944008
-1943879
-1943507
-1940854
-1940954
-1943317
-1943872
-1943681
-1946423
-1945769
-1943294
-1942875
-1942404
-1939109
-1940050
-1943013
-1943883
-1943578
-1946418
-1945893
-1943527
-1943149
-1942882
-1939889
-1940712
-1943514
-1944395
-1944096
-1947252
-1946822
-1944386
-1944161
-1943887
-1941001
-1942015
-1944506
-1945151
-1945087
-1947884
-1947473
-1945067
-1944708
-1944296
-1941069
-1941792
-1944591
-1944867
-1945167
-1948446
-1947710
-1945506
-1944943
-1944548
-1941452
-1942367
-1945205
-1945964
-1945745
-1948704
-1948251
-1945786
-1945650
-1945292
-1942118
-1942892
-1945083
-1946151
-1946148
-1949126
-1948573
-1946415
-1946080
-1945821
-1941914
-1943233
-1946123
-1947072
-1946972
-1949896
-1949258
-1946968
-1946530
-1946374
-1942893
-1943516
-1946521
-1947233
-1946929
-1949841
-1949107
-1946617
-1946109
-1945890
-1942509
-1943262
-1946107
-1946666
-1946444
-1949643
-1949064
-1946593
-1946210
-1945855
-1942583
-1943292
-1946194
-1947292
-1947220
-1950410
-1949753
-1947378
-1947061
-1946712
-1943282
-1945820
-1947484
-1947938
-1947926
-1950665
-1950283
-1947729
-1947306
-1947121
-1943736
-1944605
-1947418
-1948146
-1948080
-1951295
-1950707
-1948140
-1947850
-1947659
-1944147
-1945117
-1948134
-1948879
-1948677
-1953220
-1951545
-1948851
-1948429
-1948054
-1944968
-1945646
-1948383
-1948680
-1949142
-1952540
-1951904
-1949613
-1949086
-1948953
-1945545
-1946431
-1949430
-1950206
-1950324
-1953408
-1952909
-1950488
-1950102
-1949837
-1946539
-1947485
-1950288
-1951156
-1951116
-1954267
-1953634
-1951138
-1950940
-1950441
-1946984
-1947661
-1950377
-1951073
-1950946
-1954067
-1953142
-1950758
-1949976
-1949461
-1945916
-1946427
-1949124
-1949481
-1949057
-1951802
-1950692
-1947917
-1946874
-1946088
-1942043
-1941809
-1944456
-1944616
-1943955
-1946351
-1944935
-1941951
-1940697
-1939647
-1935659
-1935883
-1937780
-1938092
-1937441
-1939587
-1938439
-1935396
-1934277
-1933176
-1929134
-1929236
-1931674
-1931783
-1931335
-1933861
-1932662
-1929628
-1928815
-1928077
-1924144
-1924585
-1926811
-1927500
-1927057
-1929567
-1928793
-1926005
-1925644
-1924968
-1921597
-1922202
-1924856
-1925511
-1925402
-1928246
-1927475
-1925096
-1924502
-1923993
-1920482
-1921401
-1924071
-1924742
-1924676
-1927649
-1926971
-1924295
-1923980
-1923436
-1920063
-1920632
-1924670
-1924513
-1924275
-1927217
-1926359
-1923844
-1923579
-1920079
-1921222
-1923822
-1924764
-1924766
-1927742
-1927317
-1924656
-1924677
-1924400
-1921087
-1921871
-1924834
-1925447
-1925417
-1928323
-1927736
-1925414
-1925002
-1924505
-1921382
-1922185
-1924820
-1925463
-1925522
-1928496
-1927847
-1925518
-1925204
-1924919
-1921421
-1922406
-1925157
-1926063
-1926051
-1929154
-1928806
-1926415
-1926322
-1926178
-1922939
-1923685
-1926828
-1927825
-1927764
-1931032
-1930266
-1928253
-1927892
-1927445
-1924267
-1925373
-1928314
-1929209
-1929262
-1932285
-1931655
-1929536
-1929209
-1929114
-1925895
-1926842
-1929683
-1930709
-1931032
-1934158
-1933731
-1931791
-1931536
-1931489
-1928361
-1929506
-1932374
-1933306
-1933343
-1936410
-1935656
-1933526
-1933075
-1932720
-1929247
-1930152
-1933165
-1933989
-1933808
-1936773
-1936286
-1933775
-1933465
-1932981
-1929623
-1930597
-1933276
-1933891
-1933840
-1936533
-1936221
-1933974
-1933622
-1932820
-1929570
-1930579
-1933302
-1934092
-1934042
-1937068
-1936290
-1934399
-1933642
-1933079
-1929585
-1930186
-1933019
-1933639
-1933553
-1936659
-1935830
-1933708
-1933165
-1932935
-1929488
-1930157
-1933075
-1933727
-1933733
-1936727
-1935986
-1933915
-1933484
-1933141
-1929747
-1930604
-1933411
-1934038
-1934020
-1937029
-1936523
-1934232
-1933888
-1933227
-1929775
-1930920
-1933678
-1934557
-1934383
-1937546
-1936753
-1934644
-1934395
-1933780
-1930316
-1931301
-1934157
-1934857
-1934848
-1938235
-1937510
-1935103
-1934814
-1934620
-1931213
-1932231
-1934941
-1935743
-1935934
-1939068
-1938442
-1935998
-1935977
-1935504
-1932161
-1933012
-1935942
-1936690
-1936755
-1939804
-1939194
-1936890
-1936608
-1936201
-1932803
-1933670
-1936600
-1937245
-1937508
-1940673
-1940072
-1937744
-1937307
-1936955
-1933484
-1934542
-1937328
-1938252
-1938311
-1941281
-1940887
-1938548
-1938206
-1937627
-1934415
-1935211
-1938207
-1938904
-1938818
-1942064
-1941287
-1938855
-1938501
-1938294
-1934734
-1935772
-1938487
-1939208
-1939405
-1942118
-1941736
-1939441
-1939198
-1938655
-1934964
-1935856
-1938693
-1939548
-1939441
-1942703
-1942032
-1939835
-1939234
-1938794
-1935353
-1936145
-1938969
-1940256
-1939799
-1942911
-1943142
-1939908
-1939048
-1938445
-1934924
-1935730
-1938534
-1939385
-1939229
-1941995
-1941394
-1939126
-1938506
-1938000
-1934507
-1935099
-1937900
-1938661
-1938576
-1941401
-1940701
-1938398
-1938012
-1937298
-1933706
-1934657
-1937126
-1937713
-1937373
-1940115
-1939123
-1936118
-1935155
-1935016
-1930334
-1930475
-1932553
-1932802
-1931964
-1934301
-1932948
-1929888
-1928742
-1927455
-1923350
-1923473
-1925523
-1925513
-1924661
-1927135
-1925692
-1922776
-1921510
-1920658
-1916662
-1916945
-1919016
-1919285
-1918671
-1921315
-1920293
-1917345
-1916645
-1915915
-1912070
-1912666
-1915390
-1915769
-1915377
-1918582
-1917734
-1915188
-1914705
-1914022
-1910733
-1911363
-1914066
-1914470
-1914453
-1917318
-1916525
-1913892
-1913265
-1912743
-1909172
-1910142
-1912763
-1913580
-1913443
-1916587
-1916019
-1913669
-1913133
-1912877
-1909444
-1910107
-1912969
-1913904
-1913843
-1916845
-1916126
-1913789
-1913494
-1913151
-1909934
-1910821
-1913811
-1914416
-1914572
-1917504
-1916985
-1914493
-1914091
-1914065
-1910699
-1911348
-1914091
-1915223
-1915122
-1918294
-1917613
-1915075
-1914912
-1914791
-1911403
-1912461
-1915444
-1916164
-1916119
-1919243
-1918778
-1916481
-1916187
-1915885
-1912356
-1913458
-1916486
-1917368
-1917199
-1920345
-1919930
-1917546
-1917306
-1916692
-1913689
-1914808
-1917984
-1918994
-1918876
-1922105
-1921396
-1919166
-1919091
-1918704
-1915393
-1916463
-1919648
-1920531
-1920590
-1923940
-1923286
-1920985
-1920880
-1920647
-1917173
-1918224
-1921133
-1921921
-1921980
-1925302
-1924592
-1922175
-1921904
-1921725
-1918129
-1918980
-1921870
-1922650
-1922439
-1925512
-1925071
-1922613
-1922173
-1921979
-1918689
-1919266
-1922078
-1923037
-1922767
-1925662
-1925157
-1922777
-1922257
-1921967
-1918203
-1919290
-1922102
-1922799
-1922456
-1925312
-1924827
-1922188
-1921736
-1921328
-1917749
-1918767
-1921555
-1921756
-1921736
-1924942
-1924346
-1921825
-1921294
-1920608
-1917074
-1917820
-1920640
-1921272
-1921286
-1924108
-1923559
-1920989
-1920643
-1920230
-1916505
-1917439
-1920078
-1920938
-1920671
-1923886
-1923156
-1920611
-1920533
-1920070
-1916790
-1917495
-1920604
-1921427
-1921150
-1924357
-1923634
-1921292
-1920887
-1920709
-1917030
-1917949
-1920835
-1921643
-1921925
-1924961
-1924439
-1922065
-1921834
-1921300
-1917967
-1919025
-1921917
-1922835
-1922941
-1926064
-1925724
-1923607
-1923127
-1922773
-1919509
-1920517
-1923444
-1924471
-1924577
-1927693
-1927297
-1924839
-1924486
-1924258
-1920789
-1921882
-1924574
-1925316
-1925118
-1928126
-1927504
-1925282
-1924823
-1924607
-1921067
-1921982
-1924951
-1925828
-1925789
-1928677
-1928164
-1925832
-1925552
-1925091
-1926132
-1926012
-1929123
-1928400
-1926197
-1925879
-1925469
-1922158
-1922702
-1925589
-1926466
-1926312
-1929276
-1928632
-1927823
-1926604
-1925804
-1922271
-1923139
-1926035
-1926702
-1926637
-1929792
-1929026
-1926649
-1926155
-1925781
-1922306
-1923477
-1926250
-1926967
-1927005
-1930197
-1929554
-1927364
-1926855
-1926589
-1923126
-1923963
-1926790
-1927690
-1927632
-1930784
-1930205
-1927848
-1927519
-1927055
-1923741
-1924379
-1927314
-1928202
-1927912
-1930994
-1930242
-1927863
-1927513
-1927030
-1923566
-1924244
-1926895
-1927306
-1926941
-1929677
-1929024
-1926375
-1925643
-1924622
-1921010
-1921395
-1923619
-1923918
-1923206
-1925634
-1924190
-1921347
-1920197
-1919058
-1914678
-1914781
-1916988
-1917038
-1916184
-1918638
-1917173
-1914068
-1912937
-1911602
-1907560
-1907646
-1909902
-1909973
-1909079
-1911326
-1909965
-1907017
-1906010
-1905223
-1901130
-1901429
-1903686
-1904134
-1903585
-1906042
-1905221
-1902483
-1901714
-1900694
-1896989
-1897665
-1900222
-1900645
-1900410
-1903178
-1902224
-1899780
-1899228
-1898797
-1895109
-1895744
-1898567
-1899248
-1899076
-1901862
-1901389
-1898899
-1898595
-1898079
-1894568
-1895471
-1898346
-1899166
-1899084
-1902115
-1901694
-1899401
-1899000
-1898503
-1895257
-1895964
-1898857
-1899742
-1899781
-1902756
-1902295
-1900168
-1899655
-1899629
-1896197
-1897062
-1900126
-1901027
-1900896
-1904307
-1903809
-1901285
-1901079
-1900818
-1897290
-1898153
-1901348
-1902048
-1901993
-1905105
-1904755
-1902355
-1902096
-1901873
-1898576
-1899389
-1901872
-1903098
-1903323
-1906469
-1905845
-1903598
-1903274
-1902825
-1899548
-1900554
-1903511
-1904439
-1904380
-1907386
-1906894
-1904399
-1904486
-1904042
-1900601
-1901610
-1904637
-1905496
-1905627
-1908790
-1908505
-1906226
-1905951
-1905779
-1902414
-1903279
-1906571
-1907557
-1907111
-1910474
-1910187
-1907743
-1907256
-1906962
-1903844
-1904755
-1907599
-1908571
-1908373
-1911057
-1910752
-1908420
-1908333
-1907952
-1904793
-1907027
-1909022
-1909584
-1909274
-1912208
-1911653
-1909289
-1909625
-1908837
-1905183
-1906032
-1908649
-1909328
-1909208
-1912250
-1911479
-1909178
-1908709
-1908433
-1904884
-1905705
-1908340
-1909124
-1909039
-1911870
-1911222
-1908938
-1908614
-1908157
-1904597
-1905243
-1908134
-1908925
-1908778
-1911733
-1911177
-1908640
-1908477
-1908001
-1904735
-1904889
-1908304
-1909049
-1908783
-1911812
-1911266
-1909021
-1908464
-1908338
-1905155
-1905509
-1908596
-1909227
-1909075
-1912162
-1911734
-1909175
-1908922
-1908622
-1905244
-1905989
-1908950
-1909584
-1909440
-1912524
-1912032
-1909856
-1909608
-1909120
-1905930
-1906183
-1909317
-1910263
-1910251
-1913451
-1912650
-1910376
-1910001
-1909657
-1906318
-1907075
-1909937
-1910977
-1910815
-1913748
-1913242
-1910686
-1910529
-1910433
-1906942
-1907622
-1910055
-1911168
-1911183
-1914380
-1913979
-1911430
-1911285
-1910884
-1907562
-1908271
-1911173
-1912321
-1912069
-1915022
-1914728
-1912203
-1911840
-1911526
-1908372
-1908901
-1911784
-1912614
-1912472
-1915697
-1915164
-1912808
-1912630
-1912122
-1908912
-1909501
-1912787
-1913540
-1913500
-1916480
-1916268
-1913770
-1913368
-1912936
-1909598
-1910227
-1913211
-1914196
-1914123
-1916886
-1916396
-1913811
-1913527
-1913425
-1910120
-1910906
-1913917
-1914776
-1914440
-1917627
-1917125
-1914450
-1914465
-1914265
-1910903
-1911608
-1914318
-1915158
-1915012
-1918123
-1917514
-1914918
-1914656
-1914504
-1911024
-1911088
-1914313
-1915274
-1915014
-1918019
-1917580
-1914561
-1914177
-1913732
-1910242
-1910759
-1913264
-1913930
-1913593
-1916058
-1915222
-1912428
-1911706
-1911003
-1907046
-1907055
-1909425
-1909683
-1908639
-1911083
-1909653
-1906415
-1905216
-1904487
-1900238
-1900186
-1902311
-1902385
-1901703
-1903766
-1902669
-1899357
-1898453
-1897416
-1893113
-1893573
-1895573
-1895950
-1895334
-1897864
-1896830
-1893625
-1892977
-1892243
-1888138
-1888663
-1891023
-1891453
-1890957
-1893477
-1892700
-1890039
-1889514
-1888887
-1885425
-1885766
-1888399
-1889283
-1888973
-1891805
-1890992
-1888448
-1887892
-1887605
-1884394
-1884796
-1887636
-1888539
-1888432
-1891266
-1890827
-1888369
-1888074
-1887938
-1884522
-1885325
-1887951
-1888998
-1888897
-1891500
-1891393
-1888573
-1888602
-1888306
-1885192
-1885639
-1888492
-1889355
-1889291
-1892318
-1891857
-1889428
-1889221
-1889004
-1885315
-1886052
-1889119
-1890162
-1890145
-1892832
-1892445
-1889733
-1889382
-1889225
-1885845
-1886597
-1889446
-1890442
-1890374
-1893304
-1892768
-1890000
-1889746
-1889524
-1886523
-1887085
-1889832
-1891149
-1890971
-1893921
-1893602
-1891022
-1891168
-1890954
-1887744
-1889447
-1891744
-1892573
-1892704
-1895286
-1895330
-1893113
-1892749
-1893969
-1890282
-1890812
-1893841
-1895065
-1895029
-1897841
-1897079
-1894750
-1894716
-1894041
-1891162
-1891986
-1894980
-1895853
-1896045
-1898959
-1898647
-1897237
-1897550
-1896412
-1892596
-1893163
-1895809
-1896823
-1896759
-1899781
-1899445
-1896864
-1896480
-1896131
-1892943
-1893489
-1896117
-1897081
-1897064
-1899810
-1899660
-1896986
-1896496
-1896064
-1892977
-1893575
-1896051
-1897188
-1897339
-1900167
-1899581
-1896874
-1896638
-1896403
-1892884
-1893560
-1896200
-1897282
-1897048
-1899731
-1899209
-1896264
-1895978
-1895645
-1892377
-1892817
-1895542
-1896506
-1896642
-1899272
-1898791
-1896162
-1895934
-1895436
-1892243
-1892532
-1895288
-1896370
-1896406
-1899108
-1898629
-1895835
-1895554
-1895470
-1892256
-1892978
-1895547
-1896569
-1896536
-1899623
-1899206
-1896633
-1896135
-1896141
-1892619
-1893274
-1896244
-1897174
-1897317
-1900307
-1899580
-1897001
-1896525
-1896321
-1893004
-1893639
-1896341
-1897493
-1897326
-1900433
-1900021
-1897191
-1897116
-1896716
-1893298
-1893921
-1897086
-1897759
-1897764
-1900743
-1900290
-1897250
-1897118
-1896788
-1893478
-1894006
-1896472
-1897629
-1897829
-1900874
-1900316
-1897116
-1897140
-1896900
-1893631
-1894362
-1897118
-1898061
-1898341
-1901146
-1900641
-1898174
-1897937
-1897755
-1894284
-1894946
-1897781
-1898958
-1898482
-1901589
-1901325
-1898567
-1898164
-1898089
-1894545
-1895462
-1898009
-1899251
-1899078
-1902267
-1901589
-1898927
-1898752
-1898558
-1895044
-1895737
-1898531
-1899431
-1899455
-1902402
-1901946
-1899384
-1899076
-1898098
-1895106
-1895785
-1898473
-1899559
-1899502
-1902293
-1901476
-1898813
-1898263
-1898688
-1895393
-1896030
-1898620
-1899801
-1899595
-1902709
-1901862
-1899317
-1898498
-1898358
-1894707
-1895271
-1897852
-1898659
-1898398
-1900853
-1900073
-1896963
-1896036
-1895265
-1891144
-1891252
-1893256
-1893659
-1893201
-1895446
-1894180
-1890640
-1889825
-1888808
-1884275
-1884346
-1886370
-1886840
-1886139
-1888490
-1887289
-1883618
-1882852
-1882159
-1877788
-1877839
-1880130
-1880649
-1880105
-1882560
-1881649
-1878732
-1877867
-1877457
-1873106
-1873617
-1875775
-1876661
-1876606
-1879314
-1878499
-1875740
-1875106
-1874808
-1870863
-1871463
-1874012
-1875276
-1875046
-1877823
-1877577
-1875040
-1874584
-1874166
-1870520
-1871091
-1873930
-1875151
-1875015
-1877898
-1877438
-1874745
-1874489
-1874463
-1870745
-1871626
-1874390
-1875464
-1875322
-1878634
-1878158
-1875574
-1875183
-1875149
-1871455
-1872257
-1875083
-1876431
-1876512
-1879656
-1879167
-1876550
-1876378
-1876062
-1872381
-1873245
-1876001
-1877478
-1877391
-1880419
-1879926
-1877497
-1877200
-1877087
-1873479
-1874362
-1877113
-1878551
-1878652
-1881683
-1881297
-1878756
-1878534
-1878186
-1874602
-1875554
-1878367
-1879546
-1879639
-1882878
-1882328
-1879941
-1879588
-1879607
-1875917
-1876920
-1879820
-1881002
-1881114
-1884307
-1884120
-1881859
-1881565
-1881479
-1877975
-1878886
-1881601
-1883041
-1883002
-1886268
-1885786
-1883550
-1883263
-1883185
-1879452
-1880361
-1882996
-1884310
-1884497
-1887482
-1887219
-1884726
-1884392
-1884099
-1880555
-1881414
-1883966
-1885359
-1885536
-1888227
-1887756
-1885453
-1884923
-1884769
-1880863
-1881556
-1884417
-1885357
-1885512
-1888362
-1887665
-1885117
-1884650
-1884473
-1880629
-1881229
-1883764
-1885032
-1884908
-1888011
-1887303
-1884653
-1884421
-1884076
-1880185
-1880624
-1883328
-1884521
-1884433
-1887228
-1886553
-1884059
-1883413
-1883098
-1879470
-1879925
-1882559
-1883671
-1883638
-1886627
-1885942
-1883223
-1883115
-1882905
-1879093
-1879735
-1882398
-1883754
-1883612
-1886857
-1886283
-1883934
-1883361
-1883225
-1879335
-1879836
-1882661
-1883593
-1884025
-1887159
-1886596
-1884248
-1883856
-1883595
-1880128
-1880759
-1883432
-1884675
-1884814
-1887994
-1887357
-1884827
-1884416
-1884401
-1880531
-1881527
-1884180
-1885209
-1885279
-1888225
-1887838
-1885468
-1885088
-1884856
-1881375
-1881704
-1884340
-1885620
-1885735
-1888742
-1888310
-1885862
-1885459
-1885412
-1881577
-1882356
-1884914
-1886278
-1886247
-1889286
-1888802
-1885718
-1886713
-1886046
-1882353
-1883063
-1885525
-1886604
-1886815
-1889888
-1889335
-1886942
-1886593
-1886305
-1882850
-1883429
-1886072
-1888321
-1887786
-1890597
-1890086
-1887827
-1887225
-1887161
-1883387
-1884303
-1886840
-1887881
-1888439
-1891491
-1891057
-1888537
-1888171
-1887730
-1884028
-1885049
-1887664
-1888840
-1889082
-1892178
-1891541
-1889121
-1888754
-1888450
-1884802
-1885599
-1888099
-1889570
-1889757
-1892478
-1892249
-1889689
-1889209
-1889113
-1885696
-1886430
-1888899
-1890794
-1890718
-1893529
-1892934
-1890500
-1891623
-1890401
-1886346
-1886876
-1889142
-1890252
-1890497
-1893280
-1892465
-1891517
-1889847
-1888986
-1884983
-1885412
-1887860
-1888743
-1888717
-1891115
-1889985
-1887081
-1886248
-1885394
-1881316
-1881401
-1883237
-1883859
-1883354
-1885443
-1884045
-1880929
-1879888
-1878839
-1874293
-1874482
-1876272
-1876631
-1876093
-1878410
-1877256
-1873944
-1872757
-1871673
-1867365
-1867582
-1869431
-1870335
-1869803
-1872102
-1871210
-1868314
-1867210
-1866633
-1862415
-1862623
-1864809
-1865709
-1865451
-1868102
-1867275
-1864557
-1863344
-1863203
-1859527
-1860109
-1862343
-1863483
-1863772
-1866400
-1865910
-1863410
-1862992
-1862637
-1858725
-1859505
-1862150
-1863362
-1863695
-1866545
-1865810
-1863492
-1862910
-1862739
-1858999
-1859736
-1862277
-1863729
-1863854
-1866796
-1866399
-1864063
-1863721
-1863457
-1859799
-1860580
-1863123
-1864488
-1864631
-1867466
-1866975
-1864492
-1864294
-1864063
-1860539
-1861158
-1863744
-1865063
-1865337
-1868238
-1867712
-1865559
-1865140
-1865034
-1861268
-1862259
-1864815
-1866109
-1866325
-1869336
-1868972
-1866667
-1866455
-1866211
-1862745
-1863486
-1866508
-1867871
-1868216
-1871184
-1870544
-1868350
-1868022
-1868081
-1864478
-1865553
-1868265
-1869523
-1869524
-1872367
-1873047
-1870467
-1869828
-1869753
-1866001
-1866996
-1869506
-1870827
-1871232
-1874245
-1873951
-1871500
-1871100
-1871073
-1867343
-1868283
-1870887
-1872161
-1873993
-1875944
-1875115
-1872954
-1872331
-1872059
-1868430
-1869323
-1871862
-1873084
-1873656
-1876433
-1875702
-1873442
-1872893
-1872675
-1868979
-1869880
-1872385
-1873629
-1873869
-1876603
-1875874
-1873484
-1872904
-1872734
-1868954
-1869470
-1871907
-1873179
-1873271
-1876031
-1875503
-1873024
-1872595
-1872460
-1868467
-1869278
-1871293
-1872646
-1873104
-1876097
-1875392
-1872883
-1872322
-1871990
-1867783
-1868965
-1871276
-1872461
-1872823
-1875840
-1874951
-1872592
-1871956
-1871720
-1867998
-1868826
-1871160
-1872431
-1872559
-1875593
-1874742
-1872286
-1871816
-1871867
-1867949
-1868571
-1871035
-1872426
-1872559
-1875452
-1874964
-1872549
-1871917
-1871700
-1867917
-1868895
-1871261
-1872529
-1873091
-1876006
-1875319
-1872801
-1872333
-1872329
-1868597
-1869515
-1872033
-1873212
-1873600
-1876391
-1875968
-1873565
-1873032
-1872897
-1869145
-1869873
-1872338
-1873708
-1874105
-1876939
-1876388
-1874100
-1873841
-1873645
-1869814
-1870590
-1873170
-1874516
-1874532
-1877708
-1877224
-1874889
-1874512
-1874423
-1870627
-1871395
-1873588
-1875141
-1875806
-1878632
-1878029
-1875839
-1875408
-1875151
-1871473
-1872360
-1874494
-1875954
-1876458
-1879444
-1878928
-1876366
-1876170
-1875913
-1872464
-1873221
-1875518
-1876711
-1877093
-1880087
-1879482
-1877416
-1877043
-1876919
-1873151
-1874085
-1876420
-1877595
-1878001
-1880821
-1880372
-1878020
-1877467
-1877301
-1873603
-1874595
-1876974
-1878084
-1878457
-1881418
-1880908
-1878520
-1877549
-1877737
-1873817
-1874806
-1877224
-1878334
-1878770
-1881735
-1881162
-1878636
-1878155
-1878025
-1874512
-1875271
-1877808
-1878999
-1879243
-1882238
-1881516
-1879135
-1878736
-1878751
-1875160
-1877530
-1878634
-1879426
-1879546
-1882508
-1881904
-1879277
-1878875
-1878705
-1874897
-1875671
-1877661
-1878685
-1878749
-1881475
-1880608
-1877864
-1877194
-1876694
-1872530
-1872712
-1874740
-1875424
-1874719
-1877452
-1876194
-1873183
-1872098
-1871375
-1866980
-1867052
-1868586
-1868944
-1868478
-1870555
-1869163
-1866382
-1865112
-1864201
-1860123
-1860145
-1861874
-1862508
-1862195
-1864710
-1863490
-1860602
-1859542
-1858911
-1854758
-1854937
-1856547
-1857570
-1857548
-1859904
-1859114
-1856546
-1855645
-1855211
-1851446
-1851972
-1854107
-1855249
-1855497
-1858147
-1857210
-1854877
-1854509
-1854343
-1850673
-1851562
-1853779
-1854825
-1855116
-1858060
-1857378
-1855113
-1854656
-1854273
-1850749
-1851506
-1853971
-1855137
-1855418
-1858352
-1857622
-1855346
-1855167
-1855071
-1851301
-1852199
-1854852
-1856158
-1856640
-1859613
-1858758
-1856342
-1856328
-1856453
-1852667
-1853688
-1856116
-1857301
-1857568
-1860731
-1859909
-1857736
-1857404
-1857292
-1853773
-1854724
-1857056
-1858398
-1859037
-1861822
-1861172
-1859156
-1858749
-1858880
-1855325
-1856030
-1858590
-1859977
-1860544
-1863606
-1862966
-1860836
-1860418
-1860672
-1857046
-1857987
-1860262
-1861527
-1861979
-1864955
-1864276
-1862380
-1862088
-1861879
-1858554
-1858237
-1861310
-1862960
-1863458
-1866612
-1865853
-1863750
-1863168
-1863045
-1859391
-1860352
-1862811
-1863982
-1864412
-1867201
-1866284
-1864212
-1863609
-1863408
-1859695
-1860514
-1862581
-1863818
-1864282
-1867074
-1866178
-1863574
-1862928
-1862698
-1858953
-1859787
-1862082
-1863448
-1863794
-1867737
-1867484
-1864069
-1863005
-1862755
-1859059
-1859666
-1861960
-1863010
-1863487
-1866088
-1865350
-1863051
-1862186
-1862008
-1858318
-1858730
-1861058
-1862296
-1862782
-1865634
-1864804
-1862368
-1861939
-1861935
-1858219
-1859010
-1861333
-1862519
-1862732
-1865594
-1864973
-1862542
-1862229
-1862049
-1858386
-1859185
-1861519
-1862147
-1862836
-1865704
-1864996
-1862702
-1862209
-1862092
-1858529
-1859409
-1861751
-1862900
-1863240
-1866213
-1865503
-1863131
-1862577
-1862563
-1858945
-1859797
-1862136
-1863244
-1863846
-1866882
-1866137
-1863748
-1863529
-1863291
-1859739
-1860566
-1862650
-1863757
-1864101
-1867162
-1866441
-1863985
-1863386
-1863437
-1859680
-1860559
-1862754
-1864059
-1864399
-1867349
-1866631
-1864330
-1864087
-1864026
-1860193
-1861213
-1863437
-1864658
-1865154
-1868024
-1867417
-1865010
-1864397
-1864360
-1860757
-1861755
-1864013
-1865055
-1865588
-1868579
-1867647
-1865588
-1865089
-1864923
-1861601
-1862390
-1864655
-1865877
-1866281
-1869220
-1868489
-1866467
-1865826
-1865974
-1862218
-1863316
-1865377
-1866440
-1866954
-1869945
-1869208
-1867034
-1866401
-1866669
-1862820
-1863976
-1866325
-1867480
-1868072
-1870923
-1870152
-1867959
-1867497
-1867311
-1863383
-1864348
-1866730
-1868008
-1868549
-1871223
-1870540
-1868382
-1867224
-1867678
-1864048
-1865001
-1867168
-1868210
-1868734
-1871430
-1870593
-1868251
-1867753
-1867501
-1863637
-1864460
-1866467
-1867453
-1867715
-1870131
-1869177
-1866455
-1865686
-1865371
-1861213
-1861488
-1863234
-1863898
-1863920
-1866212
-1864821
-1861823
-1860771
-1860089
-1855684
-1855771
-1857445
-1858041
-1857963
-1860011
-1858515
-1855842
-1854693
-1854014
-1849592
-1849990
-1851614
-1851881
-1851771
-1854819
-1852951
-1850103
-1849211
-1848507
-1844477
-1844795
-1846761
-1847605
-1847550
-1850202
-1849237
-1846621
-1846023
-1845527
-1841553
-1842241
-1844425
-1845347
-1845644
-1848470
-1847696
-1845276
-1844766
-1844484
-1840787
-1841505
-1843629
-1844719
-1845151
-1847989
-1847165
-1845084
-1844599
-1844322
-1840521
-1841595
-1843835
-1844913
-1845542
-1848382
-1847537
-1845571
-1844973
-1844917
-1841319
-1842335
-1844616
-1845885
-1846278
-1849057
-1848542
-1846437
-1845904
-1845978
-1842295
-1843055
-1845134
-1846458
-1847141
-1849950
-1849355
-1847234
-1846699
-1846850
-1843286
-1844158
-1846512
-1847784
-1848408
-1851466
-1850826
-1848698
-1848391
-1848387
-1844913
-1845808
-1848062
-1849537
-1850117
-1853148
-1852471
-1850414
-1850013
-1850099
-1846171
-1847434
-1849480
-1850905
-1851455
-1854551
-1853996
-1851896
-1851549
-1851260
-1847581
-1848799
-1850861
-1852283
-1852714
-1855645
-1854935
-1852827
-1852543
-1852374
-1848834
-1849699
-1851919
-1853340
-1853946
-1856703
-1856135
-1853971
-1853525
-1853429
-1849702
-1850584
-1852663
-1853679
-1854400
-1857059
-1856486
-1854205
-1853652
-1853615
-1849584
-1850693
-1852496
-1853745
-1854267
-1856897
-1855968
-1853795
-1853257
-1852949
-1849340
-1850226
-1852169
-1853256
-1853860
-1856690
-1855775
-1853476
-1853066
-1852803
-1849153
-1849939
-1852008
-1853154
-1853688
-1856446
-1855786
-1853316
-1853030
-1852804
-1848892
-1849867
-1851986
-1853083
-1853523
-1856432
-1855594
-1853525
-1852806
-1852676
-1848915
-1849976
-1851946
-1853005
-1853585
-1856440
-1855625
-1853443
-1853040
-1852907
-1849196
-1850288
-1852383
-1853605
-1854181
-1857014
-1856248
-1854118
-1853586
-1853570
-1849746
-1850682
-1852723
-1854224
-1854793
-1857448
-1856970
-1854723
-1854264
-1854087
-1850399
-1851233
-1853424
-1854679
-1855113
-1857842
-1857308
-1855052
-1854568
-1854235
-1850618
-1851642
-1853728
-1854992
-1855519
-1858354
-1857539
-1855388
-1854984
-1854745
-1851122
-1852130
-1854193
-1855584
-1856269
-1859059
-1858502
-1856377
-1855893
-1855513
-1851989
-1853336
-1855618
-1856741
-1857631
-1860254
-1859712
-1857716
-1857389
-1857277
-1853676
-1854631
-1857007
-1858226
-1858882
-1861549
-1860933
-1859048
-1858433
-1858385
-1854792
-1855792
-1858021
-1859152
-1859831
-1862717
-1861806
-1859669
-1859257
-1858962
-1855191
-1856130
-1858349
-1859551
-1860253
-1862809
-1862321
-1860082
-1859484
-1859314
-1855459
-1856581
-1858562
-1859747
-1860327
-1863276
-1862504
-1860279
-1859961
-1859693
-1855915
-1857121
-1859141
-1860332
-1861167
-1863822
-1863143
-1860771
-1860172
-1859855
-1856093
-1856967
-1859016
-1860061
-1860327
-1862751
-1861899
-1859204
-1858253
-1857636
-1854051
-1853829
-1855348
-1855940
-1855741
-1857862
-1856382
-1853527
-1852359
-1851219
-1846846
-1846952
-1848426
-1848743
-1848759
-1850709
-1849223
-1846427
-1845181
-1844529
-1840165
-1840282
-1841808
-1842461
-1842808
-1844930
-1843647
-1840933
-1839955
-1839082
-1834953
-1835394
-1837225
-1838018
-1838372
-1840865
-1839608
-1837209
-1836518
-1836001
-1831758
-1832651
-1834649
-1835711
-1836084
-1838575
-1837872
-1835627
-1834969
-1834355
-1830363
-1831261
-1833405
-1834447
-1835079
-1837720
-1836866
-1834734
-1834298
-1833826
-1830040
-1831087
-1833374
-1834600
-1835225
-1838066
-1837280
-1834990
-1834469
-1834423
-1830604
-1831634
-1833736
-1835089
-1835793
-1838562
-1838086
-1835982
-1835369
-1835138
-1831491
-1832476
-1834727
-1835762
-1836363
-1839441
-1838770
-1836628
-1835955
-1835776
-1831975
-1833240
-1835225
-1836675
-1837411
-1840068
-1839590
-1837226
-1836763
-1836573
-1832769
-1833782
-1835998
-1837290
-1838222
-1840928
-1840293
-1838086
-1837767
-1837504
-1833686
-1834714
-1837093
-1838344
-1839120
-1841949
-1841171
-1839196
-1838564
-1838413
-1834741
-1835778
-1837931
-1839310
-1840086
-1842921
-1842109
-1839855
-1839379
-1838955
-1835388
-1836578
-1838552
-1839787
-1840607
-1843528
-1842833
-1840712
-1840265
-1840298
-1836352
-1837443
-1839601
-1841014
-1841786
-1844575
-1844118
-1841769
-1841243
-1841189
-1837813
-1838539
-1840773
-1841931
-1842828
-1845562
-1845244
-1842877
-1842386
-1842283
-1838487
-1839562
-1841880
-1842930
-1843655
-1846447
-1845665
-1843561
-1842975
-1842855
-1839222
-1839989
-1842269
-1843318
-1844173
-1846906
-1846164
-1843888
-1843394
-1843101
-1839156
-1840177
-1842211
-1843430
-1844154
-1846962
-1846441
-1844201
-1843588
-1843253
-1839522
-1840372
-1842350
-1843682
-1844437
-1847284
-1846483
-1844324
-1843753
-1843442
-1839966
-1840804
-1842874
-1844221
-1844874
-1847614
-1846838
-1844571
-1845211
-1844172
-1840831
-1841334
-1843343
-1844422
-1845273
-1848009
-1847352
-1845287
-1844575
-1844327
-1840635
-1841659
-1844014
-1845179
-1846111
-1848885
-1848369
-1846336
-1845498
-1845372
-1841598
-1842839
-1845033
-1846198
-1847030
-1849849
-1849240
-1847210
-1846754
-1846452
-1842810
-1843966
-1845899
-1847057
-1848116
-1850833
-1850252
-1847980
-1847467
-1847255
-1843580
-1844431
-1846371
-1847655
-1848621
-1851359
-1850564
-1848390
-1847861
-1847497
-1843726
-1844601
-1846873
-1848239
-1848969
-1851631
-1850986
-1848528
-1847959
-1847855
-1844157
-1845048
-1847302
-1848389
-1849097
-1851940
-1851282
-1849331
-1848818
-1848375
-1844736
-1845843
-1847946
-1849278
-1850015
-1852754
-1852178
-1849801
-1849099
-1848876
-1845395
-1846182
-1848165
-1849438
-1850235
-1853052
-1852402
-1850163
-1849770
-1849393
-1845580
-1846642
-1849687
-1850378
-1852318
-1854030
-1853156
-1850907
-1850304
-1849684
-1846427
-1847434
-1849792
-1850936
-1851551
-1854352
-1853842
-1851713
-1851077
-1850587
-1847026
-1847814
-1850013
-1851031
-1851542
-1854150
-1853323
-1850883
-1850045
-1849357
-1845230
-1845587
-1847395
-1848103
-1850032
-1850964
-1849603
-1846562
-1845129
-1844001
-1839568
-1839924
-1841269
-1841847
-1841982
-1843969
-1842645
-1839625
-1838411
-1837341
-1832895
-1833075
-1834658
-1835718
-1835768
-1837998
-1836863
-1833999
-1832897
-1832109
-1829141
-1828874
-1830434
-1831245
-1831510
-1833914
-1833047
-1830431
-1829702
-1828972
-1824839
-1825612
-1827642
-1828783
-1829257
-1831855
-1831244
-1828667
-1827885
-1827453
-1823677
-1824392
-1826354
-1827639
-1828581
-1831411
-1830686
-1828460
-1827797
-1827295
-1823797
-1824617
-1826895
-1828171
-1828858
-1831877
-1831403
-1829011
-1828276
-1827922
-1824197
-1824942
-1827300
-1828527
-1829283
-1832054
-1831426
-1829032
-1828619
-1828161
-1824625
-1825507
-1827645
-1828993
-1829862
-1832744
-1832047
-1830006
-1829799
-1829315
-1825630
-1826503
-1828780
-1829702
-1830794
-1833738
-1833288
-1831153
-1830596
-1830248
-1826456
-1827369
-1829721
-1831006
-1831877
-1834548
-1834173
-1831717
-1831124
-1830896
-1827091
-1827985
-1830417
-1831903
-1832675
-1835502
-1835101
-1832675
-1832193
-1832080
-1829038
-1829432
-1831566
-1833005
-1833920
-1836716
-1838044
-1834516
-1833718
-1833527
-1829879
-1831086
-1833357
-1834862
-1835646
-1838611
-1838155
-1835594
-1835507
-1835221
-1831720
-1832638
-1835010
-1836403
-1837397
-1840277
-1839635
-1837654
-1836933
-1836897
-1833121
-1834093
-1836253
-1837558
-1838516
-1841199
-1840647
-1838498
-1838000
-1837648
-1833836
-1834667
-1837004
-1838356
-1839056
-1843081
-1841732
-1839115
-1838488
-1837486
-1833962
-1835047
-1837106
-1838496
-1839135
-1841829
-1841101
-1838755
-1838084
-1837859
-1833966
-1834838
-1837198
-1838475
-1839171
-1842028
-1841373
-1838879
-1838166
-1837860
-1833750
-1835004
-1837109
-1838430
-1839321
-1841931
-1841150
-1838852
-1838337
-1837868
-1834079
-1834928
-1837387
-1838795
-1839325
-1842183
-1841714
-1839390
-1838840
-1838395
-1834675
-1835718
-1837873
-1839322
-1840004
-1842812
-1842300
-1840048
-1839519
-1838956
-1835564
-1836763
-1838943
-1839891
-1840444
-1843541
-1842954
-1840609
-1839942
-1839611
-1836038
-1836852
-1839246
-1840478
-1841064
-1844003
-1843597
-1841150
-1840687
-1840355
-1836754
-1837685
-1840065
-1841425
-1842070
-1844799
-1844364
-1842010
-1841483
-1841389
-1837409
-1838127
-1840553
-1841831
-1842728
-1845397
-1844851
-1842459
-1842118
-1841894
-1838093
-1838900
-1841155
-1842440
-1843109
-1846155
-1845553
-1843270
-1842686
-1842365
-1838768
-1839748
-1843126
-1843868
-1844270
-1847215
-1846545
-1844157
-1843618
-1843456
-1839803
-1840676
-1842799
-1844129
-1844936
-1847842
-1847558
-1845145
-1844400
-1843998
-1840182
-1841053
-1843450
-1844771
-1845809
-1848753
-1847954
-1845825
-1845064
-1844806
-1841061
-1841856
-1844057
-1845481
-1846428
-1849219
-1848473
-1846107
-1845798
-1845586
-1841905
-1842716
-1845008
-1846278
-1846955
-1849869
-1849356
-1847061
-1846583
-1846261
-1842605
-1843262
-1845780
-1847109
-1847758
-1850792
-1850339
-1848013
-1847395
-1847302
-1843438
-1844344
-1846477
-1847496
-1848619
-1851378
-1851009
-1848588
-1847955
-1848484
-1843557
-1843779
-1845669
-1846991
-1847382
-1849669
-1848656
-1845747
-1844860
-1843504
-1839410
-1839639
-1841428
-1842155
-1842395
-1844477
-1843114
-1840090
-1838800
-1837949
-1833544
-1833626
-1835101
-1835764
-1835678
-1837709
-1836649
-1833495
-1832214
-1831450
-1827142
-1827374
-1829114
-1829770
-1829846
-1832189
-1831203
-1828494
-1827530
-1826645
-1822361
-1822775
-1824683
-1825898
-1826223
-1828980
-1828116
-1825469
-1824887
-1824523
-1820351
-1821020
-1823106
-1824498
-1825326
-1828238
-1827431
-1825279
-1824456
-1824388
-1820456
-1821171
-1823300
-1824777
-1825569
-1828358
-1827844
-1825480
-1824846
-1824615
-1820989
-1821707
-1823881
-1825417
-1826348
-1829160
-1828804
-1826452
-1825864
-1825911
-1822097
-1823056
-1825181
-1826740
-1827421
-1830401
-1829839
-1827738
-1827047
-1826890
-1823114
-1823992
-1826598
-1828081
-1828849
-1831662
-1831266
-1828830
-1828202
-1827999
-1824383
-1825460
-1827550
-1829001
-1829771
-1832854
-1832286
-1830185
-1829541
-1829417
-1825688
-1826631
-1828887
-1830482
-1831349
-1834362
-1833778
-1831940
-1831439
-1831318
-1827616
-1828479
-1831005
-1832402
-1833370
-1836226
-1835759
-1834489
-1833370
-1832998
-1829471
-1830484
-1832605
-1834218
-1835093
-1837881
-1837500
-1835437
-1834691
-1834698
-1830779
-1831666
-1833975
-1835392
-1836170
-1839042
-1838736
-1836421
-1835686
-1835551
-1831818
-1832815
-1834852
-1836305
-1837149
-1839816
-1839132
-1836920
-1836225
-1835967
-1832022
-1832857
-1834848
-1836191
-1836810
-1839636
-1839265
-1836934
-1836953
-1836245
-1832240
-1832844
-1834918
-1836300
-1837082
-1839762
-1839108
-1836718
-1835728
-1835525
-1831382
-1832209
-1834328
-1835813
-1836471
-1839292
-1838714
-1836332
-1835346
-1835200
-1831249
-1832169
-1834298
-1835496
-1836170
-1839011
-1838614
-1836397
-1835635
-1835203
-1831423
-1832037
-1834379
-1835714
-1836493
-1839231
-1838860
-1836615
-1836055
-1835623
-1831827
-1832585
-1834709
-1836161
-1837082
-1839942
-1839488
-1837197
-1837609
-1836391
-1833281
-1833290
-1835589
-1836729
-1837769
-1840376
-1839854
-1837730
-1836937
-1837025
-1832895
-1833619
-1836115
-1837409
-1838300
-1841204
-1840644
-1838373
-1837707
-1837701
-1833657
-1834442
-1836854
-1838226
-1839051
-1842045
-1841631
-1839203
-1838620
-1838428
-1834506
-1835379
-1837649
-1838969
-1839892
-1842573
-1842253
-1839973
-1839292
-1839126
-1835032
-1835932
-1838393
-1839843
-1840381
-1843371
-1842794
-1840038
-1839768
-1839637
-1835962
-1836641
-1839126
-1840260
-1841135
-1844098
-1843464
-1841156
-1840515
-1840478
-1836703
-1837282
-1839153
-1840812
-1841662
-1844481
-1843964
-1841645
-1841014
-1840853
-1836676
-1837566
-1839703
-1841146
-1841812
-1844656
-1843860
-1841457
-1840944
-1840395
-1836618
-1837257
-1839345
-1840737
-1841467
-1844385
-1843921
-1841582
-1840835
-1840644
-1836767
-1837297
-1839689
-1840994
-1841695
-1844501
-1844170
-1841924
-1840878
-1840834
-1837251
-1838084
-1839785
-1841819
-1842600
-1845362
-1845037
-1842618
-1842165
-1841996
-1838110
-1838799
-1840749
-1842533
-1843340
-1846217
-1845593
-1843293
-1842721
-1842828
-1839038
-1839845
-1841953
-1843349
-1844228
-1847045
-1846693
-1844372
-1843736
-1843554
-1839707
-1840612
-1842666
-1843976
-1844716
-1847695
-1847115
-1844816
-1844005
-1843511
-1839412
-1840134
-1842055
-1842981
-1843714
-1846217
-1845312
-1842584
-1841511
-1840863
-1835991
-1836433
-1838219
-1838750
-1838682
-1840835
-1839620
-1838151
-1835498
-1834344
-1829638
-1829677
-1831253
-1832196
-1832167
-1834335
-1833401
-1830301
-1829007
-1828330
-1823812
-1824050
-1825836
-1826764
-1827142
-1829549
-1828610
-1825801
-1824538
-1824074
-1819632
-1820034
-1822175
-1823294
-1823754
-1826370
-1825711
-1823347
-1822513
-1822413
-1818268
-1818947
-1821004
-1822361
-1823222
-1826169
-1825593
-1823421
-1822191
-1822530
-1818738
-1819548
-1822019
-1823374
-1824352
-1827276
-1826890
-1824511
-1824078
-1823933
-1820096
-1820987
-1823345
-1825086
-1826042
-1828772
-1828714
-1826427
-1825782
-1825740
-1821968
-1822668
-1825122
-1826675
-1827483
-1830296
-1830272
-1827918
-1827282
-1827020
-1823247
-1823910
-1826397
-1827964
-1828830
-1831585
-1831148
-1828909
-1828285
-1828219
-1824587
-1825203
-1827681
-1828990
-1829853
-1832830
-1832687
-1830280
-1829536
-1829556
-1825812
-1826696
-1828920
-1830432
-1831255
-1834212
-1834002
-1831825
-1831290
-1831056
-1827330
-1827988
-1830467
-1832145
-1832889
-1835891
-1835664
-1833720
-1832943
-1832719
-1829256
-1829959
-1832461
-1834191
-1835135
-1837851
-1837554
-1835447
-1834972
-1834903
-1831065
-1831902
-1834066
-1835610
-1836595
-1839235
-1838890
-1836375
-1835729
-1835555
-1831708
-1832164
-1834441
-1835988
-1836532
-1839178
-1839062
-1836661
-1835870
-1835545
-1831715
-1832288
-1834451
-1835706
-1836454
-1839155
-1838698
-1836395
-1835356
-1835174
-1831314
-1831902
-1833960
-1835494
-1836001
-1838650
-1838335
-1835810
-1834964
-1834807
-1831069
-1831676
-1833852
-1835124
-1835840
-1838516
-1838412
-1836035
-1835263
-1834971
-1830910
-1831589
-1833954
-1835217
-1836059
-1838684
-1838406
-1836071
-1835240
-1834939
-1831371
-1831748
-1834164
-1835474
-1836025
-1838925
-1838550
-1836295
-1835528
-1835198
-1831546
-1832100
-1834577
-1835903
-1836439
-1839386
-1839180
-1836681
-1835968
-1836040
-1832266
-1832547
-1835009
-1836369
-1837339
-1840081
-1839681
-1837392
-1836816
-1836493
-1832548
-1833235
-1835487
-1837112
-1837714
-1840655
-1840336
-1837899
-1837181
-1837185
-1833394
-1834000
-1836297
-1837706
-1838290
-1841335
-1840963
-1838612
-1837952
-1837688
-1833816
-1834527
-1836929
-1838335
-1839169
-1842238
-1841876
-1839554
-1838772
-1838730
-1834672
-1835300
-1837663
-1840702
-1840417
-1842925
-1842521
-1840116
-1839509
-1839403
-1835596
-1836245
-1838520
-1840049
-1840914
-1843769
-1843219
-1841108
-1840391
-1840004
-1836212
-1836839
-1839162
-1840810
-1841417
-1844537
-1844110
-1841843
-1841204
-1841071
-1837003
-1837788
-1840029
-1841555
-1842267
-1845134
-1844912
-1842657
-1841872
-1841636
-1837798
-1838764
-1842040
-1842670
-1843534
-1846424
-1846158
-1843748
-1843326
-1842726
-1839270
-1840136
-1842337
-1843924
-1844704
-1847667
-1847349
-1844739
-1843833
-1843837
-1840054
-1840553
-1842846
-1844224
-1845042
-1847781
-1847436
-1845142
-1844582
-1844291
-1840546
-1841310
-1843607
-1844843
-1845501
-1848572
-1848132
-1845811
-1845203
-1844913
-1841154
-1841970
-1844151
-1845781
-1846620
-1849362
-1848951
-1846676
-1845921
-1845322
-1841724
-1842707
-1845000
-1846358
-1846936
-1849543
-1849093
-1846632
-1845843
-1845261
-1841218
-1841490
-1843101
-1844521
-1845179
-1847556
-1846518
-1843641
-1842353
-1842315
-1837513
-1837232
-1838965
-1839636
-1841676
-1840693
-1837605
-1836180
-1835375
-1830843
-1831018
-1832687
-1833493
-1833608
-1835801
-1834928
-1831822
-1830664
-1829700
-1825393
-1825531
-1827265
-1828394
-1828734
-1831205
-1830248
-1827427
-1826246
-1825783
-1821756
-1822244
-1824136
-1825472
-1825769
-1828406
-1827959
-1825267
-1824504
-1824262
-1820307
-1820848
-1823000
-1824241
-1825107
-1828033
-1827604
-1825280
-1824481
-1824519
-1820826
-1821370
-1823950
-1825313
-1826178
-1829219
-1828288
-1826445
-1825850
-1826008
-1822284
-1822969
-1825339
-1827026
-1827828
-1830582
-1830196
-1828093
-1827386
-1823736
-1824512
-1826793
-1828458
-1829172
-1832003
-1831518
-1829390
-1828674
-1828180
-1824745
-1825651
-1828026
-1829628
-1830507
-1833423
-1833226
-1830808
-1830138
-1830014
-1826265
-1827096
-1829577
-1831235
-1832172
-1835003
-1834689
-1832229
-1831694
-1831703
-1828201
-1828886
-1831285
-1832807
-1833625
-1836816
-1836592
-1834201
-1833758
-1833749
-1829843
-1830705
-1833010
-1834718
-1835772
-1838648
-1838402
-1836120
-1835568
-1835592
-1831755
-1832560
-1834984
-1836400
-1837184
-1840164
-1839548
-1836881
-1836560
-1836544
-1832701
-1833623
-1836022
-1838539
-1838334
-1841021
-1840482
-1838027
-1837249
-1837114
-1833127
-1834092
-1836332
-1837619
-1838170
-1840874
-1840484
-1838133
-1837485
-1837078
-1833216
-1833802
-1836281
-1837620
-1838282
-1840814
-1840120
-1837946
-1837087
-1837155
-1832956
-1833555
-1835793
-1837071
-1837696
-1839999
-1839601
-1837056
-1836410
-1835968
-1832256
-1832878
-1834859
-1836024
-1836585
-1839403
-1838803
-1836464
-1835557
-1835282
-1831478
-1831912
-1834150
-1835603
-1836295
-1838977
-1838463
-1835902
-1835238
-1834961
-1831332
-1832003
-1833983
-1835539
-1836103
-1839095
-1838478
-1836152
-1835393
-1835086
-1831348
-1831975
-1834277
-1835794
-1836730
-1839374
-1839050
-1836662
-1835982
-1835604
-1831972
-1832993
-1835157
-1836668
-1837434
-1840250
-1839696
-1837413
-1836707
-1836550
-1832737
-1833300
-1835606
-1836944
-1837792
-1840497
-1840283
-1838004
-1837422
-1837190
-1833387
-1834161
-1836300
-1837748
-1838668
-1841551
-1840942
-1838774
-1838181
-1838192
-1834431
-1835123
-1837568
-1838876
-1839690
-1842551
-1842181
-1839957
-1839266
-1839134
-1835338
-1836040
-1839365
-1840058
-1840854
-1843737
-1843115
-1840765
-1840308
-1839886
-1836015
-1836827
-1839287
-1840897
-1841551
-1844448
-1844046
-1841693
-1841208
-1840960
-1837397
-1838351
-1840484
-1841900
-1842404
-1845202
-1844320
-1842192
-1841891
-1841728
-1837981
-1838714
-1841167
-1842569
-1843180
-1845903
-1845347
-1843195
-1842818
-1842438
-1838675
-1839470
-1841934
-1843518
-1844044
-1846897
-1846533
-1844190
-1843547
-1843316
-1839653
-1840436
-1842667
-1844254
-1844963
-1847800
-1847388
-1844914
-1844388
-1844429
-1840607
-1841549
-1843947
-1845219
-1845645
-1848571
-1848188
-1846073
-1845288
-1845066
-1841477
-1842213
-1844547
-1845985
-1846542
-1849507
-1848827
-1846471
-1845925
-1845606
-1841825
-1842831
-1844934
-1846367
-1847097
-1849752
-1849155
-1846975
-1846329
-1845853
-1842001
-1842705
-1844964
-1846137
-1846799
-1849332
-1848508
-1845864
-1844837
-1844417
-1840204
-1840503
-1842393
-1843349
-1843501
-1845849
-1844447
-1841301
-1840304
-1839216
-1834957
-1835011
-1836671
-1837142
-1838771
-1839833
-1838239
-1835331
-1834036
-1832899
-1828663
-1828698
-1830385
-1830973
-1831477
-1833614
-1832662
-1829937
-1828972
-1828318
-1824092
-1824447
-1826273
-1827044
-1827271
-1829619
-1828793
-1826194
-1825540
-1824603
-1821003
-1821827
-1823721
-1824991
-1825700
-1828316
-1827771
-1825434
-1824646
-1824227
-1820518
-1821544
-1823652
-1824945
-1825685
-1828461
-1827917
-1825644
-1825332
-1824954
-1821261
-1822165
-1824502
-1826046
-1826907
-1829842
-1829523
-1827253
-1826806
-1826601
-1822970
-1824143
-1826399
-1827976
-1828755
-1831569
-1831209
-1829051
-1828534
-1828259
-1824664
-1825614
-1827893
-1829479
-1830385
-1833050
-1832542
-1830474
-1830032
-1829641
-1826166
-1826975
-1829418
-1830695
-1831785
-1834587
-1833631
-1831890
-1831667
-1831408
-1827847
-1828932
-1831287
-1832503
-1833616
-1836492
-1835858
-1833769
-1833459
-1833430
-1829795
-1830906
-1833239
-1834603
-1835682
-1838576
-1838200
-1836151
-1835740
-1835426
-1832168
-1833020
-1835247
-1836681
-1837588
-1840628
-1839659
-1837856
-1837557
-1837314
-1834387
-1834895
-1837104
-1838214
-1838924
-1841715
-1841116
-1839162
-1838543
-1838180
-1834711
-1835631
-1837721
-1839230
-1839891
-1842735
-1842189
-1839997
-1839456
-1839160
-1835410
-1836113
-1838103
-1839569
-1840128
-1842926
-1842347
-1840229
-1839517
-1838884
-1835315
-1836079
-1838128
-1839276
-1839893
-1842786
-1842132
-1839871
-1839122
-1838599
-1834995
-1835870
-1837904
-1839254
-1840028
-1842858
-1841976
-1839680
-1839259
-1838940
-1835061
-1835973
-1838081
-1839403
-1840374
-1842927
-1842481
-1840268
-1839841
-1839426
-1835854
-1836541
-1838477
-1839847
-1840554
-1843297
-1842043
-1840164
-1839818
-1839456
-1835618
-1836358
-1838599
-1839424
-1840376
-1843284
-1842684
-1840809
-1840270
-1839970
-1836297
-1837337
-1839348
-1840706
-1841371
-1843685
-1843348
-1841167
-1840619
-1840261
-1836573
-1837756
-1839359
-1841026
-1841675
-1844391
-1843775
-1841591
-1841265
-1840843
-1837390
-1838416
-1840425
-1841841
-1842572
-1845411
-1844692
-1842634
-1842106
-1841808
-1838385
-1839435
-1841476
-1842735
-1843590
-1846174
-1845722
-1843531
-1842978
-1842829
-1839006
-1839851
-1842213
-1843610
-1844400
-1847056
-1846499
-1844394
-1843950
-1843520
-1839891
-1840998
-1843078
-1844565
-1845405
-1848095
-1847473
-1845334
-1844776
-1844459
-1840903
-1841876
-1844198
-1845439
-1846062
-1849021
-1848276
-1846357
-1845713
-1845437
-1842041
-1842966
-1845161
-1846447
-1847004
-1849776
-1849244
-1847074
-1846616
-1846429
-1842631
-1843715
-1845873
-1846754
-1847583
-1850634
-1849910
-1847726
-1847315
-1846953
-1843318
-1844378
-1846524
-1847815
-1848426
-1851173
-1850672
-1848642
-1848084
-1847966
-1844464
-1845562
-1847487
-1849013
-1849859
-1852563
-1851885
-1849850
-1849334
-1849067
-1845423
-1846240
-1848544
-1849695
-1850377
-1853252
-1852635
-1850440
-1849444
-1849685
-1846191
-1847196
-1849216
-1850451
-1851044
-1853761
-1853095
-1850782
-1850311
-1850145
-1846428
-1847068
-1849207
-1850024
-1850609
-1853197
-1852331
-1849851
-1848931
-1848255
-1844244
-1844708
-1846275
-1846906
-1847007
-1849261
-1847835
-1845047
-1843918
-1843231
-1838924
-1839314
-1840680
-1841278
-1841353
-1843606
-1842428
-1839764
-1838510
-1837590
-1833675
-1834094
-1835733
-1836344
-1836414
-1838783
-1837737
-1835034
-1833959
-1833067
-1829446
-1829975
-1831855
-1832853
-1833274
-1835726
-1834747
-1832496
-1831683
-1831350
-1827627
-1828209
-1830248
-1831392
-1831894
-1835549
-1834086
-1831804
-1831150
-1831015
-1827264
-1828409
-1830425
-1831767
-1831981
-1835076
-1834587
-1832444
-1832179
-1831803
-1828349
-1829443
-1832039
-1833114
-1833638
-1836335
-1835718
-1833772
-1833434
-1833131
-1829590
-1830718
-1832875
-1834121
-1834680
-1837621
-1836639
-1834792
-1834184
-1834194
-1830609
-1831620
-1833543
-1835044
-1836728
-1838939
-1838262
-1836235
-1836069
-1835939
-1832252
-1833451
-1835859
-1837002
-1837969
-1840710
-1840006
-1838052
-1837728
-1837622
-1834014
-1835117
-1837511
-1839011
-1839892
-1842859
-1842077
-1840095
-1839765
-1839708
-1836232
-1837359
-1839758
-1841254
-1841897
-1844829
-1844143
-1842182
-1841842
-1841712
-1838280
-1839048
-1841350
-1842727
-1843212
-1846266
-1845543
-1843469
-1842887
-1842712
-1839410
-1840621
-1842725
-1844044
-1844651
-1847364
-1846868
-1844680
-1845370
-1844533
-1840702
-1841609
-1843503
-1844910
-1845412
-1848207
-1847313
-1845170
-1844703
-1844462
-1842583
-1842090
-1843802
-1844907
-1845463
-1848112
-1847520
-1845282
-1844710
-1844394
-1840751
-1841821
-1843911
-1844833
-1845247
-1848299
-1847532
-1845146
-1844584
-1844374
-1840841
-1841760
-1843963
-1844883
-1845396
-1848088
-1847335
-1845127
-1844584
-1844614
-1840658
-1841847
-1843932
-1845068
-1845535
-1848414
-1847459
-1845470
-1844911
-1845032
-1841249
-1842245
-1844065
-1845645
-1846261
-1848933
-1848359
-1846065
-1845697
-1845472
-1841732
-1842826
-1844979
-1846080
-1846598
-1849651
-1848798
-1846545
-1846130
-1846184
-1842455
-1843336
-1845713
-1846944
-1847529
-1850387
-1849695
-1847500
-1847020
-1847059
-1843501
-1844411
-1846692
-1847856
-1848250
-1851264
-1850689
-1848483
-1848297
-1848149
-1844288
-1845285
-1848102
-1849104
-1849502
-1852236
-1851644
-1849404
-1849058
-1849012
-1845219
-1846561
-1848480
-1849878
-1850613
-1853341
-1852812
-1850625
-1850283
-1850378
-1846493
-1847585
-1849782
-1851038
-1851888
-1854499
-1854016
-1851903
-1851424
-1851258
-1847633
-1848747
-1850890
-1852266
-1852951
-1855656
-1855127
-1852845
-1852598
-1852307
-1848604
-1849867
-1852052
-1853377
-1854052
-1856955
-1856056
-1853974
-1853429
-1853286
-1849577
-1850484
-1852926
-1854062
-1854625
-1857529
-1856732
-1854576
-1854253
-1854111
-1850433
-1851490
-1853705
-1854858
-1855688
-1858180
-1857526
-1855366
-1854938
-1855112
-1851290
-1851998
-1854408
-1855789
-1856473
-1859264
-1858637
-1856437
-1855998
-1856121
-1851806
-1852736
-1855355
-1856839
-1857497
-1860432
-1859689
-1857484
-1856998
-1857074
-1853501
-1854243
-1856524
-1857795
-1858212
-1861325
-1860376
-1858323
-1857637
-1857790
-1853901
-1854628
-1856618
-1857708
-1858145
-1860825
-1859736
-1857415
-1856656
-1856122
-1852068
-1852675
-1854443
-1854864
-1854820
-1857165
-1855906
-1853270
-1852162
-1851085
-1846962
-1847354
-1848846
-1849551
-1849308
-1851524
-1850335
-1847480
-1846207
-1845566
-1841305
-1841946
-1843663
-1844166
-1844229
-1846505
-1845242
-1842492
-1841644
-1841277
-1836999
-1837769
-1839671
-1840526
-1840685
-1843049
-1842099
-1839799
-1838725
-1838797
-1834789
-1835699
-1837838
-1838812
-1839205
-1841593
-1841091
-1838933
-1838378
-1838160
-1835918
-1835899
-1837993
-1839044
-1839631
-1842626
-1841748
-1839727
-1839329
-1839411
-1835437
-1836667
-1838933
-1840149
-1840761
-1843681
-1843061
-1840985
-1840732
-1840817
-1837082
-1838212
-1840586
-1841873
-1842590
-1845439
-1844782
-1842816
-1842431
-1842532
-1838881
-1839881
-1842212
-1843517
-1844191
-1846620
-1846275
-1844324
-1843931
-1843993
-1840267
-1841432
-1843952
-1845178
-1845692
-1848649
-1847947
-1845938
-1845642
-1845590
-1841985
-1842955
-1845151
-1846693
-1847142
-1850039
-1849551
-1847586
-1847307
-1847289
-1843700
-1844819
-1847359
-1848554
-1849259
-1852236
-1851798
-1849657
-1849404
-1849461
-1845892
-1847081
-1849394
-1850535
-1851128
-1854034
-1853535
-1851300
-1850995
-1850831
-1847189
-1848374
-1850479
-1851892
-1852225
-1855222
-1854340
-1852282
-1851947
-1851856
-1848121
-1848859
-1851278
-1852447
-1852845
-1855792
-1855058
-1852705
-1852005
-1852067
-1848438
-1849217
-1851496
-1852673
-1853051
-1855774
-1854937
-1852814
-1852322
-1852311
-1848614
-1849400
-1851654
-1852838
-1853091
-1855929
-1855160
-1852716
-1852179
-1852049
-1848448
-1849231
-1851656
-1852528
-1853121
-1855996
-1855186
-1852773
-1852242
-1851961
-1848399
-1849150
-1851671
-1852553
-1853134
-1855916
-1855216
-1853100
-1852557
-1852466
-1848599
-1849433
-1851931
-1853127
-1853500
-1856520
-1855566
-1853307
-1852830
-1852732
-1849206
-1850019
-1852354
-1853678
-1854099
-1857042
-1856263
-1854116
-1853658
-1853671
-1849871
-1850890
-1853115
-1854559
-1854929
-1857757
-1856907
-1854915
-1854370
-1854324
-1850862
-1851646
-1854075
-1855126
-1855516
-1858754
-1858101
-1855710
-1855422
-1855256
-1851614
-1852483
-1854803
-1856096
-1856590
-1859600
-1858932
-1856376
-1856344
-1855688
-1852515
-1853548
-1856005
-1857457
-1857780
-1860911
-1860201
-1857823
-1857332
-1857333
-1853806
-1854714
-1857179
-1858332
-1858820
-1861809
-1861013
-1858831
-1858377
-1858240
-1854728
-1855499
-1857846
-1859250
-1859659
-1862483
-1861817
-1859524
-1859160
-1859176
-1855558
-1856400
-1858879
-1860151
-1860478
-1863385
-1862928
-1860387
-1860010
-1860044
-1856327
-1857186
-1859723
-1860868
-1861285
-1864197
-1863776
-1861505
-1861060
-1860857
-1857398
-1858086
-1862351
-1862203
-1862243
-1865180
-1864542
-1862211
-1861757
-1861521
-1858048
-1858998
-1861429
-1862566
-1862854
-1866023
-1865282
-1863161
-1862674
-1862579
-1858767
-1859833
-1861977
-1863416
-1863682
-1866722
-1866082
-1863500
-1863409
-1863424
-1859766
-1860740
-1862961
-1864087
-1864618
-1867435
-1866727
-1864552
-1864215
-1864015
-1860297
-1860837
-1863147
-1864269
-1864215
-1866925
-1866224
-1863404
-1862719
-1862072
-1858029
-1858427
-1860484
-1861012
-1860785
-1864278
-1862109
-1859051
-1857691
-1856858
-1852722
-1852900
-1854207
-1855116
-1854702
-1857273
-1855996
-1853135
-1851771
-1851286
-1846886
-1847227
-1849193
-1850101
-1849889
-1852391
-1851400
-1848569
-1847638
-1847146
-1842942
-1843225
-1845759
-1846576
-1846448
-1849299
-1848330
-1846063
-1845162
-1844920
-1840945
-1841529
-1844009
-1845046
-1845374
-1848171
-1847650
-1845108
-1844580
-1844541
-1840834
-1841821
-1844155
-1845225
-1845542
-1848748
-1848371
-1845829
-1845424
-1845486
-1842007
-1842918
-1845389
-1846706
-1847059
-1849794
-1849599
-1847400
-1846920
-1846919
-1843394
-1844161
-1846793
-1848142
-1849651
-1852001
-1851199
-1849557
-1848654
-1848460
-1844920
-1845868
-1849456
-1849964
-1850039
-1853274
-1852652
-1850406
-1850211
-1850040
-1846508
-1847368
-1850003
-1851262
-1851605
-1854722
-1854382
-1852028
-1851797
-1851735
-1848167
-1849101
-1851897
-1853062
-1853590
-1856705
-1855805
-1853975
-1853571
-1853511
-1850050
-1851165
-1853867
-1855169
-1855319
-1858660
-1858033
-1855635
-1855261
-1855192
-1851724
-1852610
-1855313
-1856667
-1856691
-1859833
-1859473
-1856990
-1856812
-1856767
-1853001
-1853849
-1856546
-1857660
-1857886
-1860931
-1860540
-1858010
-1857813
-1857677
-1854014
-1855057
-1857435
-1858456
-1858641
-1861763
-1861257
-1858768
-1858528
-1858202
-1854596
-1855428
-1857888
-1859205
-1858812
-1862244
-1861564
-1859205
-1858908
-1858466
-1854838
-1855543
-1858064
-1859121
-1859091
-1862361
-1861618
-1859247
-1858795
-1858628
-1854922
-1855758
-1858187
-1859313
-1860461
-1862755
-1861918
-1860456
-1859343
-1858757
-1855116
-1856076
-1858432
-1859646
-1859699
-1862804
-1862289
-1859780
-1859107
-1859104
-1855266
-1856237
-1858847
-1859851
-1860092
-1863177
-1862567
-1860208
-1859672
-1859304
-1856121
-1857016
-1859385
-1860629
-1860525
-1863790
-1863286
-1860733
-1860342
-1860420
-1856975
-1857650
-1860260
-1861444
-1861496
-1864980
-1864371
-1861969
-1861669
-1861488
-1857944
-1858850
-1861528
-1862768
-1862793
-1865724
-1865268
-1862972
-1862459
-1862521
-1859262
-1859922
-1862462
-1863679
-1863793
-1866794
-1866523
-1863936
-1863815
-1863721
-1860245
-1860932
-1863750
-1864872
-1865007
-1868105
-1868716
-1865370
-1864842
-1864647
-1861200
-1861761
-1864683
-1865711
-1865710
-1868891
-1868280
-1865815
-1865543
-1865103
-1861693
-1862562
-1865092
-1866106
-1866310
-1869413
-1868715
-1866105
-1865859
-1865729
-1862358
-1863185
-1865720
-1866767
-1866715
-1869977
-1869525
-1866939
-1866564
-1866257
-1863108
-1863831
-1866608
-1867689
-1867614
-1870611
-1869993
-1867520
-1867224
-1866932
-1863882
-1864716
-1867458
-1868250
-1868282
-1871335
-1870071
-1868026
-1867804
-1867833
-1864536
-1866788
-1868516
-1869570
-1869404
-1872410
-1871642
-1868983
-1868772
-1868608
-1865374
-1866307
-1868925
-1869394
-1869971
-1872977
-1872465
-1869564
-1869632
-1869442
-1866302
-1866847
-1869584
-1870710
-1870340
-1873191
-1872658
-1870152
-1869535
-1869125
-1865338
-1865891
-1868381
-1868940
-1868379
-1870992
-1870096
-1867079
-1866235
-1865441
-1861610
-1861575
-1863753
-1864018
-1863423
-1865655
-1864337
-1861206
-1860430
-1860769
-1855757
-1855611
-1858015
-1858082
-1857374
-1859729
-1859465
-1855729
-1854939
-1854275
-1850333
-1850506
-1852950
-1853455
-1852817
-1855514
-1854411
-1851574
-1850903
-1850408
-1846698
-1847187
-1851330
-1850540
-1851699
-1853376
-1853947
-1850384
-1849457
-1849033
-1845760
-1846282
-1849092
-1850067
-1850065
-1852976
-1852452
-1850095
-1849858
-1849635
-1846391
-1847267
-1850271
-1850996
-1850965
-1853981
-1853576
-1851313
-1851019
-1850943
-1847586
-1848556
-1851612
-1852610
-1852505
-1855476
-1855226
-1852784
-1852520
-1852374
-1849094
-1849786
-1852983
-1853913
-1854067
-1857069
-1856605
-1854154
-1853884
-1853417
-1850128
-1851175
-1854141
-1855000
-1855208
-1858216
-1857637
-1855326
-1855030
-1854833
-1851649
-1852302
-1855312
-1856533
-1856393
-1859495
-1859262
-1857027
-1857770
-1856611
-1853139
-1853925
-1856989
-1857880
-1858050
-1861138
-1860774
-1858727
-1858489
-1858425
-1854983
-1856215
-1859239
-1860227
-1860330
-1863745
-1863095
-1860921
-1860631
-1860581
-1856728
-1858050
-1861131
-1861902
-1862176
-1865156
-1864834
-1862419
-1861908
-1861821
-1858747
-1859308
-1862303
-1863433
-1863529
-1866525
-1866131
-1863760
-1863252
-1863017
-1859390
-1860219
-1863248
-1864272
-1864127
-1867110
-1866394
-1864055
-1863491
-1863090
-1859533
-1860348
-1863398
-1864251
-1864083
-1866938
-1866238
-1863764
-1863359
-1863034
-1859575
-1860379
-1863102
-1864047
-1863819
-1867019
-1866198
-1863880
-1863338
-1862941
-1859684
-1860390
-1863201
-1864328
-1864205
-1867287
-1866430
-1864212
-1863709
-1863335
-1860010
-1860883
-1863865
-1864595
-1864683
-1867829
-1867006
-1864717
-1864336
-1864169
-1860517
-1861448
-1864461
-1865363
-1865214
-1868380
-1867621
-1865563
-1865213
-1864669
-1861356
-1862327
-1865247
-1866280
-1866272
-1869282
-1868733
-1866498
-1866049
-1865833
-1862379
-1863641
-1865958
-1867069
-1867147
-1870450
-1869700
-1867672
-1867375
-1866897
-1863384
-1864468
-1867346
-1868225
-1868066
-1871223
-1870597
-1868487
-1867991
-1867352
-1863712
-1864850
-1867615
-1868574
-1868366
-1871500
-1870621
-1868388
-1868117
-1867655
-1863930
-1864899
-1867633
-1868472
-1868183
-1871484
-1870364
-1868136
-1867502
-1866861
-1863284
-1864276
-1866915
-1867433
-1867112
-1870247
-1869370
-1867041
-1866577
-1866023
-1862483
-1863924
-1866421
-1867554
-1867493
-1870792
-1869839
-1867749
-1867196
-1866877
-1863074
-1864360
-1867163
-1867964
-1868007
-1871288
-1870301
-1868255
-1869157
-1867703
-1863668
-1865168
-1867874
-1868749
-1868478
-1871714
-1870704
-1868592
-1868271
-1868080
-1864340
-1865955
-1868583
-1869694
-1869712
-1873041
-1871844
-1869995
-1869746
-1869380
-1865712
-1867190
-1869749
-1870652
-1870730
-1874035
-1872943
-1870812
-1870247
-1869715
-1866030
-1867714
-1870113
-1871011
-1870661
-1873690
-1872151
-1869915
-1869415
-1868753
-1864638
-1865848
-1868093
-1868377
-1867987
-1870689
-1869187
-1866708
-1865743
-1864811
-1860687
-1861623
-1863568
-1863845
-1863250
-1865906
-1865776
-1862338
-1861063
-1859893
-1855563
-1856486
-1858484
-1858980
-1858610
-1862454
-1860079
-1857360
-1856389
-1855780
-1851615
-1852700
-1854913
-1855546
-1855387
-1858356
-1856873
-1854852
-1854261
-1853777
-1849825
-1851165
-1853445
-1854322
-1854324
-1857331
-1855829
-1853938
-1853526
-1853142
-1849645
-1850924
-1853520
-1854437
-1854154
-1857880
-1856322
-1854417
-1853970
-1853635
-1849934
-1851214
-1853755
-1854593
-1854759
-1857492
-1856470
-1854611
-1854281
-1853592
-1850155
-1851814
-1854460
-1855241
-1855087
-1858513
-1857457
-1855505
-1855377
-1854741
-1851434
-1853038
-1855265
-1856531
-1856335
-1859512
-1858545
-1856565
-1856488
-1855986
-1852439
-1853767
-1856099
-1857236
-1857103
-1860387
-1859156
-1856983
-1856673
-1856101
-1852971
-1854250
-1856430
-1857250
-1857251
-1860156
-1858882
-1856795
-1856426
-1855639
-1852358
-1853884
-1855861
-1856801
-1856485
-1859382
-1858194
-1856051
-1855841
-1854901
-1851699
-1852996
-1855229
-1856066
-1855964
-1858851
-1857406
-1855512
-1855192
-1854322
-1851000
-1852401
-1854832
-1855566
-1855441
-1858262
-1856793
-1854953
-1854564
-1853559
-1850418
-1851719
-1854117
-1854869
-1854852
-1857880
-1856209
-1854387
-1853972
-1852936
-1849988
-1851356
-1853471
-1854377
-1853931
-1856867
-1855371
-1853701
-1853166
-1852829
-1849481
-1850511
-1852707
-1853330
-1853102
-1856076
-1854657
-1852729
-1852242
-1851179
-1848162
-1849759
-1851972
-1852666
-1852547
-1855199
-1853902
-1852158
-1851367
-1850311
-1847612
-1849311
-1851268
-1851958
-1851998
-1854685
-1853412
-1851477
-1851052
-1850104
-1847268
-1848938
-1850950
-1851822
-1851898
-1854747
-1853209
-1851739
-1851477
-1850204
-1847522
-1849279
-1851474
-1852308
-1852403
-1855309
-1853860
-1852354
-1852395
-1851083
-1848548
-1850494
-1852701
-1853688
-1854014
-1857085
-1855808
-1854382
-1854177
-1852720
-1850144
-1851987
-1854221
-1855025
-1855484
-1857738
-1856648
-1855230
-1855095
-1853675
-1851443
-1853182
-1855541
-1856524
-1856697
-1859494
-1857967
-1856407
-1856289
-1854816
-1852557
-1854207
-1856372
-1857161
-1857691
-1860237
-1858578
-1857216
-1857074
-1855453
-1853261
-1855014
-1857288
-1858255
-1858788
-1861419
-1859784
-1858383
-1858042
-1856441
-1853889
-1856138
-1858428
-1858900
-1859693
-1862452
-1860686
-1858748
-1859024
-1857436
-1855382
-1857216
-1859399
-1860439
-1861103
-1863438
-1861795
-1860358
-1860153
-1858411
-1856481
-1858336
-1860332
-1861361
-1862109
-1864565
-1862912
-1861572
-1861421
-1859654
-1857510
-1859271
-1861552
-1862457
-1863097
-1865546
-1863655
-1862632
-1862429
-1860410
-1858313
-1860317
-1862243
-1863276
-1864050
-1866302
-1864339
-1862595
-1862133
-1860100
-1857842
-1859278
-1860922
-1861478
-1861857
-1863943
-1860958
-1859431
-1858577
-1856064
-1853415
-1854646
-1855995
-1856334
-1856475
-1857691
-1855382
-1853230
-1852165
-1849557
-1846798
-1848116
-1849388
-1849823
-1850204
-1851857
-1848877
-1846989
-1846251
-1843652
-1841011
-1842550
-1844236
-1844559
-1845158
-1846736
-1844314
-1842406
-1841921
-1839439
-1837188
-1838716
-1840477
-1841154
-1841754
-1843581
-1841379
-1839798
-1839635
-1836968
-1834941
-1836715
-1838554
-1839508
-1840323
-1842283
-1840378
-1838873
-1838570
-1836455
-1834565
-1836387
-1838349
-1839352
-1840196
-1842294
-1840183
-1838879
-1838674
-1836312
-1834769
-1836932
-1838887
-1839805
-1841007
-1842947
-1840813
-1839606
-1839408
-1837098
-1835273
-1837495
-1839572
-1840485
-1841916
-1844052
-1841881
-1840434
-1840336
-1839306
-1836700
-1838791
-1840731
-1841633
-1842935
-1844909
-1842599
-1841568
-1841238
-1838837
-1837108
-1839358
-1841224
-1842215
-1843690
-1845573
-1843463
-1842328
-1841988
-1839534
-1837824
-1840175
-1842394
-1843308
-1844599
-1846437
-1844281
-1843185
-1843221
-1840685
-1839169
-1841533
-1843651
-1846052
-1846855
-1848542
-1846228
-1844968
-1846179
-1842728
-1841209
-1843387
-1845619
-1846650
-1848343
-1850277
-1848070
-1846926
-1846937
-1844596
-1843072
-1845221
-1847351
-1848375
-1850134
-1851657
-1849373
-1848326
-1847856
-1845517
-1844060
-1846445
-1848389
-1849236
-1851006
-1852639
-1850227
-1849035
-1848967
-1846460
-1844982
-1847098
-1849167
-1849630
-1851505
-1853278
-1851052
-1849807
-1849655
-1847041
-1845432
-1847514
-1849548
-1850244
-1851905
-1853544
-1851199
-1850107
-1849885
-1847115
-1845413
-1847419
-1849464
-1850008
-1851934
-1853317
-1850778
-1849634
-1849410
-1846650
-1845107
-1847276
-1849220
-1849781
-1851799
-1853055
-1850652
-1849760
-1849447
-1846671
-1845344
-1847144
-1849123
-1849746
-1851734
-1853247
-1850565
-1849528
-1849330
-1846601
-1845255
-1847191
-1849458
-1850405
-1852510
-1854043
-1851414
-1850370
-1850263
-1847460
-1846321
-1848639
-1850723
-1851352
-1853567
-1854995
-1852597
-1851770
-1851560
-1848445
-1847413
-1849600
-1851573
-1852483
-1854560
-1856061
-1853691
-1852807
-1852580
-1849624
-1848617
-1850729
-1852657
-1853404
-1855705
-1857041
-1854471
-1853675
-1853372
-1850533
-1849387
-1851717
-1853779
-1854581
-1856594
-1857954
-1855660
-1854813
-1854432
-1851448
-1850678
-1852943
-1854838
-1855643
-1858146
-1859287
-1856911
-1855885
-1855715
-1852774
-1851698
-1854148
-1856132
-1857033
-1859280
-1860305
-1858575
-1857023
-1856691
-1853601
-1852906
-1855212
-1857123
-1858012
-1860412
-1861332
-1858863
-1858043
-1857796
-1854588
-1853861
-1856325
-1858352
-1859193
-1861531
-1862731
-1860120
-1859098
-1858845
-1855626
-1854922
-1856966
-1858882
-1859876
-1861997
-1862903
-1860507
-1859592
-1859253
-1855724
-1855089
-1857318
-1859221
-1860037
-1862019
-1862917
-1860206
-1859110
-1858783
-1854730
-1853919
-1855758
-1857530
-1857928
-1859907
-1860250
-1856984
-1855729
-1855017
-1850984
-1849926
-1851487
-1852663
-1852926
-1854806
-1854815
-1851548
-1849930
-1849024
-1844905
-1843471
-1845204
-1846450
-1846521
-1848252
-1848391
-1845133
-1843626
-1842788
-1838516
-1837349
-1839021
-1840473
-1840214
-1842619
-1843020
-1839986
-1838469
-1837917
-1833918
-1832792
-1834847
-1836229
-1836881
-1838965
-1839497
-1836648
-1835293
-1834781
-1830865
-1830343
-1832585
-1834120
-1834901
-1837417
-1837748
-1835051
-1834314
-1834034
-1830280
-1829876
-1832078
-1834117
-1834905
-1837500
-1837949
-1835238
-1834545
-1834409
-1830711
-1830286
-1832467
-1834279
-1835062
-1837685
-1838182
-1835424
-1834552
-1834352
-1830652
-1830136
-1832548
-1834338
-1835283
-1837891
-1838253
-1835462
-1834451
-1834343
-1830615
-1830401
-1832720
-1834465
-1835197
-1837873
-1838283
-1835572
-1834726
-1834467
-1830791
-1830442
-1832581
-1834500
-1835353
-1838012
-1838419
-1835820
-1834771
-1834440
-1830978
-1830622
-1833183
-1835047
-1835922
-1838486
-1839048
-1836554
-1835493
-1835208
-1831543
-1831461
-1833679
-1835541
-1836472
-1839311
-1839744
-1837098
-1836349
-1836392
-1832664
-1832445
-1834728
-1836758
-1837862
-1840553
-1840698
-1838171
-1837516
-1837409
-1833320
-1833078
-1835697
-1837505
-1838571
-1841524
-1841580
-1839178
-1838041
-1837747
-1833965
-1834076
-1836388
-1838152
-1838923
-1841896
-1842042
-1839403
-1838571
-1838472
-1834591
-1834353
-1836881
-1838647
-1839413
-1842361
-1842342
-1839216
-1838749
-1838492
-1834462
-1836823
-1838689
-1839431
-1842270
-1842218
-1839534
-1838372
-1837996
-1834044
-1833612
-1835976
-1837658
-1838133
-1840870
-1840575
-1837683
-1836597
-1835831
-1832010
-1831628
-1833775
-1835659
-1836258
-1839089
-1839252
-1836474
-1835592
-1835265
-1831313
-1831339
-1833701
-1835528
-1836349
-1838985
-1839277
-1836597
-1835592
-1835272
-1831452
-1831242
-1833609
-1835478
-1836296
-1839034
-1839184
-1836533
-1835673
-1835431
-1831425
-1831381
-1833706
-1835418
-1836253
-1839153
-1839265
-1836791
-1835920
-1835841
-1831668
-1831750
-1834233
-1836068
-1836928
-1839742
-1839982
-1837444
-1836620
-1836275
-1832386
-1832493
-1834970
-1836809
-1837944
-1840981
-1841263
-1838706
-1837958
-1837878
-1833865
-1834025
-1836738
-1838195
-1839002
-1842085
-1842110
-1839539
-1838679
-1838361
-1834381
-1834566
-1836911
-1838854
-1839725
-1842566
-1842678
-1840209
-1839240
-1839116
-1835155
-1835009
-1837668
-1839369
-1840319
-1843210
-1843323
-1840642
-1839979
-1839688
-1835711
-1835716
-1838270
-1839925
-1840798
-1843855
-1843851
-1841180
-1840350
-1840215
-1836437
-1836283
-1838971
-1840519
-1841472
-1844323
-1844312
-1841855
-1841156
-1840884
-1836946
-1837140
-1839811
-1841381
-1842293
-1845152
-1845158
-1842499
-1841735
-1841620
-1837657
-1837635
-1840437
-1842019
-1842788
-1845507
-1845955
-1843452
-1842337
-1842371
-1838330
-1838507
-1841195
-1842782
-1843681
-1846326
-1846342
-1843865
-1843104
-1842916
-1838805
-1839027
-1841400
-1842935
-1843715
-1846320
-1846116
-1843544
-1842514
-1842090
-1837737
-1837570
-1839788
-1841188
-1841551
-1843908
-1843365
-1840085
-1838701
-1837767
-1833199
-1832610
-1834425
-1835516
-1835447
-1837488
-1836739
-1833286
-1831800
-1830670
-1826047
-1825228
-1826869
-1827786
-1828013
-1829777
-1829185
-1825948
-1824410
-1823340
-1818775
-1818460
-1820578
-1821590
-1821893
-1824370
-1823797
-1820768
-1819715
-1818966
-1814714
-1814413
-1816569
-1817817
-1818528
-1821106
-1820734
-1817771
-1816691
-1816206
-1811961
-1811895
-1814385
-1815779
-1816329
-1818831
-1818766
-1816030
-1814719
-1814655
-1810747
-1810871
-1813382
-1814948
-1815637
-1818250
-1818125
-1815744
-1814692
-1814572
-1810408
-1810787
-1813275
-1814757
-1815706
-1818374
-1818378
-1815766
-1815024
-1814987
-1811062
-1811465
-1813768
-1815509
-1816440
-1819039
-1818969
-1816452
-1815854
-1815763
-1811806
-1812238
-1814703
-1816149
-1817056
-1819705
-1819218
-1816957
-1816221
-1815764
-1811790
-1812336
-1814743
-1816068
-1816805
-1819456
-1819311
-1816746
-1816194
-1816045
-1811875
-1812427
-1814899
-1816281
-1817343
-1820194
-1819722
-1817369
-1816772
-1816508
-1812524
-1813252
-1815645
-1817127
-1818168
-1820932
-1820725
-1818435
-1817603
-1817629
-1813487
-1814119
-1816670
-1818125
-1819079
-1821776
-1821600
-1819060
-1818513
-1818234
-1814525
-1815095
-1817515
-1818874
-1819827
-1822592
-1822208
-1819828
-1818857
-1818580
-1814602
-1815282
-1817616
-1819129
-1819943
-1822688
-1819790
-1819054
-1818585
-1814194
-1815046
-1817366
-1819661
-1822339
-1821805
-1819333
-1818553
-1818065
-1814204
-1814962
-1816858
-1818126
-1818864
-1821488
-1821022
-1818477
-1817619
-1817307
-1813472
-1813992
-1816108
-1817456
-1818147
-1820899
-1820168
-1817857
-1816938
-1816619
-1812611
-1813460
-1815330
-1816743
-1817367
-1820152
-1819408
-1817203
-1816385
-1816272
-1812215
-1812826
-1814853
-1816255
-1816970
-1819806
-1816598
-1815918
-1815506
-1811581
-1812228
-1814475
-1815938
-1816733
-1819348
-1818731
-1816284
-1815716
-1815384
-1811367
-1812148
-1814443
-1815816
-1816674
-1819137
-1818709
-1816374
-1815792
-1815452
-1811529
-1812324
-1814566
-1816094
-1817031
-1819628
-1818915
-1816663
-1816241
-1815786
-1811936
-1812832
-1815270
-1816491
-1817441
-1820140
-1819346
-1817392
-1816588
-1816113
-1812391
-1813445
-1815426
-1816815
-1817700
-1820401
-1819706
-1817320
-1816858
-1816282
-1812665
-1813399
-1815512
-1817038
-1817661
-1820381
-1819604
-1817568
-1816976
-1816549
-1813653
-1815665
-1817158
-1817998
-1820606
-1819453
-1817407
-1817068
-1816922
-1813255
-1814051
-1816125
-1817557
-1818426
-1821019
-1820323
-1818374
-1817862
-1817566
-1813999
-1817014
-1818321
-1819176
-1822055
-1821165
-1819199
-1818745
-1818610
-1814772
-1815770
-1817840
-1819195
-1819966
-1822732
-1822107
-1819780
-1818780
-1818842
-1815309
-1816362
-1819726
-1820159
-1822633
-1821811
-1819896
-1819342
-1818792
-1815120
-1815809
-1817995
-1819175
-1820009
-1822511
-1821883
-1819568
-1819067
-1818658
-1814837
-1815711
-1817697
-1819585
-1822429
-1821232
-1819309
-1818569
-1818307
-1814450
-1815303
-1817612
-1818892
-1819446
-1822189
-1821239
-1819181
-1818830
-1818506
-1814607
-1815451
-1817641
-1818826
-1819452
-1822299
-1821483
-1819272
-1818957
-1818549
-1814794
-1815706
-1817867
-1819159
-1819751
-1822290
-1821683
-1819566
-1819068
-1818702
-1814873
-1815915
-1818051
-1819287
-1822351
-1821692
-1819153
-1818635
-1818252
-1814311
-1815008
-1816786
-1817729
-1818187
-1820700
-1819329
-1816644
-1815778
-1815180
-1810888
-1811383
-1812908
-1813358
-1813444
-1814072
-1811218
-1809947
-1809077
-1804159
-1804355
-1805982
-1806384
-1806343
-1808526
-1806953
-1804224
-1803047
-1802175
-1797649
-1797956
-1799441
-1799960
-1800011
-1802134
-1800898
-1797889
-1796982
-1796376
-1791848
-1792301
-1794234
-1794933
-1794984
-1797418
-1796177
-1793646
-1792795
-1792493
-1788135
-1788935
-1790874
-1791921
-1792334
-1794760
-1793807
-1791264
-1790553
-1790192
-1786197
-1786943
-1789171
-1790250
-1790643
-1793073
-1792126
-1789898
-1789032
-1789063
-1784908
-1785565
-1787575
-1788760
-1789250
-1792049
-1790958
-1788564
-1787924
-1787589
-1783768
-1784698
-1787044
-1788066
-1788744
-1791320
-1790425
-1788224
-1787502
-1787476
-1783519
-1784483
-1786604
-1787784
-1788378
-1791062
-1790152
-1787792
-1787192
-1787225
-1783151
-1784098
-1786281
-1787502
-1787953
-1790949
-1790003
-1787678
-1787147
-1787073
-1782990
-1784029
-1786156
-1787326
-1787848
-1790757
-1789928
-1787460
-1787011
-1786858
-1783161
-1784005
-1786419
-1787372
-1788256
-1791241
-1790324
-1788176
-1787724
-1787545
-1783958
-1784853
-1787380
-1788743
-1789261
-1792238
-1791454
-1789113
-1788722
-1788851
-1785176
-1786205
-1788496
-1789677
-1790433
-1793238
-1792681
-1790489
-1790007
-1789937
-1786224
-1787341
-1789664
-1791170
-1791682
-1794600
-1793769
-1791538
-1791160
-1791185
-1787301
-1788064
-1790427
-1791665
-1792087
-1795000
-1794193
-1792007
-1791417
-1791222
-1787412
-1788384
-1790663
-1792021
-1792384
-1795049
-1794390
-1791965
-1791318
-1790967
-1787072
-1787752
-1789995
-1791201
-1791300
-1793988
-1793094
-1790496
-1789839
-1789741
-1785757
-1786586
-1788992
-1790106
-1790456
-1793102
-1792411
-1789812
-1788647
-1788396
-1784922
-1785878
-1788190
-1789437
-1789596
-1792542
-1791677
-1789246
-1788764
-1788632
-1784965
-1785135
-1787832
-1789072
-1789569
-1792543
-1791699
-1789198
-1788700
-1788423
-1784637
-1785494
-1787748
-1789020
-1789485
-1792437
-1791421
-1789412
-1788923
-1788804
-1785243
-1786000
-1788373
-1789481
-1789824
-1792637
-1791934
-1789660
-1789099
-1789091
-1785411
-1786172
-1788565
-1789768
-1790044
-1793134
-1792219
-1790073
-1789642
-1789417
-1785586
-1786606
-1789024
-1790148
-1789999
-1793433
-1792837
-1790437
-1790020
-1789864
-1786125
-1786775
-1789307
-1790662
-1790781
-1793670
-1793041
-1790617
-1790353
-1790208
-1786232
-1786935
-1789459
-1790630
-1790406
-1793600
-1793183
-1790723
-1790365
-1790090
-1786326
-1787155
-1789823
-1790865
-1791119
-1794000
-1793510
-1791038
-1790666
-1790399
-1786659
-1787331
-1790130
-1791342
-1791258
-1794190
-1793532
-1791242
-1790686
-1790501
-1786875
-1787747
-1791156
-1791730
-1791756
-1794538
-1794005
-1791488
-1791090
-1790732
-1787098
-1787994
-1790598
-1791791
-1791774
-1794907
-1794280
-1791653
-1791167
-1790886
-1787465
-1787973
-1790808
-1791842
-1791912
-1795107
-1794439
-1792019
-1791620
-1791224
-1787499
-1788376
-1791063
-1792049
-1792074
-1795242
-1794643
-1791857
-1791472
-1791327
-1787630
-1788646
-1791199
-1792105
-1792195
-1795303
-1794779
-1792166
-1791871
-1791660
-1788025
-1788607
-1791488
-1792648
-1792681
-1795581
-1794821
-1792466
-1792035
-1791691
-1788382
-1789006
-1791666
-1792811
-1792810
-1795812
-1795090
-1792842
-1792195
-1791875
-1788375
-1789095
-1791992
-1793139
-1793023
-1796060
-1795594
-1792967
-1792577
-1792377
-1789129
-1789657
-1792185
-1793393
-1793583
-1796395
-1795749
-1793499
-1793203
-1792820
-1789512
-1790072
-1793091
-1793994
-1794048
-1796755
-1796177
-1793836
-1793264
-1793090
-1789658
-1790314
-1793073
-1794031
-1794244
-1797116
-1796384
-1793802
-1793385
-1792996
-1789414
-1789983
-1792860
-1793634
-1793474
-1796127
-1795253
-1792541
-1791760
-1790912
-1787046
-1787274
-1789635
-1790195
-1789604
-1792037
-1790542
-1787646
-1786325
-1785386
-1781395
-1781709
-1783878
-1783992
-1783194
-1785368
-1784200
-1781081
-1780041
-1779215
-1775029
-1775046
-1777072
-1777548
-1776928
-1779302
-1777986
-1774441
-1773889
-1773047
-1769110
-1769603
-1772051
-1772528
-1772036
-1774585
-1773586
-1771124
-1770490
-1769645
-1765883
-1766738
-1769094
-1769891
-1769851
-1772486
-1771695
-1769356
-1768439
-1768213
-1764733
-1765500
-1768133
-1768942
-1768833
-1771589
-1771040
-1768616
-1768236
-1767748
-1764035
-1765113
-1767813
-1769873
-1769248
-1771860
-1771265
-1768934
-1768310
-1767924
-1764134
-1765133
-1767886
-1769055
-1768721
-1771800
-1771110
-1768787
-1768546
-1767910
-1764234
-1765240
-1767845
-1768780
-1768639
-1771447
-1770810
-1768317
-1767757
-1767216
-1763522
-1764616
-1767302
-1768303
-1768324
-1771591
-1770777
-1768477
-1768038
-1767761
-1764117
-1765390
-1768102
-1769040
-1769160
-1772109
-1771253
-1769208
-1768816
-1768248
-1764629
-1765973
-1768801
-1769922
-1769843
-1772928
-1772179
-1770117
-1769783
-1769439
-1765669
-1767065
-1769904
-1770941
-1770986
-1774320
-1773449
-1771433
-1771081
-1770674
-1766956
-1768379
-1771292
-1772374
-1772350
-1775682
-1774880
-1772816
-1772472
-1771909
-1768072
-1769552
-1772289
-1772924
-1773285
-1776718
-1775613
-1773558
-1773199
-1772433
-1768744
-1770126
-1772846
-1773861
-1773738
-1776953
-1776048
-1773996
-1773449
-1773112
-1769341
-1770866
-1773467
-1774511
-1774422
-1777676
-1776603
-1774557
-1773907
-1773327
-1769347
-1770739
-1773207
-1774198
-1774060
-1777158
-1775759
-1773638
-1773291
-1772679
-1769029
-1770480
-1772991
-1773755
-1774745
-1776927
-1775459
-1773580
-1773261
-1772629
-1768780
-1770153
-1772612
-1773589
-1773446
-1776574
-1775307
-1773207
-1772874
-1772470
-1768643
-1769985
-1772702
-1773620
-1773390
-1776611
-1775458
-1773384
-1773150
-1772406
-1768852
-1770367
-1772801
-1773945
-1773790
-1776809
-1776745
-1774201
-1773632
-1772991
-1769450
-1771125
-1773467
-1774275
-1774279
-1777332
-1776213
-1774267
-1773859
-1773188
-1769921
-1771284
-1773742
-1774636
-1774675
-1777641
-1776445
-1774557
-1774440
-1773712
-1770439
-1771867
-1774402
-1775557
-1775204
-1778512
-1777402
-1775845
-1775746
-1774782
-1771656
-1773244
-1775529
-1776630
-1776435
-1779623
-1778317
-1776481
-1776209
-1774921
-1772146
-1774011
-1776403
-1777472
-1777268
-1780337
-1779018
-1777292
-1777066
-1775865
-1773057
-1774622
-1777103
-1777947
-1778009
-1781213
-1779953
-1778051
-1777687
-1776586
-1773915
-1775586
-1777823
-1778908
-1778826
-1781642
-1780220
-1778441
-1778103
-1776716
-1774159
-1775749
-1777802
-1778668
-1778892
-1781672
-1779916
-1778364
-1777597
-1776531
-1773903
-1775718
-1777543
-1778642
-1779106
-1781985
-1780540
-1778877
-1778652
-1777226
-1774724
-1776413
-1778595
-1779726
-1779971
-1782617
-1780933
-1779316
-1779203
-1777219
-1774824
-1776465
-1780037
-1780375
-1780637
-1783109
-1781412
-1779554
-1779568
-1778022
-1776627
-1777793
-1779730
-1780783
-1781164
-1783445
-1781731
-1780299
-1780281
-1778523
-1776076
-1778059
-1780203
-1781283
-1781899
-1784397
-1782566
-1780663
-1780757
-1778844
-1776701
-1778700
-1780843
-1781683
-1782247
-1784889
-1783059
-1781464
-1781287
-1779454
-1777210
-1779237
-1781506
-1782785
-1783804
-1786077
-1784308
-1782829
-1782691
-1782044
-1778888
-1781025
-1783349
-1784500
-1784758
-1787245
-1785296
-1784969
-1784310
-1781475
-1779690
-1781915
-1783879
-1784725
-1786026
-1787890
-1785916
-1785440
-1784699
-1782137
-1779945
-1781721
-1784170
-1785266
-1786311
-1788249
-1785899
-1785834
-1784445
-1781632
-1779561
-1781437
-1783225
-1783903
-1784539
-1786089
-1783462
-1781766
-1780933
-1778038
-1775689
-1777256
-1778671
-1779013
-1779762
-1782187
-1778520
-1776300
-1775305
-1772163
-1770135
-1770909
-1772423
-1772900
-1773716
-1774875
-1772185
-1770418
-1769179
-1766401
-1763694
-1765792
-1767491
-1767987
-1769036
-1770300
-1767661
-1766066
-1765584
-1762399
-1760272
-1762189
-1764181
-1764472
-1766080
-1767751
-1765235
-1763516
-1763407
-1760719
-1758776
-1760795
-1762886
-1763868
-1765294
-1767649
-1764652
-1763280
-1763066
-1760125
-1758398
-1760824
-1762980
-1763884
-1764946
-1767875
-1764687
-1763523
-1763265
-1760553
-1758666
-1760997
-1763242
-1764183
-1765955
-1767540
-1765079
-1763961
-1763814
-1760914
-1759266
-1762634
-1763806
-1764526
-1766209
-1767336
-1765094
-1763952
-1764988
-1761158
-1759474
-1761651
-1763969
-1766050
-1767078
-1768337
-1765937
-1765011
-1764599
-1761776
-1760420
-1762669
-1764632
-1765636
-1767722
-1769093
-1766896
-1765625
-1765457
-1762466
-1761108
-1763629
-1765808
-1766809
-1768911
-1770164
-1767689
-1767664
-1766934
-1763828
-1762717
-1765113
-1767320
-1768336
-1770672
-1771862
-1769601
-1768616
-1768413
-1765393
-1764563
-1766926
-1768934
-1770209
-1772328
-1773684
-1770970
-1770220
-1769924
-1766681
-1765746
-1768412
-1770476
-1771389
-1773772
-1774752
-1772305
-1772088
-1771146
-1767915
-1766869
-1769249
-1771241
-1772101
-1774411
-1775360
-1772891
-1771931
-1771499
-1768129
-1767164
-1769547
-1771591
-1772356
-1774883
-1775747
-1772910
-1771877
-1771239
-1767968
-1767198
-1769654
-1771555
-1772454
-1774887
-1775418
-1772914
-1771835
-1771555
-1767845
-1767066
-1769375
-1771477
-1772211
-1774764
-1775581
-1772874
-1771849
-1771659
-1767783
-1767254
-1769663
-1771455
-1772407
-1774825
-1775604
-1773045
-1772061
-1771913
-1768124
-1767508
-1769987
-1771963
-1772823
-1775331
-1776025
-1773484
-1772546
-1772407
-1768624
-1768295
-1770698
-1772762
-1773837
-1776279
-1776808
-1774320
-1773489
-1773313
-1769836
-1769354
-1772026
-1774097
-1775020
-1777750
-1778393
-1775772
-1775152
-1774866
-1771235
-1771108
-1773427
-1775598
-1776511
-1779166
-1779460
-1776922
-1776232
-1775840
-1772086
-1771753
-1774318
-1776183
-1777283
-1780035
-1780367
-1777606
-1776936
-1776566
-1772940
-1772693
-1775124
-1777079
-1778152
-1781079
-1781284
-1778756
-1777895
-1777769
-1774135
-1773886
-1776339
-1778391
-1779407
-1782144
-1782537
-1779880
-1778957
-1778671
-1774751
-1774644
-1777090
-1779137
-1780177
-1783015
-1783345
-1780804
-1779857
-1779719
-1775678
-1775598
-1778018
-1780144
-1781004
-1783923
-1784230
-1781377
-1780511
-1780514
-1776517
-1776535
-1778788
-1780670
-1781695
-1784756
-1784795
-1782069
-1781226
-1781104
-1777265
-1776995
-1779342
-1781222
-1782336
-1785126
-1785343
-1782641
-1781688
-1781710
-1777728
-1777516
-1780039
-1781975
-1783065
-1785858
-1785866
-1783382
-1782519
-1782336
-1778107
-1778140
-1780701
-1782458
-1783162
-1786193
-1786333
-1783650
-1782845
-1782523
-1778427
-1778476
-1780826
-1782877
-1783803
-1786559
-1786685
-1784202
-1783550
-1783363
-1779362
-1779406
-1781868
-1783766
-1784594
-1787712
-1787732
-1785112
-1784442
-1784433
-1780369
-1780328
-1782989
-1785000
-1785934
-1788966
-1788928
-1786361
-1785481
-1785561
-1781549
-1781535
-1784162
-1786074
-1787052
-1790000
-1789938
-1787239
-1786386
-1786197
-1782377
-1782545
-1785191
-1786838
-1787522
-1790382
-1790591
-1788053
-1787020
-1786896
-1782858
-1782737
-1785185
-1786826
-1787506
-1790216
-1790035
-1787332
-1786319
-1785772
-1781454
-1781052
-1783199
-1784537
-1784683
-1787252
-1786741
-1783891
-1782550
-1781903
-1777219
-1776764
-1778686
-1779748
-1779983
-1782472
-1781828
-1778872
-1777471
-1776655
-1772060
-1771637
-1773606
-1774666
-1775012
-1777336
-1776830
-1773914
-1772678
-1772050
-1767565
-1767237
-1769494
-1770860
-1771528
-1774026
-1773786
-1770797
-1769455
-1768907
-1764797
-1764615
-1766917
-1768496
-1769065
-1771979
-1771772
-1769128
-1768342
-1768091
-1763978
-1763925
-1766670
-1768329
-1769136
-1771844
-1771755
-1769339
-1768645
-1768389
-1764326
-1764609
-1767290
-1768960
-1770020
-1772858
-1773136
-1770780
-1769982
-1769970
-1766140
-1766522
-1769064
-1770755
-1771669
-1774767
-1774638
-1772202
-1771417
-1771324
-1767157
-1767599
-1770128
-1771740
-1772616
-1775482
-1775440
-1773246
-1772524
-1772333
-1768323
-1768795
-1771524
-1773138
-1774205
-1776877
-1776875
-1774497
-1774051
-1773742
-1769978
-1770330
-1773034
-1774678
-1775643
-1778270
-1778271
-1775927
-1775126
-1775221
-1771384
-1771661
-1774108
-1775822
-1776935
-1779709
-1779594
-1777300
-1776602
-1776639
-1772672
-1773349
-1775890
-1777397
-1778347
-1781412
-1781063
-1778723
-1778181
-1777966
-1774262
-1774892
-1777338
-1778972
-1779898
-1782695
-1782521
-1780045
-1779519
-1779461
-1775546
-1776187
-1778693
-1780291
-1780985
-1783766
-1783642
-1781376
-1780665
-1780236
-1776466
-1777137
-1779624
-1781207
-1781778
-1784587
-1784042
-1781666
-1780891
-1780722
-1776985
-1777616
-1779926
-1781266
-1782100
-1784858
-1784340
-1781837
-1781116
-1780724
-1776591
-1777392
-1779711
-1780950
-1781725
-1784456
-1783788
-1781286
-1780443
-1780290
-1776212
-1776868
-1779170
-1780598
-1781276
-1783779
-1783262
-1780934
-1780247
-1779745
-1775765
-1776669
-1778734
-1780038
-1780827
-1783549
-1782950
-1780676
-1779811
-1779503
-1775637
-1776574
-1778923
-1780442
-1781132
-1783837
-1783495
-1781250
-1780558
-1780359
-1776622
-1777508
-1779690
-1781165
-1781962
-1784751
-1784144
-1782013
-1781496
-1781084
-1777402
-1778360
-1780934
-1782336
-1783362
-1786185
-1785821
-1783582
-1782968
-1782763
-1779235
-1780090
-1782366
-1783921
-1784696
-1787394
-1786938
-1784682
-1784148
-1783961
-1780176
-1780940
-1783218
-1784686
-1785427
-1788039
-1787543
-1785425
-1785015
-1784717
-1780990
-1782079
-1784364
-1785615
-1786494
-1789329
-1788806
-1786553
-1786173
-1785852
-1782094
-1783110
-1785261
-1786636
-1787577
-1790227
-1789610
-1787543
-1786942
-1786735
-1782881
-1784027
-1786406
-1787594
-1788369
-1791213
-1790643
-1788523
-1788015
-1787524
-1783939
-1785028
-1787120
-1788688
-1789516
-1792118
-1791540
-1789574
-1788954
-1788664
-1785067
-1786144
-1788167
-1789654
-1790391
-1793076
-1792580
-1790451
-1789823
-1789687
-1785873
-1786888
-1789227
-1790583
-1791131
-1794073
-1793231
-1790954
-1790675
-1790411
-1786632
-1787719
-1789960
-1791185
-1792057
-1794664
-1794002
-1791871
-1791238
-1791101
-1787298
-1788272
-1790617
-1792131
-1792845
-1795457
-1794738
-1792576
-1792398
-1792097
-1788520
-1789307
-1791774
-1792983
-1793585
-1796345
-1795634
-1793709
-1793163
-1793111
-1789284
-1790130
-1792300
-1793848
-1794297
-1797071
-1796522
-1794156
-1793640
-1793475
-1789773
-1790474
-1792668
-1793730
-1794365
-1797112
-1796000
-1793910
-1793160
-1792711
-1788705
-1789302
-1791404
-1792225
-1792678
-1795087
-1793724
-1791249
-1790168
-1789689
-1785326
-1785659
-1787375
-1787989
-1788280
-1790248
-1789162
-1786368
-1785239
-1784569
-1780244
-1780603
-1782437
-1783095
-1783055
-1785198
-1784031
-1781294
-1780580
-1779994
-1775749
-1776416
-1778385
-1779251
-1779374
-1781805
-1780712
-1778399
-1777748
-1777302
-1773096
-1773910
-1776213
-1777149
-1777626
-1780378
-1779610
-1777223
-1776698
-1776792
-1772725
-1773700
-1775957
-1777376
-1777896
-1780722
-1780046
-1777918
-1777480
-1777332
-1773656
-1774562
-1776910
-1778284
-1779109
-1781967
-1781265
-1779257
-1778773
-1778756
-1774894
-1776117
-1778693
-1779779
-1780619
-1783273
-1782716
-1780602
-1780142
-1780273
-1776633
-1777466
-1779964
-1781369
-1782119
-1784875
-1784155
-1782116
-1781837
-1781897
-1777952
-1779145
-1781537
-1782967
-1783647
-1786400
-1785752
-1783536
-1783399
-1783501
-1779627
-1780572
-1783186
-1784641
-1785274
-1788164
-1787472
-1785311
-1785001
-1785100
-1781550
-1782466
-1784987
-1786458
-1787150
-1790195
-1789643
-1787299
-1786925
-1787141
-1783469
-1784469
-1786918
-1788545
-1789050
-1792057
-1791437
-1789321
-1788961
-1789111
-1785417
-1786407
-1788879
-1790064
-1790621
-1793614
-1793086
-1790847
-1790327
-1790191
-1786466
-1787572
-1789947
-1791177
-1791628
-1794684
-1793867
-1791618
-1791217
-1791153
-1787212
-1788347
-1790845
-1792079
-1792347
-1795256
-1794447
-1792212
-1791789
-1791664
-1787736
-1788453
-1791024
-1792098
-1792529
-1795336
-1794543
-1792249
-1791811
-1791776
-1787904
-1788811
-1791181
-1792306
-1792494
-1795346
-1794730
-1792372
-1791951
-1791821
-1787864
-1788857
-1791229
-1792422
-1792604
-1795527
-1795049
-1792630
-1792210
-1791869
-1788253
-1789010
-1791447
-1792731
-1793248
-1796011
-1795421
-1793162
-1792753
-1792523
-1788707
-1789628
-1792347
-1793479
-1793662
-1796669
-1796207
-1793784
-1793314
-1793322
-1789504
-1790459
-1793255
-1794561
-1794628
-1797730
-1797132
-1794816
-1794476
-1794394
-1790654
-1791625
-1794196
-1795423
-1795560
-1798904
-1798313
-1795747
-1795365
-1795422
-1791845
-1792518
-1795336
-1796457
-1796809
-1799940
-1799370
-1796807
-1796471
-1796426
-1792587
-1793629
-1796374
-1797420
-1797747
-1800736
-1799940
-1797592
-1797202
-1797244
-1793568
-1794319
-1797008
-1798201
-1798549
-1801639
-1800920
-1798482
-1798234
-1797899
-1794370
-1795102
-1797915
-1799052
-1799092
-1802226
-1801569
-1799258
-1799043
-1798775
-1795108
-1795909
-1798805
-1799998
-1800266
-1803206
-1802718
-1800269
-1799875
-1799769
-1796372
-1797101
-1799948
-1800954
-1801081
-1804080
-1803679
-1801227
-1800833
-1800634
-1797086
-1798076
-1800734
-1801843
-1801936
-1804957
-1804565
-1802080
-1801709
-1801485
-1798225
-1799128
-1801666
-1802898
-1803020
-1805926
-1805571
-1803180
-1803002
-1802804
-1799223
-1800093
-1802738
-1804088
-1803988
-1806981
-1806547
-1804154
-1803867
-1803596
-1800117
-1801013
-1803769
-1804823
-1804822
-1807725
-1807291
-1805029
-1804486
-1804166
-1801012
-1801624
-1804587
-1805579
-1805415
-1808243
-1807716
-1805254
-1804987
-1804634
-1801103
-1801741
-1804203
-1804998
-1804970
-1807411
-1806797
-1803868
-1803178
-1802586
-1798812
-1799101
-1801569
-1801854
-1801412
-1803875
-1802662
-1799730
-1798962
-1798097
-1793956
-1794245
-1796551
-1797119
-1796621
-1798944
-1798775
-1795203
-1794051
-1793416
-1789478
-1789918
-1792270
-1792914
-1792564
-1795121
-1794138
-1791550
-1790829
-1790114
-1786290
-1786491
-1789306
-1790246
-1789842
-1792677
-1792060
-1789402
-1788961
-1787914
-1784672
-1785593
-1788288
-1789533
-1789447
-1792344
-1791563
-1789282
-1789171
-1788697
-1785311
-1786069
-1788971
-1790159
-1790112
-1793351
-1792676
-1790488
-1790027
-1789638
-1786206
-1787165
-1790143
-1791324
-1791418
-1794695
-1793993
-1791876
-1791667
-1791127
-1789156
-1789383
-1792035
-1793183
-1793159
-1796174
-1795581
-1793588
-1793171
-1792896
-1789252
-1790402
-1793305
-1794396
-1794616
-1797951
-1797254
-1794886
-1794691
-1794203
-1790573
-1791901
-1794936
-1796045
-1795933
-1799080
-1798460
-1796527
-1796215
-1795621
-1792024
-1793180
-1796235
-1797474
-1797457
-1800791
-1800022
-1798144
-1797764
-1797434
-1793973
-1795338
-1798218
-1799530
-1799639
-1802715
-1802086
-1800200
-1799926
-1799323
-1795725
-1797198
-1800158
-1801444
-1801517
-1804832
-1803840
-1801922
-1801489
-1801033
-1797470
-1799033
-1801807
-1802611
-1802753
-1805939
-1805071
-1803089
-1802684
-1802153
-1798342
-1799833
-1802601
-1803416
-1803448
-1806684
-1805527
-1803542
-1803160
-1802512
-1798883
-1800218
-1802778
-1803704
-1803546
-1806876
-1805654
-1803529
-1803201
-1802631
-1798929
-1800266
-1802933
-1803661
-1803475
-1806626
-1805485
-1803320
-1803048
-1802466
-1798705
-1800156
-1802657
-1803541
-1803553
-1806358
-1805264
-1803374
-1802787
-1802154
-1798565
-1799940
-1802417
-1803460
-1803280
-1806323
-1805285
-1803314
-1802966
-1802257
-1798893
-1800341
-1802722
-1803797
-1803849
-1806962
-1805592
-1803621
-1803595
-1802949
-1799442
-1800942
-1803583
-1804467
-1804349
-1807647
-1806415
-1804585
-1804396
-1803861
-1800515
-1802287
-1804685
-1805530
-1805514
-1808582
-1807325
-1806259
-1805627
-1804763
-1801383
-1802866
-1805331
-1806492
-1806373
-1809525
-1808200
-1806450
-1806135
-1805091
-1802082
-1803839
-1806223
-1807444
-1807529
-1810465
-1809245
-1807348
-1807067
-1806180
-1803230
-1805022
-1807483
-1808353
-1808424
-1811281
-1810062
-1808378
-1808228
-1807061
-1804275
-1805816
-1808389
-1809270
-1809525
-1812452
-1811201
-1809362
-1809304
-1808217
-1805462
-1807182
-1810529
-1810580
-1811452
-1813677
-1811932
-1810267
-1810160
-1808881
-1806302
-1807889
-1810223
-1811330
-1811381
-1814421
-1812812
-1811168
-1810882
-1809513
-1807247
-1808937
-1811104
-1812235
-1812641
-1815115
-1813632
-1811977
-1811935
-1810454
-1807889
-1809566
-1811967
-1812990
-1813481
-1815932
-1814411
-1812952
-1812698
-1810914
-1808523
-1810419
-1812819
-1813867
-1814584
-1817025
-1815342
-1813834
-1813724
-1811947
-1809701
-1811327
-1813739
-1814633
-1815406
-1817713
-1815681
-1814163
-1813872
-1811861
-1809507
-1811382
-1813510
-1814344
-1814794
-1816915
-1814790
-1812811
-1812106
-1809498
-1807050
-1808527
-1810151
-1810685
-1810848
-1812685
-1810099
-1808081
-1807181
-1804533
-1801880
-1803210
-1804774
-1805173
-1805625
-1807247
-1804762
-1803952
-1802594
-1799488
-1796921
-1798453
-1800291
-1800936
-1801548
-1803145
-1800828
-1799111
-1798565
-1795778
-1793593
-1795338
-1797094
-1797880
-1798953
-1800903
-1798615
-1797032
-1796796
-1794468
-1792387
-1794294
-1796331
-1797420
-1798618
-1800513
-1798396
-1796853
-1796777
-1794142
-1791872
-1794406
-1796548
-1797613
-1799153
-1801015
-1798747
-1797683
-1797423
-1794920
-1793126
-1795671
-1797787
-1798911
-1800455
-1802339
-1799863
-1798697
-1798685
-1797616
-1794928
-1796948
-1799209
-1799992
-1801623
-1803589
-1801119
-1800016
-1799898
-1797410
-1795591
-1798061
-1800131
-1801199
-1802971
-1804752
-1802255
-1801383
-1801226
-1798592
-1796937
-1798850
-1801380
-1802461
-1804259
-1805899
-1803651
-1802446
-1802731
-1800056
-1798551
-1800794
-1802990
-1804039
-1806001
-1807593
-1805503
-1804616
-1804610
-1801752
-1800389
-1802899
-1804985
-1806268
-1808263
-1809870
-1807404
-1806335
-1805865
-1803387
-1802200
-1804525
-1806665
-1807934
-1809792
-1811331
-1808863
-1807885
-1807748
-1804736
-1803595
-1805921
-1808054
-1808877
-1811090
-1812295
-1809928
-1808824
-1808564
-1805763
-1804468
-1806632
-1808717
-1809546
-1811837
-1813190
-1810539
-1809465
-1809239
-1806372
-1805113
-1807213
-1809300
-1810034
-1812260
-1813325
-1810685
-1809705
-1809367
-1806300
-1804942
-1807354
-1809383
-1810192
-1812364
-1813011
-1810766
-1809855
-1809398
-1806180
-1805154
-1807270
-1809449
-1810248
-1812406
-1813466
-1810989
-1809727
-1809325
-1806083
-1805132
-1807557
-1809446
-1810368
-1812783
-1813707
-1811000
-1809980
-1809714
-1806585
-1805732
-1808086
-1810090
-1810957
-1813335
-1815536
-1812281
-1810939
-1810838
-1807140
-1806471
-1808755
-1810782
-1811816
-1814360
-1815045
-1812567
-1811630
-1811606
-1808119
-1807333
-1809902
-1811870
-1812934
-1815556
-1816240
-1813641
-1812735
-1812560
-1809029
-1808344
-1810886
-1812960
-1813967
-1816545
-1817229
-1814741
-1813647
-1813406
-1809910
-1809299
-1811654
-1813795
-1814690
-1817310
-1818005
-1815480
-1814596
-1814183
-1810473
-1810212
-1812631
-1814779
-1815857
-1818422
-1819005
-1816117
-1815420
-1815294
-1811437
-1811118
-1813448
-1815459
-1816634
-1819241
-1819186
-1816924
-1816192
-1815930
-1812124
-1811852
-1814366
-1816309
-1817421
-1819930
-1820302
-1817918
-1816902
-1816891
-1812938
-1812537
-1814970
-1817107
-1818306
-1820870
-1821338
-1818802
-1817843
-1817696
-1813830
-1813534
-1816153
-1818162
-1819321
-1822011
-1822278
-1819793
-1819111
-1818956
-1814959
-1814777
-1817303
-1819418
-1820479
-1823193
-1823438
-1820740
-1819916
-1819661
-1816126
-1815716
-1818441
-1820230
-1821349
-1824291
-1824409
-1821852
-1820911
-1820839
-1816811
-1816545
-1819215
-1821040
-1822075
-1825033
-1825218
-1822466
-1821544
-1821507
-1817508
-1817167
-1819570
-1821573
-1823961
-1825809
-1825288
-1822330
-1821185
-1821068
-1816946
-1816341
-1818596
-1820194
-1820848
-1823106
-1822739
-1819661
-1818193
-1817320
-1813013
-1812197
-1814081
-1815556
-1815993
-1818085
-1817488
-1814129
-1812555
-1811950
-1807294
-1806594
-1808349
-1809640
-1809995
-1812202
-1811742
-1808574
-1807413
-1806589
-1802022
-1801392
-1803392
-1804927
-1805332
-1807916
-1807620
-1804787
-1803503
-1802861
-1798682
-1798315
-1800641
-1802305
-1803116
-1805866
-1805722
-1802844
-1802017
-1801465
-1797653
-1797714
-1800157
-1801801
-1802848
-1805681
-1805709
-1803187
-1802346
-1802130
-1798150
-1798139
-1800682
-1802491
-1803575
-1806553
-1806545
-1804067
-1803254
-1803021
-1798840
-1798990
-1801556
-1803318
-1804468
-1807343
-1807460
-1804711
-1803848
-1803686
-1799825
-1801261
-1802684
-1804322
-1805256
-1808090
-1809552
-1805904
-1804709
-1804549
-1800414
-1800649
-1803260
-1804915
-1805940
-1808666
-1808849
-1806379
-1805502
-1805370
-1801458
-1801414
-1804074
-1805820
-1806725
-1809834
-1809918
-1807243
-1805965
-1806384
-1802209
-1802508
-1805457
-1807123
-1808178
-1811178
-1811113
-1808417
-1807711
-1807823
-1803789
-1803952
-1806694
-1808321
-1809387
-1811918
-1812527
-1810071
-1808857
-1809116
-1805281
-1805653
-1808405
-1810245
-1810976
-1814060
-1814041
-1811553
-1811040
-1811032
-1806876
-1807115
-1810090
-1811840
-1812665
-1815268
-1815527
-1813184
-1812441
-1812408
-1808262
-1808683
-1811345
-1813168
-1813787
-1816925
-1816937
-1814485
-1813563
-1813445
-1809327
-1809673
-1812159
-1813893
-1814919
-1817698
-1817519
-1814972
-1814075
-1813888
-1809958
-1810132
-1812875
-1814393
-1815138
-1817935
-1817755
-1815303
-1814360
-1814300
-1810283
-1810540
-1812984
-1814450
-1815235
-1818104
-1817715
-1815515
-1814464
-1814266
-1810324
-1810617
-1813027
-1814641
-1815607
-1818251
-1818255
-1815524
-1814676
-1814543
-1810102
-1810882
-1813393
-1814936
-1815872
-1818723
-1818463
-1816030
-1815171
-1815112
-1811048
-1811548
-1814204
-1815579
-1816514
-1819357
-1819231
-1816808
-1816085
-1816041
-1812149
-1812361
-1814961
-1816564
-1817490
-1820341
-1819927
-1817590
-1816838
-1816509
-1812697
-1813225
-1815923
-1817109
-1818275
-1821324
-1821038
-1818556
-1817833
-1817757
-1813878
-1814387
-1816715
-1818405
-1819269
-1822024
-1821941
-1819549
-1818780
-1818662
-1814823
-1815422
-1817810
-1819581
-1820472
-1823122
-1822715
-1820512
-1820016
-1819754
-1815717
-1816432
-1818928
-1820449
-1821339
-1824257
-1823797
-1821542
-1820927
-1820598
-1816768
-1817421
-1819733
-1821226
-1822131
-1824886
-1824531
-1822363
-1821747
-1821647
-1817754
-1818490
-1820795
-1822469
-1823050
-1825981
-1825539
-1823084
-1822548
-1822289
-1818436
-1819223
-1821756
-1823080
-1824109
-1826736
-1826204
-1824052
-1823609
-1823157
-1819381
-1820081
-1822594
-1824057
-1824860
-1827395
-1826935
-1824779
-1824181
-1823763
-1820066
-1820938
-1823158
-1824561
-1825402
-1828048
-1827724
-1825415
-1825044
-1824698
-1820944
-1821824
-1824159
-1825614
-1826554
-1829294
-1828673
-1826500
-1826065
-1825989
-1822323
-1823207
-1825456
-1826206
-1827567
-1830388
-1829893
-1827483
-1826994
-1826616
-1822567
-1823190
-1825336
-1826748
-1827389
-1830007
-1829164
-1826724
-1825676
-1825037
-1820904
-1821550
-1823225
-1824101
-1824648
-1826794
-1825784
-1822902
-1821878
-1821033
-1816630
-1816897
-1818589
-1819415
-1819664
-1821775
-1820364
-1817728
-1816423
-1815603
-1811472
-1811683
-1813345
-1814330
-1814233
-1816706
-1815751
-1812927
-1811853
-1811040
-1806856
-1807501
-1808917
-1810014
-1810727
-1812920
-1812050
-1809495
-1808401
-1808007
-1804299
-1804789
-1807011
-1808031
-1808769
-1810861
-1810651
-1808579
-1807865
-1807409
-1803779
-1804772
-1806881
-1808270
-1808731
-1811363
-1810898
-1808720
-1808210
-1807837
-1804043
-1804866
-1807255
-1808680
-1809250
-1811976
-1811482
-1809247
-1808852
-1808615
-1804973
-1805946
-1808181
-1809542
-1810329
-1813214
-1812413
-1810368
-1809674
-1809468
-1805789
-1806629
-1808910
-1810509
-1811127
-1813857
-1813431
-1811058
-1810580
-1810420
-1806670
-1807584
-1809844
-1811303
-1811857
-1814616
-1814091
-1811921
-1811436
-1811114
-1807385
-1808281
-1810578
-1812071
-1812805
-1815557
-1814977
-1812847
-1812452
-1812278
-1808629
-1809550
-1811932
-1813183
-1814078
-1817071
-1816189
-1814104
-1813513
-1813489
-1809752
-1810850
-1813232
-1814632
-1815419
-1818300
-1817642
-1815849
-1815367
-1815325
-1811758
-1812842
-1815123
-1817666
-1817873
-1820619
-1819766
-1817758
-1817492
-1817390
-1813561
-1814568
-1816835
-1818476
-1819311
-1821978
-1821050
-1819006
-1818680
-1820023
-1815300
-1816128
-1818424
-1819886
-1820502
-1823116
-1822241
-1820180
-1819533
-1819506
-1815082
-1816469
-1818592
-1819903
-1820573
-1823439
-1822417
-1820351
-1819607
-1819388
-1815490
-1816389
-1818570
-1819942
-1820577
-1823191
-1822372
-1819909
-1819388
-1819176
-1815372
-1817495
-1818872
-1819723
-1820139
-1822945
-1822198
-1819829
-1819209
-1819164
-1815127
-1816415
-1818425
-1819877
-1820640
-1823457
-1822380
-1819566
-1819640
-1819841
-1817156
-1816937
-1820351
-1820701
-1821071
-1823849
-1822980
-1820713
-1820360
-1820544
-1816476
-1817499
-1819674
-1821120
-1821793
-1824777
-1823837
-1821789
-1821225
-1821295
-1817478
-1818561
-1820788
-1822098
-1822629
-1825438
-1824733
-1822430
-1821868
-1821936
-1817859
-1819026
-1821120
-1822663
-1823118
-1826022
-1825295
-1822999
-1822703
-1822616
-1818905
-1819751
-1822096
-1823460
-1824007
-1827050
-1826143
-1823931
-1823730
-1823608
-1819929
-1820879
-1823131
-1824561
-1825219
-1828004
-1827103
-1825040
-1824464
-1824435
-1820685
-1821627
-1823983
-1825486
-1826090
-1828878
-1828121
-1825991
-1825638
-1825674
-1821889
-1822951
-1825312
-1826665
-1827039
-1830130
-1829321
-1827080
-1826688
-1826483
-1822744
-1823693
-1826041
-1827540
-1828123
-1830811
-1830205
-1827782
-1827427
-1827283
-1823550
-1824477
-1826916
-1828260
-1828818
-1831579
-1830740
-1828389
-1828043
-1828096
-1824175
-1825031
-1827525
-1828751
-1829024
-1832235
-1831591
-1829101
-1828745
-1828742
-1824948
-1825900
-1828263
-1829722
-1830087
-1833210
-1832635
-1830261
-1829816
-1829897
-1825982
-1827047
-1829448
-1830991
-1831278
-1834365
-1833832
-1831464
-1830802
-1830581
-1826870
-1827823
-1830215
-1831499
-1832008
-1835058
-1834056
-1831952
-1830957
-1831101
-1827381
-1828507
-1831059
-1832355
-1832854
-1835758
-1835140
-1832833
-1832415
-1832088
-1828207
-1829226
-1831832
-1832969
-1833276
-1836525
-1835723
-1833382
-1833017
-1832675
-1829001
-1829912
-1831992
-1833318
-1833450
-1836569
-1835874
-1833421
-1832709
-1832181
-1828217
-1828824
-1831346
-1832201
-1831598
-1834703
-1833661
-1830901
-1829702
-1829087
-1824875
-1824916
-1826986
-1827784
-1827214
-1829659
-1828562
-1825455
-1824152
-1823442
-1818955
-1819358
-1821319
-1821950
-1821580
-1824110
-1822777
-1819827
-1818951
-1818186
-1814028
-1814344
-1816582
-1817301
-1817047
-1819677
-1818699
-1816106
-1815407
-1814814
-1810812
-1811327
-1813700
-1814771
-1814688
-1817710
-1816856
-1814226
-1813874
-1813511
-1809505
-1810211
-1812949
-1814042
-1817398
-1816669
-1814255
-1813682
-1813578
-1809899
-1810646
-1813430
-1814756
-1814916
-1818120
-1817524
-1814987
-1814671
-1814468
-1810890
-1811836
-1814299
-1815659
-1815854
-1819056
-1818223
-1815800
-1815610
-1815340
-1811582
-1812547
-1815204
-1816678
-1816923
-1819833
-1819230
-1816908
-1816552
-1816296
-1812919
-1813612
-1816362
-1817592
-1817714
-1820906
-1820373
-1817990
-1817751
-1817523
-1813587
-1814421
-1817372
-1818703
-1818796
-1821828
-1821289
-1818717
-1818497
-1818435
-1814881
-1815668
-1818207
-1819434
-1819622
-1822859
-1822315
-1819358
-1819402
-1819173
-1815524
-1816555
-1819245
-1820795
-1820679
-1823745
-1823498
-1821081
-1820773
-1820669
-1817128
-1818096
-1820985
-1822115
-1822439
-1825663
-1825101
-1822603
-1822555
-1822413
-1818959
-1819942
-1822903
-1824221
-1824187
-1827280
-1826852
-1824544
-1824309
-1824098
-1820592
-1821438
-1824365
-1825600
-1825813
-1828765
-1828342
-1825988
-1825555
-1825375
-1821934
-1822690
-1825044
-1826229
-1826082
-1829031
-1828381
-1825837
-1825633
-1825319
-1821654
-1822214
-1825060
-1826260
-1826239
-1829179
-1828563
-1826013
-1825719
-1825220
-1821829
-1822417
-1825248
-1826357
-1826385
-1828989
-1828409
-1825865
-1825620
-1825131
-1821776
-1822405
-1826045
-1826352
-1826084
-1829019
-1828579
-1825972
-1825656
-1825172
-1821641
-1822369
-1825435
-1826406
-1826361
-1829549
-1828968
-1826414
-1826086
-1825946
-1822417
-1823165
-1826129
-1827332
-1827164
-1830215
-1829522
-1827246
-1826707
-1826428
-1822597
-1823595
-1826716
-1827882
-1828829
-1831171
-1830288
-1827811
-1827471
-1827004
-1823493
-1824462
-1827521
-1828536
-1828421
-1831541
-1830983
-1828534
-1828107
-1827908
-1824301
-1825027
-1828102
-1829127
-1829257
-1832361
-1831821
-1829394
-1828961
-1828477
-1824925
-1826041
-1829121
-1830230
-1830048
-1833170
-1832385
-1830285
-1829820
-1829391
-1826000
-1826874
-1829732
-1830949
-1831076
-1834167
-1833747
-1831350
-1831013
-1830614
-1826931
-1827399
-1830673
-1831890
-1831552
-1834926
-1834479
-1832123
-1831795
-1831221
-1827879
-1828814
-1832007
-1832976
-1833987
-1836107
-1835250
-1832905
-1832583
-1832247
-1828623
-1829685
-1832697
-1833614
-1833474
-1836508
-1835532
-1833643
-1833144
-1832585
-1828948
-1830142
-1833046
-1833897
-1833849
-1836958
-1836378
-1833700
-1833377
-1833072
-1829315
-1830457
-1833376
-1834555
-1834497
-1837731
-1837157
-1834850
-1834616
-1834026
-1830565
-1831706
-1834512
-1835454
-1835371
-1839368
-1838149
-1835951
-1835476
-1834677
-1831304
-1832299
-1835323
-1836347
-1836208
-1839554
-1838780
-1836647
-1835948
-1835649
-1831782
-1833003
-1835912
-1836937
-1837140
-1840285
-1839477
-1837128
-1836728
-1836185
-1832502
-1833869
-1836961
-1837776
-1837748
-1841194
-1840449
-1838277
-1837887
-1837385
-1833538
-1834925
-1837812
-1838895
-1838911
-1842204
-1841509
-1839495
-1838884
-1838419
-1836314
-1836688
-1839291
-1840338
-1840127
-1843322
-1842461
-1840347
-1839878
-1839398
-1835570
-1836997
-1839631
-1840483
-1840375
-1843492
-1842523
-1840203
-1839578
-1838788
-1834783
-1835704
-1838128
-1838757
-1838348
-1841174
-1839664
-1837071
