PPG
-827724
-825846
-825370
-819635
-819259
-822448
-824347
-824786
-830690
-831391
-827038
-825353
-824840
-819473
-818925
-822040
-823911
-824269
-830329
-831102
-826726
-825234
-824633
-819316
-818790
-821840
-823798
-824312
-830177
-831123
-826858
-825395
-824955
-819575
-819119
-822291
-824326
-824737
-830731
-831692
-827296
-825814
-825418
-819918
-819662
-822809
-824763
-825234
-831413
-832443
-828152
-826702
-826194
-820882
-820467
-823698
-825643
-826101
-832090
-833065
-828730
-827263
-826790
-821392
-820949
-824063
-826053
-826442
-832537
-833529
-829139
-827701
-827209
-821722
-821471
-824610
-826620
-827023
-833154
-833956
-829640
-828091
-827636
-822207
-821879
-825079
-827039
-827437
-833481
-834421
-830086
-828584
-828091
-822789
-822395
-825576
-827422
-827877
-833787
-834736
-830445
-828772
-828371
-822994
-822383
-825487
-827489
-827868
-833659
-834621
-830286
-828759
-828284
-822762
-822229
-825339
-827250
-827542
-833427
-834322
-822179
-821800
-824994
-827296
-827844
-833710
-834595
-830237
-828812
-828372
-823209
-822759
-825967
-827880
-828355
-834259
-835227
-830954
-829374
-829027
-823738
-823319
-826430
-828684
-829079
-835045
-836214
-831936
-830484
-830028
-824794
-824437
-827777
-829922
-830336
-836252
-837428
-833151
-831577
-831268
-826076
-825692
-828791
-830930
-831375
-837408
-838464
-834165
-832710
-832407
-827015
-826583
-829739
-831914
-832477
-838319
-839454
-835314
-833779
-833252
-827847
-827477
-830523
-832581
-832952
-839111
-840162
-835813
-834327
-833743
-828352
-827948
-831027
-833026
-833366
-839368
-840136
-835835
-834178
-833676
-828191
-827784
-830816
-832719
-833330
-839427
-840376
-836225
-834655
-834244
-828933
-828456
-831681
-833739
-834253
-840257
-841372
-836700
-835394
-834938
-829532
-829207
-832445
-834427
-834857
-841106
-842090
-837752
-836205
-835796
-830495
-830031
-833147
-835132
-835673
-841636
-842634
-838409
-836927
-836544
-831089
-830715
-833820
-835861
-836392
-842469
-843393
-839069
-837554
-837092
-831720
-831442
-834549
-836631
-837144
-843130
-844184
-839994
-838528
-838171
-833000
-832583
-835817
-837860
-838406
-844424
-845388
-841047
-839514
-839059
-833568
-833256
-836167
-838170
-838452
-844380
-845443
-841343
-840087
-839888
-834553
-833986
-837013
-839090
-839569
-845835
-846893
-842673
-841007
-840616
-835232
-834908
-838020
-840076
-840570
-846574
-847579
-843407
-841877
-841427
-836097
-835653
-838665
-840929
-841499
-847418
-848531
-844452
-843013
-842577
-837120
-836840
-839998
-842029
-842501
-848574
-849628
-845421
-843838
-843362
-837980
-837497
-840594
-842713
-843085
-849019
-850054
-845705
-844113
-843692
-838282
-837857
-840912
-843151
-843791
-849910
-850999
-846824
-845188
-844813
-839499
-839063
-842317
-844406
-844904
-850954
-852079
-847764
-846262
-845732
-840402
-840011
-843007
-845140
-845660
-851557
-852418
-848055
-846478
-845882
-840277
-839715
-842517
-844414
-844634
-850236
-850917
-846206
-844171
-843416
-837547
-836745
-839366
-841116
-840993
-846432
-847037
-842231
-840255
-839443
-833520
-832520
-835173
-836772
-836762
-842209
-842989
-838601
-836809
-836005
-830339
-829585
-832112
-834110
-834354
-840044
-840875
-836358
-834642
-833983
-828272
-827670
-830439
-832337
-832633
-838439
-839288
-834943
-833407
-832851
-827277
-826842
-829775
-831797
-832086
-837975
-839007
-834751
-833095
-832596
-827317
-826786
-829836
-831816
-832206
-838089
-839180
-834948
-833292
-832755
-827520
-826972
-830802
-832342
-832435
-838390
-839410
-835176
-833515
-833167
-827801
-827197
-830159
-832420
-832844
-838777
-839854
-835547
-834016
-833615
-828348
-827686
-830671
-832691
-833234
-839083
-840183
-835835
-834284
-833852
-828483
-827868
-830728
-832722
-833089
-839054
-840170
-835848
-834202
-833745
-828399
-827770
-830748
-832959
-833356
-839189
-840325
-836230
-834768
-834331
-828989
-828637
-831651
-833909
-834362
-840444
-841766
-837323
-835955
-835655
-830530
-829968
-833118
-835370
-835809
-841793
-843020
-838915
-837197
-836937
-831509
-831004
-834134
-836305
-836749
-842673
-843703
-839436
-837859
-837462
-832104
-831443
-834609
-836746
-837141
-842993
-844157
-839835
-838092
-837710
-832216
-831473
-834567
-836655
-837160
-842895
-844128
-839838
-838233
-837734
-832212
-831590
-834612
-836781
-837212
-842942
-844144
-839851
-838190
-837806
-832405
-831757
-834584
-836822
-837312
-843037
-844232
-839826
-838224
-837749
-832508
-831796
-834768
-836942
-837407
-843099
-844329
-839970
-838351
-837878
-832660
-832009
-834870
-837090
-837539
-843342
-844595
-840348
-838673
-838304
-833060
-832425
-835469
-837619
-838092
-843799
-844996
-840676
-839192
-838769
-833435
-832844
-835784
-838112
-838632
-844361
-845523
-841263
-839562
-839084
-833771
-833269
-836325
-838453
-839035
-844783
-846054
-841687
-840149
-839738
-834537
-834121
-836979
-839756
-839864
-845569
-846755
-842692
-841186
-841456
-835744
-835018
-837993
-840178
-840708
-846457
-847642
-843536
-841971
-841462
-836367
-835729
-838668
-841509
-841469
-847124
-848276
-844170
-842548
-842082
-836969
-836305
-839229
-841394
-841837
-847446
-848760
-844570
-843144
-842653
-837527
-837040
-839916
-841966
-842590
-848166
-849428
-845401
-843846
-843437
-838305
-837633
-840615
-842827
-843242
-848903
-850107
-846018
-844510
-844154
-838965
-838353
-841255
-843414
-843969
-849490
-850926
-846766
-845254
-844856
-839818
-839159
-842083
-844186
-844859
-850501
-851974
-847746
-846236
-845762
-840745
-840240
-843245
-845530
-846091
-851720
-853000
-848849
-847345
-847036
-842036
-841359
-844312
-846600
-847123
-852790
-854185
-850137
-848655
-848288
-843158
-842583
-845549
-847746
-848165
-853476
-854799
-850650
-849481
-848765
-843723
-843093
-845916
-848045
-848481
-853930
-855474
-851226
-849725
-849322
-844419
-843542
-846543
-848731
-849311
-854827
-856211
-851964
-850881
-850154
-845114
-844366
-847329
-849498
-850104
-855536
-857123
-852912
-851443
-850850
-845915
-845077
-847994
-850243
-850686
-856262
-857857
-853607
-852008
-851424
-846562
-845952
-848928
-851074
-851438
-856965
-858435
-854422
-852942
-852549
-847551
-846866
-849798
-852059
-852703
-858084
-859635
-855506
-853967
-853560
-848550
-847609
-850544
-852841
-853264
-858492
-860268
-856233
-854573
-854223
-849259
-848440
-851344
-853592
-854213
-859523
-861204
-857117
-855765
-855388
-850434
-849619
-852729
-854889
-855554
-860670
-862199
-858134
-856457
-856042
-851142
-850281
-853231
-855523
-856147
-861336
-862948
-858955
-857349
-856828
-851968
-851108
-854140
-856300
-856930
-862110
-863844
-859613
-858207
-857785
-852801
-852025
-854930
-857105
-857682
-862855
-864604
-860588
-858991
-858490
-853641
-852701
-855663
-857854
-858527
-863690
-865486
-861408
-859807
-859413
-855066
-853658
-856558
-858778
-859337
-864346
-866224
-862267
-860683
-860154
-855340
-854330
-857366
-859517
-860090
-865020
-866821
-862818
-861088
-860596
-855645
-854463
-857134
-859237
-859654
-864467
-866178
-861794
-859950
-859039
-853808
-852628
-855133
-856914
-857136
-861623
-863258
-858705
-856713
-855817
-850592
-849312
-851745
-853553
-853692
-858364
-859951
-855544
-853467
-852618
-847484
-846215
-848709
-850708
-850973
-855508
-857301
-852655
-851545
-850412
-845333
-844066
-846684
-848763
-849163
-853935
-855729
-851641
-849921
-849269
-844311
-843267
-845773
-848078
-848728
-853452
-855431
-851387
-849800
-849212
-844406
-843940
-846271
-848451
-848853
-853546
-855587
-851616
-850015
-849380
-844691
-843591
-846463
-848649
-849253
-854008
-856185
-852025
-850548
-850144
-845414
-844401
-847160
-849454
-850021
-854738
-856930
-853059
-851328
-850808
-846078
-845157
-848083
-850105
-850578
-855282
-857470
-853384
-851787
-851374
-846881
-845440
-848321
-850489
-851082
-855771
-858150
-853604
-852393
-851726
-846881
-845714
-848478
-850799
-851452
-856004
-858206
-854487
-852704
-852189
-847455
-846313
-849263
-851504
-852728
-857105
-858997
-855117
-853488
-853137
-848419
-847265
-850158
-852753
-853304
-857771
-860079
-856082
-854480
-853970
-849462
-848051
-851084
-853057
-853496
-858016
-860192
-856344
-854681
-854220
-849866
-848484
-851151
-853395
-854077
-858556
-860851
-857013
-855254
-854817
-850239
-848880
-851662
-853862
-854470
-858962
-861113
-857096
-855530
-854958
-850374
-849072
-851728
-853951
-854584
-858872
-861218
-857177
-855488
-855007
-850464
-849124
-851917
-854426
-854879
-859289
-861440
-857391
-855806
-855264
-850787
-849481
-852345
-854421
-854926
-859335
-861725
-857888
-856026
-855714
-851444
-850113
-852677
-854859
-855578
-860004
-862396
-858428
-857027
-856455
-851917
-850611
-853440
-855622
-856300
-860680
-863243
-859286
-857391
-856755
-852224
-850772
-853729
-855981
-856701
-861258
-863481
-859545
-858044
-857644
-853212
-851679
-854599
-857056
-857396
-861657
-864038
-860128
-858528
-858120
-853733
-852291
-855196
-857305
-857846
-862189
-864803
-860893
-859243
-858836
-854446
-852896
-855779
-858005
-858590
-862848
-865387
-861683
-860050
-859617
-855278
-853879
-856772
-858888
-859582
-863739
-866384
-862676
-860826
-860343
-856051
-854733
-857455
-859813
-860365
-864437
-868018
-863416
-861636
-861157
-856760
-855074
-857812
-860218
-860642
-864801
-867384
-863581
-861909
-861422
-857113
-855519
-858202
-860444
-861072
-865305
-867966
-864236
-862464
-862070
-857934
-856225
-859007
-861470
-862026
-866066
-868796
-865076
-863562
-863142
-858824
-857166
-859980
-862277
-862737
-866878
-869630
-865832
-864160
-863602
-859305
-857612
-860408
-862602
-863029
-866968
-869609
-865762
-864050
-863483
-859121
-857426
-860086
-862259
-862680
-866731
-869412
-865677
-864002
-863495
-859176
-857479
-860397
-862875
-863563
-867622
-870396
-866697
-864901
-864534
-860330
-858548
-861481
-863673
-864062
-868136
-871032
-867410
-865812
-865288
-861022
-859271
-862186
-864565
-865208
-869211
-872044
-868344
-866581
-866248
-862009
-860345
-862956
-865366
-865953
-869833
-872595
-868837
-867090
-866724
-862524
-860664
-863255
-865683
-866209
-870089
-872935
-869228
-867394
-867018
-862857
-861021
-864059
-866656
-867150
-870900
-873847
-870250
-868483
-868072
-864001
-862164
-864957
-867356
-867911
-871723
-874704
-871119
-869340
-868909
-864821
-862997
-865804
-868178
-868738
-872629
-875616
-871982
-870245
-869861
-865719
-863799
-866564
-869019
-869489
-873330
-876316
-873435
-871118
-870466
-866316
-864407
-867146
-869481
-870046
-873808
-876842
-873228
-871256
-870812
-866869
-864989
-867691
-870103
-870537
-874203
-877413
-873779
-871957
-871580
-867656
-865876
-868623
-871247
-871730
-875408
-878466
-874869
-872999
-872502
-868436
-866318
-868997
-871256
-871672
-875124
-878111
-874173
-872100
-871465
-867017
-864858
-867327
-869568
-869784
-873040
-875869
-872057
-869884
-869187
-864801
-862471
-864756
-866965
-867144
-870263
-873107
-869243
-866985
-866093
-861847
-859386
-861733
-863802
-864024
-867244
-870192
-866170
-864069
-863229
-859301
-857097
-859883
-862267
-862701
-865883
-868913
-865333
-863301
-862766
-859077
-857264
-859435
-861611
-862160
-865513
-868683
-865133
-863192
-862851
-858900
-856803
-859507
-861963
-862675
-866205
-869975
-866270
-864303
-863976
-860186
-858201
-860906
-863578
-864245
-867688
-871065
-867747
-865677
-865354
-861699
-859412
-862012
-864460
-864975
-868319
-871614
-868146
-866170
-865572
-861936
-859575
-862231
-864685
-865214
-868669
-872067
-868595
-866543
-866184
-862660
-860523
-863082
-865745
-866369
-869861
-873265
-869917
-868028
-867619
-864029
-861891
-864526
-867136
-867436
-870530
-873907
-870549
-868591
-868182
-864650
-862359
-864978
-867625
-868120
-871421
-874837
-871590
-869465
-868908
-865130
-862933
-865466
-868060
-868438
-871584
-874978
-871789
-869559
-869019
-865496
-863188
-865830
-868320
-869045
-872051
-875584
-872530
-870678
-870208
-866782
-864558
-867231
-869558
-869877
-872746
-876249
-872817
-870644
-870109
-866457
-863846
-866188
-868600
-868983
-871992
-875385
-872075
-869945
-869247
-865844
-863266
-865742
-868372
-868877
-871752
-875327
-872089
-869837
-869293
-865557
-863297
-865778
-868232
-868896
-871750
-875135
-871925
-870008
-869498
-865719
-863519
-866106
-868489
-868999
-872128
-875989
-872427
-870433
-870163
-866947
-864374
-867008
-869588
-870337
-873418
-877244
-874090
-872007
-871418
-868050
-865482
-867841
-870409
-870865
-873794
-877393
-874201
-872101
-871516
-868223
-865650
-868316
-870896
-871498
-874467
-878227
-875093
-872907
-872671
-869471
-867007
-869530
-872180
-872879
-875918
-879611
-876724
-874623
-874176
-870945
-868311
-870641
-873060
-873696
-876559
-880496
-877175
-875078
-874664
-871543
-868699
-871219
-873810
-874509
-877390
-881088
-877900
-875737
-875173
-871985
-869209
-871706
-874308
-874744
-877441
-881363
-878013
-875947
-875506
-872094
-869379
-871725
-874331
-874767
-877433
-881278
-878057
-875992
-875347
-872208
-869492
-871795
-874303
-874952
-877599
-881495
-878566
-876555
-875959
-872951
-870154
-872624
-875155
-875803
-878413
-882307
-879292
-877156
-876472
-873595
-870774
-873351
-875874
-876405
-879037
-882941
-880019
-877833
-877341
-874408
-871638
-873994
-876595
-877237
-879829
-883803
-880796
-878625
-878187
-875216
-872395
-874817
-877526
-878031
-880602
-884524
-881814
-879513
-878889
-876013
-873120
-875580
-878224
-878777
-881232
-885170
-882144
-879968
-879556
-876729
-873732
-876848
-878920
-879356
-881765
-885714
-882752
-880540
-879967
-877098
-874189
-876518
-879169
-879627
-882230
-886288
-883401
-881146
-880564
-877624
-874760
-877203
-879794
-880407
-882869
-887021
-884293
-882026
-881578
-878791
-875925
-878373
-880930
-881576
-883759
-888713
-885592
-883108
-882520
-879936
-876906
-879313
-881983
-882575
-884679
-888969
-886356
-884127
-883629
-880913
-877878
-880016
-882566
-883191
-885321
-889610
-886983
-884611
-884196
-881612
-878544
-880749
-883348
-883860
-886111
-890361
-887697
-885319
-884764
-882110
-879061
-881280
-883722
-884278
-886347
-890574
-887790
-885323
-884601
-881800
-878373
-880342
-882652
-882940
-884746
-888714
-885813
-883200
-882268
-879456
-875895
-877838
-880108
-880336
-881973
-886028
-883132
-880515
-879585
-876805
-873416
-875433
-877805
-878093
-879893
-884037
-881124
-878431
-877500
-874722
-871334
-873382
-875768
-876225
-878010
-882141
-879413
-876848
-876299
-873704
-870375
-872577
-874888
-875472
-877118
-881488
-878967
-876425
-875926
-873486
-870111
-872346
-874907
-875413
-877114
-881680
-879253
-876814
-876293
-873966
-870674
-872737
-875372
-875914
-877752
-882171
-879889
-877592
-876919
-874754
-871492
-873602
-876112
-876737
-878620
-883073
-880642
-878220
-877768
-875497
-872178
-874367
-877099
-877677
-879299
-883975
-881339
-879094
-878549
-876428
-872979
-875011
-877607
-878198
-880002
-884606
-882235
-879720
-879335
-877227
-873682
-875913
-878479
-879023
-880680
-885351
-882981
-880528
-880036
-878000
-874493
-876588
-879205
-879697
-881244
-885973
-883608
-881087
-880437
-878136
-874433
-876469
-879385
-879760
-880962
-885651
-883304
-880700
-879904
-877938
-874138
-876334
-878875
-879295
-880740
-885486
-883170
-880646
-880045
-878387
-874504
-876335
-878952
-879392
-880602
-885472
-883077
-880606
-879932
-878054
-874336
-876248
-878655
-879213
-880445
-885685
-883485
-880596
-879827
-877958
-874044
-876098
-878527
-879071
-880218
-885270
-882793
-880421
-879790
-877979
-874129
-876072
-878778
-879296
-880588
-885608
-883560
-880919
-880262
-878479
-874738
-876660
-879379
-879935
-881274
-886220
-884047
-881519
-881007
-879318
-875377
-877436
-880149
-880668
-881885
-886987
-884906
-882392
-881768
-880054
-876054
-877940
-880467
-881114
-882098
-887263
-885115
-882156
-881659
-880101
-876240
-878199
-880894
-881593
-882482
-887634
-885654
-882986
-882439
-880905
-876870
-878802
-881443
-881999
-883044
-888280
-886268
-883772
-883174
-881592
-877368
-879384
-882086
-882661
-883673
-888953
-886679
-883930
-883208
-881523
-877398
-879224
-881907
-882353
-883196
-888590
-886408
-883842
-883226
-881792
-877599
-879501
-882189
-882837
-883647
-889086
-887143
-884520
-883801
-882384
-878195
-880148
-882854
-883497
-884338
-889895
-888012
-885317
-884790
-883462
-879219
-881280
-884034
-884750
-885649
-891032
-889255
-886562
-886016
-884562
-880752
-882530
-885173
-885666
-886386
-891960
-889942
-887244
-886562
-885335
-880974
-882762
-885419
-886103
-886741
-892375
-890399
-887725
-887164
-885872
-881561
-883389
-886229
-886693
-887324
-893023
-891310
-888421
-887730
-886512
-881972
-883936
-886578
-887148
-887842
-893560
-891568
-888798
-888179
-886962
-882498
-884328
-887206
-887729
-888411
-893838
-892159
-889322
-888708
-887632
-883167
-885093
-887824
-888348
-889043
-894709
-892831
-890022
-889374
-888304
-883795
-885549
-888286
-888971
-889383
-895485
-893416
-890562
-889677
-888640
-883878
-885731
-888442
-889035
-889280
-895259
-893484
-890574
-889817
-888826
-884135
-886025
-888705
-889220
-889598
-895455
-893782
-890792
-889995
-889053
-884282
-885916
-888592
-889205
-889545
-895665
-893943
-891103
-890491
-889597
-884764
-886607
-889440
-889958
-890395
-896420
-894489
-891631
-890954
-890197
-885362
-887286
-890078
-890609
-890877
-896831
-894994
-892277
-891613
-890801
-885974
-887779
-890526
-891231
-891594
-897536
-895770
-892865
-892173
-891330
-886251
-888156
-890814
-891182
-891576
-897398
-895573
-892526
-891600
-890544
-885523
-887067
-889581
-889879
-889883
-895508
-893498
-890158
-889254
-888388
-882975
-884364
-886809
-887241
-887336
-892941
-890962
-887763
-886676
-885899
-880584
-881897
-884601
-885077
-885226
-890940
-888939
-885824
-884958
-884234
-878845
-880471
-883129
-883709
-884232
-889854
-887875
-884839
-883906
-883355
-878258
-879808
-882660
-883094
-883162
-889358
-887733
-884532
-883865
-883381
-878146
-879756
-882650
-883338
-883813
-889785
-888032
-885039
-884324
-883976
-878747
-880442
-883398
-884027
-884538
-890508
-889030
-885974
-885257
-884994
-879822
-881568
-884470
-885240
-885702
-891837
-890313
-887336
-886363
-886291
-881127
-883021
-885590
-886504
-887064
-893343
-891745
-888719
-888072
-887785
-882342
-884124
-887138
-887759
-888072
-894219
-892513
-889493
-888813
-888487
-883167
-884821
-887782
-888311
-888788
-894935
-893253
-890110
-889496
-889230
-883959
-885651
-888641
-889276
-889605
-895886
-894352
-891170
-890528
-890277
-884828
-886576
-889626
-890195
-890704
-896627
-895107
-891960
-891087
-890923
-885312
-886954
-889784
-890403
-890777
-896846
-895175
-891882
-891063
-890752
-885211
-886921
-889788
-890376
-890830
-896882
-895388
-892217
-891794
-891174
-885497
-887154
-889950
-890653
-891054
-897152
-895560
-892356
-891451
-891269
-885697
-887182
-890035
-890624
-890911
-897017
-895337
-892065
-891290
-891038
-885487
-886957
-889775
-890300
-890651
-896830
-895170
-891812
-890967
-890686
-885104
-886733
-889656
-890389
-890804
-896822
-895226
-892144
-891276
-891115
-885461
-886979
-890498
-890906
-891168
-897188
-895719
-892383
-891487
-891393
-885800
-887292
-890205
-890781
-891128
-897239
-895834
-892524
-891667
-891276
-885828
-887277
-890257
-890964
-891357
-897455
-896056
-892834
-891959
-891806
-886493
-887739
-890724
-891419
-891901
-898125
-896738
-893410
-892582
-892355
-886722
-888284
-891304
-891963
-892328
-898592
-897390
-894177
-893445
-893370
-887848
-889344
-892315
-892975
-893525
-899677
-898319
-894826
-894087
-893927
-888192
-889729
-892758
-893531
-893978
-900235
-898747
-895453
-894726
-894621
-889024
-890662
-893851
-894595
-895036
-901177
-899856
-896695
-895854
-895703
-890172
-891735
-894802
-895641
-896123
-902414
-901039
-897850
-896908
-896670
-890894
-892309
-895122
-896143
-896475
-902832
-901542
-898219
-897203
-896912
-891206
-892809
-895801
-896620
-897049
-903268
-901870
-898618
-897606
-897457
-891797
-893267
-896335
-897080
-897485
-903568
-902233
-898972
-898087
-897791
-892332
-893822
-896793
-897517
-897876
-904197
-902890
-899578
-899267
-898664
-892818
-894229
-897314
-898023
-898449
-904723
-903357
-900060
-899291
-898968
-893426
-894968
-897903
-898654
-899054
-905044
-903897
-900484
-899691
-899490
-893957
-895257
-898315
-899045
-899438
-905582
-904259
-901016
-900164
-899940
-894395
-895720
-898642
-899495
-900001
-906089
-904777
-901495
-900610
-900306
-894694
-896020
-898951
-899741
-900018
-906061
-904752
-901346
-900171
-899794
-894149
-895125
-898006
-898492
-898630
-904450
-903002
-899411
-898240
-897801
-891920
-892870
-896130
-896256
-896349
-902196
-900699
-897187
-895999
-895535
-889826
-890800
-893524
-894214
-894385
-900235
-899060
-895261
-894302
-893915
-888276
-889171
-892096
-892763
-892984
-898915
-897770
-894303
-893164
-892846
-887396
-888433
-891519
-892280
-892505
-898588
-897485
-894112
-892990
-892886
-887383
-888550
-891559
-892459
-892832
-898746
-897595
-894273
-893247
-892985
-887377
-888333
-891423
-892038
-892381
-898230
-897319
-893872
-892780
-892744
-887403
-888584
-891799
-892526
-893026
-899101
-898159
-894795
-893811
-893720
-888361
-889239
-892443
-893487
-893847
-899948
-899182
-895752
-894847
-894721
-889382
-890584
-893736
-894532
-895018
-901090
-900185
-896904
-896067
-895796
-890519
-891541
-894729
-895466
-895934
-901886
-901034
-897671
-896579
-896290
-890990
-891946
-895341
-896333
-896816
-903315
-901996
-898394
-897568
-897402
-892069
-893006
-896218
-896982
-897375
-903281
-902420
-898984
-897898
-897738
-892420
-893312
-896463
-897283
-897678
-903489
-902489
-899194
-898142
-897781
-893076
-893496
-896563
-897224
-897592
-903331
-902499
-899061
-898004
-897726
-892540
-893343
-896364
-897082
-897586
-903164
-902390
-899395
-898056
-897679
-892216
-893056
-896182
-897048
-897357
-903004
-902259
-898812
-897914
-897567
-892382
-893115
-896147
-896914
-897325
-903058
-902401
-898999
-898017
-897883
-892646
-893456
-896655
-897550
-898382
-903877
-904077
-900070
-898871
-898672
-893496
-894326
-897584
-898576
-898994
-904670
-904125
-900750
-899881
-899705
-894508
-895258
-898622
-899559
-899959
-905702
-905169
-901744
-901246
-900804
-895512
-896284
-899570
-900383
-900715
-906530
-906049
-902599
-901754
-901400
-896120
-896851
-900125
-900823
-901252
-906931
-906286
-902781
-901758
-901719
-896605
-897339
-900584
-901348
-901599
-907381
-906931
-903336
-902408
-902354
-897157
-897875
-901101
-901915
-902257
-908074
-907471
-903979
-902924
-902793
-897679
-898309
-901570
-902377
-902711
-908454
-907870
-904358
-903453
-903142
-897989
-898678
-901778
-902669
-902977
-908514
-908095
-904434
-903403
-903148
-897987
-898662
-901771
-902568
-902787
-908288
-907783
-904212
-903186
-903049
-897765
-898431
-901774
-902757
-903265
-908971
-908385
-904858
-903896
-903723
-898591
-899324
-902567
-903468
-903786
-909315
-908853
-905308
-904301
-904181
-899086
-899811
-903067
-903858
-904126
-909723
-909400
-905605
-904785
-904562
-899546
-900302
-903607
-904477
-904792
-910354
-909848
-906365
-905439
-905276
-900388
-900872
-904064
-904846
-905180
-910862
-910267
-906646
-905468
-905236
-900170
-900654
-903787
-904505
-904575
-910013
-909384
-905485
-904180
-903742
-898676
-898937
-901878
-902348
-902379
-907573
-906857
-902971
-901729
-901421
-896203
-896391
-899313
-899887
-900040
-905275
-904640
-900792
-899743
-899330
-894332
-894495
-897643
-898354
-898450
-903859
-903411
-899612
-898574
-898285
-893329
-893704
-896982
-897726
-897988
-903596
-903135
-899426
-898443
-898398
-893515
-893949
-897227
-898034
-898357
-903933
-903589
-899832
-899029
-899024
-894195
-894714
-897950
-898702
-899118
-904526
-904312
-900888
-899978
-899762
-894897
-895361
-898790
-899630
-899934
-905313
-905196
-901676
-900785
-900755
-895951
-896523
-899832
-900686
-901636
-906798
-906458
-902917
-902062
-901964
-897239
-897677
-901108
-901955
-902241
-907822
-907389
-904056
-903210
-903078
-898367
-898931
-902373
-903089
-903426
-909009
-909110
-905259
-904320
-904173
-899360
-899870
-903113
-903991
-904305
-909705
-909547
-906131
-905109
-904805
-900071
-900572
-903923
-904708
-904989
-910338
-910117
-906409
-905432
-905221
-900342
-900394
-903890
-904519
-904690
-910068
-909729
-906064
-905064
-904779
-899874
-900125
-903442
-904117
-904395
-909874
-909781
-905962
-905052
-904886
-899904
-900306
-904148
-904562
-904558
-910023
-909751
-906005
-905023
-904888
-899763
-900204
-903295
-904286
-904520
-909933
-909558
-905781
-904878
-904893
-900071
-900342
-903855
-904517
-904814
-910352
-910051
-906232
-905274
-905183
-900228
-900578
-903915
-904739
-904905
-910279
-909995
-906262
-905346
-905042
-899881
-900314
-903752
-904505
-904589
-910173
-909854
-906345
-905496
-905347
-900256
-900729
-904286
-904935
-905193
-910985
-910664
-906842
-905950
-905804
-900800
-901298
-904843
-905732
-905842
-911578
-911111
-907490
-906504
-906483
-901220
-902363
-905516
-906181
-906433
-912174
-911872
-907976
-907076
-906821
-901891
-902533
-906002
-906940
-907112
-912972
-912659
-909369
-908067
-907516
-902608
-903194
-906648
-907312
-907571
-913428
-912924
-909212
-908719
-908310
-903098
-903665
-907269
-908130
-908291
-914128
-913707
-910022
-909139
-909023
-903948
-904679
-908203
-909168
-909548
-915341
-915022
-911203
-910483
-910509
-905549
-906241
-909786
-910677
-910970
-916892
-916454
-912477
-911608
-911334
-906189
-906654
-910377
-911137
-911401
-917440
-916901
-912985
-912197
-912025
-906769
-907535
-911133
-911911
-912208
-918048
-917635
-913620
-912800
-912735
-907593
-908222
-911866
-912559
-912856
-918755
-918122
-914263
-913373
-913330
-908131
-908784
-912422
-913151
-913562
-919481
-918783
-914814
-913872
-913727
-908572
-908982
-912526
-913331
-913563
-919363
-918791
-914810
-913723
-913473
-908121
-908834
-912174
-912712
-912700
-918312
-917700
-913322
-912230
-911862
-906453
-906347
-909625
-910161
-910091
-915713
-915150
-911030
-909728
-909269
-903712
-903915
-907272
-907693
-907597
-913232
-912483
-908198
-907122
-906692
-901203
-901542
-904971
-905427
-905432
-911188
-910329
-906142
-905868
-905123
-899639
-899996
-903391
-904154
-904133
-910025
-909599
-905507
-904587
-904479
-899203
-899790
-903404
-904224
-904392
-910417
-910052
-906162
-905042
-905060
-899829
-900445
-904063
-904920
-905085
-910869
-910605
-906622
-905699
-905458
-900268
-901013
-904582
-905024
-905414
-911327
-910864
-907018
-906184
-906045
-900845
-901561
-905146
-906125
-906397
-912515
-912173
-908364
-907585
-902559
-903445
-907214
-908285
-908534
-914423
-914005
-909936
-909002
-908929
-903806
-904517
-908310
-909074
-909178
-915171
-914595
-910781
-909800
-909527
-904627
-905382
-908915
-909814
-909962
-916027
-915506
-911578
-910735
-910599
-905203
-906015
-909526
-910422
-910627
-916500
-916005
-912206
-911256
-911182
-905851
-906615
-910009
-910866
-911013
-917020
-916465
-912500
-911627
-911429
-906066
-906733
-910712
-911322
-911090
-917051
-916708
-912528
-911835
-911863
-906582
-907340
-910751
-911737
-911851
-917804
-917346
-913556
-912673
-912481
-907095
-907827
-911286
-912157
-912271
-918047
-917490
-913587
-912591
-912294
-906999
-907635
-911114
-911945
-912064
-917984
-917342
-913502
-912263
-912095
-906748
-907506
-910639
-911583
-911777
-917614
-916872
-913042
-912119
-911766
-906481
-907150
-910480
-911332
-911423
-917237
-916651
-912955
-911900
-911626
-906258
-906940
-910267
-911400
-911492
-917331
-916851
-913009
-912047
-911677
-906417
-907166
-910567
-911446
-911605
-917674
-917277
-913592
-912656
-912584
-907437
-908153
-911366
-912423
-912537
-918581
-918020
-914324
-913272
-913151
-908001
-908690
-912061
-913079
-913352
-919762
-918942
-915158
-914189
-913873
-908786
-909479
-912889
-913826
-914135
-919926
-919465
-915719
-914656
-914449
-909195
-910040
-913449
-914329
-914475
-920498
-919808
-916095
-915116
-916004
-910147
-910679
-913928
-914944
-915174
-920996
-920502
-916721
-915756
-915643
-910546
-911264
-914568
-915635
-916022
-921587
-921266
-917746
-916731
-916734
-911565
-912329
-915608
-916723
-916967
-922944
-922407
-918552
-917570
-917409
-912258
-912938
-915885
-916992
-917437
-923276
-922820
-919046
-918143
-917888
-912803
-913629
-917158
-918114
-918309
-924259
-923829
-920236
-919367
-919199
-914219
-914981
-918377
-919371
-919698
-925637
-925232
-921446
-920577
-920241
-915202
-915985
-919211
-920175
-920385
-926354
-925906
-922150
-921081
-920875
-915708
-916472
-919696
-920660
-920748
-926724
-926342
-922553
-921562
-921297
-916047
-916618
-919786
-920581
-920651
-926462
-925623
-921677
-920514
-919970
-914368
-914899
-917785
-918330
-918057
-923450
-922526
-918512
-917113
-916645
-911218
-911670
-914579
-915428
-915294
-920914
-920136
-916031
-914779
-914325
-909006
-909623
-912494
-913378
-913324
-919026
-918167
-914237
-913278
-912827
-907613
-908209
-911230
-912130
-912229
-918095
-917477
-913913
-912661
-912407
-907217
-907902
-911019
-912011
-912119
-918043
-917496
-913921
-912839
-912489
-907391
-908292
-911465
-912477
-912675
-918667
-918059
-914474
-913468
-913296
-908157
-909024
-912236
-913312
-913569
-919532
-918986
-915345
-914475
-914290
-909070
-909914
-913101
-914195
-914440
-920140
-919771
-916141
-915161
-914997
-909736
-910571
-913722
-914848
-914991
-920878
-920308
-916656
-915690
-915545
-910387
-911334
-914423
-915573
-915710
-921601
-921121
-917497
-916658
-916366
-911107
-912003
-915161
-916293
-916507
-922351
-921877
-918167
-917189
-916983
-911783
-912577
-915791
-916856
-917011
-923017
-922402
-918994
-917985
-917932
-912854
-913710
-916923
-918109
-918356
-924317
-923868
-920290
-919483
-919324
-914133
-914991
-918092
-919407
-919563
-925392
-924861
-921046
-919934
-919524
-914211
-914978
-917815
-918910
-919074
-924924
-924237
-920800
-919737
-919499
-914358
-915037
-918184
-919197
-919205
-925027
-924346
-920627
-919570
-919279
-913921
-914725
-917834
-919024
-918998
-924728
-924081
-920551
-919661
-919522
-914350
-915141
-918082
-919280
-919523
-925169
-924723
-921247
-920380
-920178
-915177
-915958
-918931
-920136
-920176
-925988
-925437
-921880
-920881
-920714
-915438
-916312
-919245
-920338
-920548
-926385
-925714
-922222
-921126
-920994
-915954
-916765
-919844
-920869
-921121
-927001
-926462
-923073
-922188
-922015
-917018
-917769
-920803
-922058
-922281
-928191
-927579
-924063
-923056
-922709
-927831
-924375
-923533
-923331
-918178
-919061
-922020
-923094
-923375
-929109
-928544
-925130
-924095
-923898
-918739
-919677
-922611
-923672
-923945
-929811
-929329
-925845
-924818
-924592
-919453
-920876
-923577
-924537
-924767
-930529
-929969
-926544
-925647
-925373
-920360
-921179
-924171
-925303
-926250
-931715
-930905
-927114
-926027
-925616
-920564
-921542
-924475
-925604
-925836
-931727
-930995
-927381
-926442
-926298
-921266
-922060
-925132
-926126
-926487
-932198
-931587
-928075
-927157
-927543
-922018
-922683
-925599
-926671
-927005
-932706
-932086
-928706
-927730
-927518
-922532
-923354
-926276
-927344
-927685
-933296
-932877
-929364
-928897
-928174
-923077
-923903
-926693
-927736
-928051
-933706
-933132
-929691
-928703
-928294
-923127
-923887
-926943
-928433
-928818
-934247
-933525
-929931
-929019
-928688
-923719
-924555
-927407
-928504
-928804
-934526
-933799
-930373
-929218
-928679
-923810
-924352
-927013
-927837
-927929
-933219
-932424
-928626
-927423
-926798
-921458
-922000
-924588
-925278
-925412
-930691
-929779
-925944
-924644
-923956
-918589
-919108
-921746
-922595
-922741
-928175
-927327
-923644
-922375
-921716
-916571
-917213
-919980
-920816
-921005
-926634
-926021
-922495
-921378
-920882
-915852
-916489
-919256
-920349
-920732
-926362
-925804
-922330
-921214
-920849
-915762
-916541
-919374
-920366
-920777
-926559
-926059
-922454
-921520
-921001
-915963
-916720
-919630
-920860
-921347
-926926
-926513
-923061
-922026
-921566
-916666
-917395
-920277
-921460
-922006
-927625
-927352
-923971
-923098
-922729
-917830
-918727
-921609
-922819
-923460
-929123
-928777
-925479
-924516
-924140
-919146
-919949
-922993
-924080
-924541
-930154
-929722
-926313
-925284
-924753
-919802
-920723
-923505
-924685
-925072
-930641
-930136
-926715
-925621
-925153
-920245
-920906
-923887
-925105
-925560
-931079
-930699
-927261
-926160
-925702
-920897
-921534
-924484
-925643
-926238
-931681
-931350
-928023
-926968
-926393
-921456
-921967
-924743
-925884
-926186
-931612
-931141
-927693
-926582
-925790
-920643
-921179
-923828
-924849
-925134
-930465
-929865
-926452
-925501
-925037
-920166
-920648
-923200
-924317
-924825
-930293
-929898
-926361
-925274
-924514
-919525
-920173
-922885
-924113
-924494
-929846
-929503
-926021
-924902
-924263
-919522
-920306
-923167
-924371
-925131
-930594
-930356
-926801
-925835
-925365
-920499
-921128
-923819
-925070
-925518
-930938
-930600
-927075
-925940
-925411
-920652
-921180
-924005
-925136
-925773
-931188
-930670
-927150
-926144
-925519
-920565
-921080
-924045
-925138
-925769
-931197
-930777
-927339
-926234
-925604
-920758
-921338
-924180
-925558
-926312
-931709
-931550
-928055
-926983
-926107
-921068
-921604
-924467
-925680
-926290
-931900
-931557
-928015
-926950
-926326
-921440
-922028
-925054
-926246
-926808
-932285
-931910
-928444
-927458
-926747
-921847
-922403
-924927
-926474
-927280
-932756
-932344
-928947
-927804
-927138
-922256
-922935
-925905
-927048
-927782
-933169
-932847
-929388
-928217
-927493
-922532
-923189
-925978
-927121
-927731
-933275
-932944
-929236
-928149
-927487
-922579
-923213
-926088
-927360
-928001
-933563
-933245
-929726
-928614
-927901
-923234
-923718
-926705
-927948
-928649
-934138
-933780
-930139
-929216
-928487
-923430
-924032
-926948
-928192
-928851
-934391
-933955
-930287
-929125
-928530
-923600
-924128
-926958
-928190
-928906
-934403
-934094
-930479
-929535
-928971
-923979
-924508
-927452
-928788
-929433
-934931
-934693
-931064
-929927
-929452
-924421
-924895
-927775
-929022
-929580
-935136
-934727
-930913
-929744
-929250
-924180
-924526
-927454
-928643
-929011
-934534
-934140
-930184
-928848
-927982
-922712
-923004
-925642
-926689
-927105
-932372
-931685
-927628
-926198
-925241
-919922
-920108
-922955
-924213
-924505
-929650
-929192
-925173
-923820
-923085
-917796
-918139
-920895
-921896
-922240
-927580
-927033
-923269
-921912
-921113
-915971
-916260
-918923
-920242
-920622
-926161
-925655
-921948
-920513
-919903
-914837
-915315
-918136
-919337
-919862
-925396
-925165
-921397
-920170
-919848
-914653
-915105
-918101
-919503
-920100
-925824
-925651
-921963
-920864
-920364
-915435
-915966
-919022
-920235
-921051
-926689
-926735
-922993
-921961
-922063
-916776
-917170
-920190
-921670
-922184
-928736
-928101
-924318
-923289
-922877
-917771
-918172
-921246
-922812
-923248
-928794
-928840
-925227
-924136
-923768
-918689
-919135
-922178
-923734
-924177
-929861
-929890
-926325
-925013
-924774
-919846
-920177
-923252
-924702
-925278
-931026
-931043
-927309
-926162
-925738
-920651
-921024
-923944
-925534
-925892
-931590
-931447
-927808
-926644
-926085
-921010
-921436
-924374
-925896
-926369
-931926
-931897
-928305
-927155
-926869
-921810
-922030
-924985
-926359
-926832
-932232
-931979
-928192
-926829
-926505
-921433
-922267
-924544
-925722
-926166
-931858
-931776
-928038
-926510
-926056
-920927
-921159
-924057
-925438
-925916
-931548
-931349
-927629
-926291
-925802
-920619
-921047
-923866
-925250
-925728
-931231
-931243
-927399
-926097
-925632
-920391
-920754
-923535
-924984
-925441
-931220
-931152
-927449
-926211
-925686
-920481
-920762
-923774
-925372
-925938
-931651
-931664
-928035
-926531
-925956
-920779
-921009
-924008
-925458
-925985
-931715
-931582
-927878
-926539
-926272
-921052
-921241
-924210
-925743
-926310
-931968
-932081
-928310
-926882
-926506
-921424
-921610
-924666
-926131
-926721
-932444
-932572
-928818
-927503
-927083
-921728
-921865
-924893
-926460
-926901
-932599
-932646
-928857
-927435
-927069
-921926
-922064
-924968
-926624
-927011
-932834
-933012
-929148
-927673
-927246
-922028
-921940
-924927
-926716
-927053
-932706
-932962
-928896
-927489
-926940
-921622
-922122
-924764
-926241
-926677
-932525
-933004
-929064
-927650
-927078
-921915
-921904
-925004
-926639
-927222
-932892
-933237
-929223
-927865
-927474
-922283
-922405
-925334
-926941
-927519
-933193
-933486
-929487
-928171
-927658
-922351
-922315
-925443
-926990
-927522
-933176
-933752
-929713
-928264
-927921
-922904
-922788
-926088
-927820
-928351
-934158
-934790
-930710
-929448
-929032
-923878
-923859
-926944
-928580
-929066
-934757
-935215
-931254
-929870
-929357
-924072
-923920
-927013
-928666
-929007
-934741
-935224
-931022
-929603
-929212
-923800
-923655
-926801
-928474
-928946
-934702
-935134
-930973
-929567
-928987
-923697
-923334
-926310
-927952
-928270
-933750
-934300
-930030
-928257
-927525
-922049
-921630
-924464
-925933
-926177
-931518
-931772
-927348
-925616
-924824
-919348
-918768
-921680
-923172
-923240
-928729
-929070
-924744
-922947
-922155
-916657
-916128
-919113
-920637
-920728
-926292
-926874
-922503
-920868
-920258
-914909
-914500
-917351
-919150
-919499
-925066
-925685
-921385
-919818
-919352
-914016
-913788
-916799
-918514
-919010
-924651
-925346
-921076
-919661
-919091
-913913
-913704
-916806
-918567
-919016
-924703
-925505
-922027
-919859
-919444
-914155
-913679
-916662
-918471
-918989
-924694
-925351
-921142
-919559
-919232
-914416
-914314
-917626
-919375
-919719
-925604
-926294
-921999
-920813
-920596
-915365
-915131
-918318
-920321
-920865
-926779
-927751
-923720
-922428
-922204
-917054
-916833
-920107
-922223
-922632
-928513
-929177
-925150
-923580
-923142
-917918
-917639
-920801
-922688
-923128
-928858
-929544
-925415
-923958
-923456
-918086
-917783
-920859
-922574
-923084
-928740
-929494
-925211
-923752
-923288
-918023
-917675
-920777
-922749
-923212
-929030
-929608
-925732
-924157
-923670
-918417
-918008
-921217
-923106
-923462
-929209
-929909
-925800
-924178
-923647
-918289
-917815
-920747
-922770
-923526
-928743
-929378
-925069
-923570
-922964
-917604
-917274
-920212
-922041
-922446
-928161
-928836
-924608
-923112
-922562
-917216
-916904
-919831
-921710
-922168
-927873
-928663
-924497
-922873
-922229
-916883
-916569
-919440
-921325
-921769
-927419
-928202
-923955
-922390
-921822
-916503
-915987
-919136
-920994
-921537
-927329
-928055
-923925
-922434
-922029
-916771
-916404
-919474
-921482
-922117
-927920
-928772
-924694
-923234
-922931
-917804
-917428
-920529
-922711
-923189
-929029
-929952
-925877
-924383
-923799
-918598
-918131
-921360
-923307
-923699
-929494
-930248
-925941
-925181
-924152
-918683
-918104
-921103
-923078
-923406
-928968
-929777
-925573
-923903
-923204
-918047
-917535
-920636
-922516
-922957
-928835
-929601
-925419
-924054
-923719
-918381
-918023
-921143
-923385
-923898
-929852
-930862
-927029
-925585
-925342
-920115
-919553
-922348
-924167
-924469
-930296
-931298
-927133
-925662
-925131
-919737
-919120
-922249
-924355
-924860
-930503
-931462
-927322
-925628
-925197
-919951
-919349
-922160
-924128
-924397
-930175
-931646
-927357
-925669
-925355
-920025
-919371
-922504
-924569
-925067
-930871
-931703
-927509
-925939
-926197
-920566
-919865
-922949
-925028
-925507
-931124
-932061
-927876
-926375
-925889
-920583
-920053
-922674
-924906
-925457
-930986
-932025
-927743
-926146
-925620
-920285
-919935
-922951
-925158
-925621
-931234
-932301
-928146
-926469
-926039
-920940
-920379
-923307
-925455
-925915
-931499
-932603
-928283
-926723
-926311
-920850
-920327
-923880
-925511
-925880
-931854
-932979
-928111
-926229
-925522
-920229
-919426
-922148
-923952
-924246
-929691
-930515
-926035
-924148
-923443
-917920
-916995
-919568
-921299
-921513
-926895
-927594
-923122
-921268
-920482
-914749
-913825
-916547
-918248
-918488
-923847
-924908
-920397
-918532
-917896
-912463
-911685
-914584
-916665
-917062
-922383
-923719
-919460
-917915
-917424
-912200
-911517
-914565
-916761
-917325
-922796
-924156
-919983
-918493
-918092
-912958
-912172
-915108
-917352
-918039
-923265
-924810
-920603
-918859
-918401
-913130
-912411
-915417
-917599
-918191
-923508
-925237
-920975
-919550
-918993
-913793
-913072
-916069
-918243
-918929
-924245
-925945
-921744
-920252
-919791
-914737
-913874
-916788
-919047
-919723
-924863
-926735
-922586
-921048
-920611
-915566
-914784
-917796
-919857
-920484
-925607
-927469
-923505
-921762
-921326
-916295
-915401
-918225
-920582
-921194
-926304
-928952
-924267
-922475
-921831
-916838
-915840
-918691
-920950
-921603
-926576
-928419
-924225
-922572
-921998
-916979
-915891
-918978
-921105
-921773
-926651
-928351
-924351
-922752
-922162
-917106
-916058
-918946
-921132
-921841
-926442
-928534
-924340
-922647
-922053
-917215
-915930
-918818
-921027
-921428
-926092
-928183
-923943
-922222
-921486
-916714
-915346
-918077
-920212
-920817
-925118
-927188
-923138
-921362
-920767
-915749
-915050
-917442
-919446
-920046
-924497
-926632
-922512
-920906
-920319
-915551
-914167
-917036
-919205
-919935
-924384
-926750
-922543
-920823
-920351
-915626
-914336
-917301
-919569
-920174
-924658
-927056
-922979
-921331
-920848
-916378
-915020
-917911
-920271
-921073
-925299
-927766
-923869
-922230
-921709
-917202
-915625
-918528
-920723
-921394
-925615
-928167
-924131
-922290
-921806
-917480
-915818
-918625
-920819
-921497
-925823
-928428
-924438
-922681
-921837
-917502
-915865
-919254
-921244
-921856
-926087
-928619
-924733
-923095
-922615
-918303
-916600
-919518
-921831
-922222
-926019
-928774
-925079
-922955
-922604
-918413
-916595
-919364
-921699
-922383
-927109
-929368
-925494
-923614
-923219
-918722
-916861
-919755
-922086
-922751
-926746
-929624
-925797
-923987
-923464
-919175
-917256
-920154
-922547
-923091
-926906
-929855
-926026
-924093
-923772
-919610
-917424
-920217
-922652
-923191
-927063
-930126
-926266
-924263
-923827
-919717
-917600
-920497
-922985
-923589
-927502
-930498
-926832
-924911
-924493
-920478
-918404
-921201
-923642
-924113
-927722
-930910
-927501
-925445
-924901
-920950
-918742
-921337
-923818
-924084
-927773
-931072
-927025
-925152
-924603
-920488
-918322
-921039
-923354
-923974
-927603
-930862
-926791
-925083
-924607
-920753
-918608
-921401
-923900
-924575
-928092
-932033
-928078
-925879
-925508
-921775
-919335
-922183
-924366
-925020
-928311
-931756
-928032
-925751
-925010
-920976
-918015
-920521
-922629
-922890
-925854
-929267
-925483
-923409
-922262
-918279
-915509
-917866
-920197
-920343
-923268
-926648
-922929
-920522
-920049
-916176
-913591
-915469
-917479
-917861
-920895
-924423
-921533
-918517
-917609
-913893
-911451
-913722
-916127
-916610
-919766
-923463
-919992
-917786
-916906
-913409
-910774
-914007
-915926
-916296
-919354
-923236
-919818
-917576
-916932
-913533
-910871
-913481
-915927
-916461
-919228
-923615
-920034
-917611
-917071
-913784
-911018
-913759
-916262
-916863
-919578
-923573
-920501
-918151
-917698
-914093
-911441
-914280
-916793
-917357
-920084
-924098
-920887
-918759
-918418
-915073
-912120
-914912
-917657
-918359
-920911
-925101
-922024
-919986
-919442
-916466
-913522
-916284
-919201
-919708
-922304
-926985
-923614
-921087
-920448
-917194
-914542
-917019
-919732
-920191
-922672
-926894
-924017
-921609
-921037
-918092
-915087
-917504
-919984
-920575
-923299
-927779
-924392
-921854
-921277
-918291
-914971
-917599
-920110
-920668
-922848
-927112
-924255
-921930
-921555
-918670
-915673
-917966
-920416
-920919
-923242
-927517
-924698
-922172
-921615
-918856
-915614
-917810
-920427
-920861
-922842
-926989
-924134
-921568
-920906
-918151
-914708
-917030
-919427
-919811
-921336
-926237
-923461
-920935
-920205
-917390
-914104
-916415
-918990
-919425
-921366
-925722
-923241
-920738
-920203
-917749
-914404
-916650
-919269
-919782
-921592
-926232
-923606
-920920
-920090
-917742
-914120
-916140
-918779
-919388
-921058
-925763
-923163
-920684
-920160
-917964
-914278
-916403
-919041
-919430
-920943
-925617
-923118
-920566
-919934
-918408
-914464
-916387
-918853
-919400
-920838
-925633
-923281
-920851
-920178
-918361
-914532
-916645
-919374
-919902
-921303
-926188
-923898
-921359
-920752
-918994
-915286
-917212
-919728
-920305
-921623
-926681
-924398
-921772
-921263
-919317
-915507
-917414
-920059
-920601
-921728
-926767
-924578
-922567
-921261
-919507
-915358
-917462
-920146
-920688
-921642
-926858
-924694
-921956
-921385
-919880
-915739
-917692
-920428
-921064
-921878
-927182
-925129
-922351
-921889
-920405
-916065
-917988
-920638
-921158
-921917
-927444
-925390
-922662
-922008
-920617
-916208
-918024
-920621
-921155
-921808
-927221
-925254
-922298
-921605
-920373
-915738
-917636
-920290
-920659
-921324
-926996
-925105
-922553
-922038
-920918
-916268
-918088
-920626
-921190
-921676
-927559
-925831
-922905
-922075
-921193
-916500
-918310
-921102
-921588
-922018
-927859
-926205
-923176
-922457
-921580
-916718
-918618
-921504
-922179
-922604
-928481
-926763
-923853
-923239
-922406
-917738
-919413
-922144
-922654
-923050
-928918
-927232
-924177
-923368
-922630
-917438
-919056
-921961
-922283
-922529
-928380
-926553
-923314
-922322
-921504
-916262
-917730
-920216
-920631
-920767
-926497
-924498
-921272
-920170
-919380
-914069
-915515
-918044
-918369
-918480
-924328
-922357
-919122
-918081
-917572
-912114
-913596
-916266
-916759
-916849
-922712
-920920
-917582
-916631
-916304
-910644
-912145
-914843
-915290
-915543
-921498
-919774
-916582
-915605
-915258
-909546
-911087
-913899
-914474
-914831
-920773
-919341
-916120
-915144
-914887
-909300
-910796
-913626
-914422
-914784
-920993
-919484
-916280
-915431
-915331
-909757
-911326
-914289
-915044
-915515
-921724
-920399
-917145
-916437
-916218
-910749
-912309
-915235
-915909
-916345
-922603
-921216
-917959
-917027
-916806
-911335
-912802
-915847
-916488
-916969
-923197
-922086
-919021
-918418
-918374
-912831
-914157
-917351
-918146
-918579
-924912
-923551
-920251
-919421
-919271
-913861
-915195
-918257
-919076
-919442
-925519
-924263
-920985
-920099
-919952
-914498
-915832
-918972
-919800
-920261
-926402
-925253
-921829
-921097
-920909
-915258
-916594
-919681
-920298
-920733
-926708
-925495
-922148
-920988
-920887
-915305
-916251
-919194
-919981
-920328
-926267
-925034
-921588
-920434
-920030
-914537
-915498
-918517
-919192
-919567
-925623
-924318
-920805
-919839
-919517
-913981
-914947
-917948
-918627
-919023
-924988
-923835
-920221
-919390
-919270
-913801
-914843
-917817
-918624
-918918
-924729
-923822
-920356
-919323
-919054
-913684
-914526
-917729
-918497
-918737
-924529
-923696
-920209
-919163
-918873
-913534
-914430
-917545
-918293
-918778
-924673
-923750
-920362
-919431
-919214
-914147
-914894
-918070
-918984
-919417
-925087
-924512
-921010
-920042
-919832
-914501
-915446
-918613
-919460
-919797
-925549
-924766
-921162
-920103
-919891
-914760
-915484
-918567
-919393
-919820
-925551
-924801
-921396
-920434
-920245
-914983
-915711
-918940
-919863
-920185
-925922
-925320
-921841
-920844
-920805
-915660
-916377
-919619
-920549
-920915
-926617
-926128
-922550
-921536
-921329
-916367
-917182
-920293
-921173
-921632
-927230
-926521
-923058
-921983
-921734
-916708
-917240
-920492
-921303
-921467
-927183
-926669
-923107
-922046
-921886
-916783
-917348
-920577
-921410
-921691
-927324
-926762
-923312
-922408
-922269
-917197
-917892
-921172
-922083
-922581
-928041
-927608
-924092
-923077
-922861
-918109
-918696
-921969
-922821
-923042
-928527
-928107
-924599
-923543
-923448
-918534
-918923
-922195
-922855
-923179
-928651
-928103
-924590
-923515
-923334
-918486
-918954
-922197
-923041
-923405
-928731
-928264
-924736
-923737
-923663
-918744
-919268
-922513
-923480
-923775
-929176
-929030
-925218
-924392
-924224
-919358
-919775
-923115
-923764
-924105
-929352
-928839
-925034
-923986
-923614
-918576
-918662
-921744
-922375
-922415
-927559
-926846
-922898
-921513
-921039
-915964
-916054
-919210
-919627
-919618
-924738
-924214
-920185
-918872
-918403
-913249
-913431
-916453
-917092
-917162
-922436
-921823
-917889
-916802
-916360
-911190
-911703
-914904
-915484
-915727
-921235
-920770
-916862
-915821
-915703
-910672
-911115
-914401
-915269
-915452
-921160
-920647
-916902
-916018
-915773
-910708
-911264
-914812
-915643
-915928
-921670
-921175
-917373
-916488
-916351
-911212
-911975
-915410
-916226
-916571
-922206
-921820
-918076
-917207
-917087
-911909
-912595
-916161
-917103
-917366
-923225
-922768
-919050
-918142
-918051
-912938
-913667
-917207
-918204
-918394
-924281
-923822
-919915
-919044
-918901
-913865
-914638
-918263
-919029
-919211
-925233
-924662
-920854
-919942
-919785
-914887
-915763
-919152
-920035
-920275
-926119
-925750
-921803
-920999
-920927
-915655
-916379
-919917
-920831
-920911
-926734
-926396
-922425
-921690
-921394
-916182
-916945
-920395
-921238
-921469
-927223
-926691
-922720
-921790
-921531
-916278
-916877
-920313
-921116
-921211
-926940
-926177
-922176
-921071
-920713
-915370
-916017
-919317
-919860
-919928
-925601
-924780
-920817
-919688
-919551
-914146
-914714
-918015
-918772
-918981
-924791
-924237
-920431
-919580
-919554
-914572
-915306
-918918
-919979
-920360
-926265
-925514
-921361
-920014
-919842
-914646
-915458
-918775
-919665
-919657
-925475
-924977
-921197
-920158
-920067
-914895
-915488
-918701
-919455
-919602
-925313
-924621
-920736
-919637
-919315
-913980
-914519
-917629
-918632
-918612
-924536
-924012
-920167
-919308
-919083
-913856
-914537
-917950
-918871
-919056
-924959
-924458
-920707
-919877
-919528
-914425
-915216
-918520
-919507
-919780
-925489
-925017
-921395
-920389
-920236
-915035
-915846
-919041
-920130
-920326
-926160
-925685
-921951
-921043
-920924
-915860
-916515
-919894
-920941
-921309
-927188
-926634
-922896
-922163
-921881
-916786
-917542
-920885
-921858
-922094
-927953
-927349
-922609
-922289
-917169
-921029
-922038
-927136
-923300
-922282
-922000
-916710
-917518
-920500
-921265
-921400
-927080
-926383
-922607
-921880
-922010
-916960
-917697
-920718
-921728
-921928
-927760
-927259
-923657
-922677
-922284
-917082
-917959
-921149
-922087
-922273
-928156
-927660
-924042
-923102
-922948
-917858
-918901
-921981
-923159
-923375
-929182
-928560
-924983
-924077
-923835
-918684
-919502
-922662
-923613
-923738
-929616
-928908
-925228
-924286
-924068
-918799
-919423
-922384
-923366
-923396
-929153
-928425
-924732
-923562
-923064
-917896
-918540
-921473
-922114
-922080
-927731
-926767
-922974
-921713
-921204
-915788
-916530
-919144
-919924
-919796
-925347
-924405
-920662
-919381
-918851
-913458
-913970
-916730
-917445
-917220
-922726
-921784
-917841
-916610
-916211
-910740
-911379
-914031
-914802
-914868
-920336
-919313
-915753
-914524
-913980
-908748
-909354
-912231
-912981
-913035
-918517
-917678
-914077
-912879
-912574
-907355
-908225
-911381
-912513
-912618
-918403
-917633
-914142
-913090
-912744
-907711
-908602
-911529
-912520
-912732
-918445
-917856
-914467
-913453
-913198
-908118
-908930
-911916
-912965
-913172
-919075
-918362
-914912
-913987
-913803
-908672
-909667
-912661
-913662
-913864
-919676
-918981
-915656
-914572
-914423
-909341
-910293
-913143
-914206
-914570
-920476
-919799
-916381
-915501
-915178
-910309
-911108
-913950
-915050
-915300
-921057
-920445
-917196
-916121
-915924
-910939
-911906
-914833
-915849
-916029
-921922
-921114
-917691
-916927
-916687
-911601
-912491
-915363
-916496
-916640
-922502
-921729
-918364
-917314
-917070
-911889
-912731
-915595
-916712
-916874
-922578
-921761
-918327
-917298
-916899
-911620
-912442
-915224
-916302
-916316
-922071
-921244
-917737
-916728
-916178
-910918
-911880
-914562
-915560
-915940
-921655
-920753
-917328
-916094
-915881
-910701
-911717
-914357
-915222
-915439
-920852
-920104
-916337
-915454
-915120
-909884
-910668
-913389
-914505
-914799
-920260
-919402
-915979
-914878
-914487
-909178
-909803
-912493
-913431
-913709
-919256
-918443
-914937
-913878
-913501
-908369
-909131
-912000
-913097
-913415
-919095
-918467
-915175
-914368
-914035
-909176
-909917
-912724
-913980
-914366
-919973
-919336
-916030
-915154
-914737
-909682
-910487
-913250
-914347
-914590
-920253
-919432
-916073
-915124
-914618
-909458
-910325
-913093
-914121
-914415
-919973
-919313
-915820
-914695
-914296
-909254
-910002
-912806
-913941
-914285
-919968
-919328
-915932
-914952
-914445
-909419
-910325
-913172
-914230
-914673
-920347
-919798
-916402
-915420
-915083
-910029
-910955
-913710
-914954
-915549
-921077
-920515
-917195
-916214
-915746
-910622
-911639
-914393
-915529
-915967
-921675
-921103
-917658
-916674
-916166
-911330
-912254
-915001
-916085
-916454
-922161
-921465
-918021
-917063
-916472
-911489
-912332
-914972
-916277
-916601
-922269
-921650
-918216
-917061
-916502
-911523
-912286
-914998
-916256
-916752
-922409
-921854
-918134
-917268
-916731
-911734
-912764
-915437
-916616
-917172
-922881
-922254
-918830
-917852
-917287
-912367
-913249
-916034
-917192
-917775
-923190
-922726
-919329
-918096
-917546
-912470
-913053
-915841
-916832
-917201
-922643
-921933
-918241
-916878
-915893
-910615
-911065
-913492
-914426
-914746
-919844
-918839
-915130
-913575
-912635
-907350
-907725
-910127
-911099
-911169
-916226
-915380
-911686
-910227
-909263
-903861
-904227
-906744
-907750
-907914
-913202
-912314
-908703
-907373
-906620
-901416
-902174
-904914
-906003
-906435
-911618
-911035
-908036
-906416
-905683
-900533
-901163
-903888
-905128
-905439
-911093
-910786
-907153
-906201
-905570
-900701
-901573
-904373
-905920
-906544
-912210
-911789
-908432
-907357
-906965
-901805
-902496
-905182
-906542
-907040
-912675
-912260
-908795
-907679
-907098
-902052
-902870
-905719
-907061
-907595
-913186
-912901
-909402
-908227
-907640
-902738
-903397
-906373
-907669
-908310
-914073
-913625
-910124
-909109
-908588
-903522
-904177
-907005
-908296
-908735
-914430
-913979
-910606
-909493
-908985
-903899
-904462
-907255
-908721
-909142
-914860
-914554
-910995
-909966
-909544
-904278
-904802
-907631
-908994
-909536
-915312
-914571
-911112
-909992
-909510
-904420
-904913
-907630
-909057
-909632
-915286
-914812
-911045
-909824
-909211
-904069
-904511
-907163
-908505
-909016
-914726
-914233
-910561
-909159
-908619
-903239
-903558
-906241
-907423
-913308
-912772
-908989
-907582
-906937
-901625
-901876
-904670
-906195
-906574
-912329
-911941
-908134
-906847
-906412
-901225
-901433
-904255
-905692
-906118
-911826
-911627
-907739
-906536
-906088
-900853
-901108
-903952
-905341
-905769
-911466
-911214
-907572
-906355
-905879
-900642
-901041
-903656
-905248
-905808
-911527
-911474
-907674
-906331
-905996
-901023
-901287
-904359
-905967
-906439
-912381
-912516
-908596
-907495
-907102
-901866
-902132
-904950
-906390
-906832
-912755
-912696
-908929
-907665
-907254
-901889
-902290
-905183
-906671
-907171
-912920
-912997
-909227
-907744
-907383
-902319
-902425
-905467
-906993
-907330
-913268
-913852
-909740
-908237
-907715
-902535
-902657
-905651
-907209
-907679
-913486
-913617
-909727
-908886
-908012
-902777
-902832
-905733
-907414
-907734
-913564
-913809
-909828
-908575
-908046
-903010
-903033
-905953
-907498
-908034
-913824
-914144
-910216
-908824
-908276
-903167
-903035
-906110
-907739
-908284
-913995
-914329
-910381
-908939
-908449
-903331
-903283
-906258
-907715
-908113
-913665
-914022
-909762
-908268
-907733
-902327
-902207
-905172
-906876
-907413
-913195
-913614
-909563
-908123
-907726
-902398
-902386
-905621
-907147
-907629
-913292
-913743
-909645
-908327
-907956
-902826
-902757
-906083
-907810
-908379
-914195
-914673
-910695
-909460
-909093
-903882
-903757
-906805
-908495
-908971
-914586
-915023
-910783
-909171
-908567
-903075
-902697
-905646
-907043
-907089
-912561
-912835
-908249
-906424
-905647
-900020
-899325
-901886
-903299
-903350
-908563
-909027
-904557
-902675
-902004
-896474
-895833
-898658
-900141
-900308
-905863
-906291
-902034
-900361
-899676
-894294
-893721
-896881
-898627
-898963
-904642
-905160
-900941
-899514
-899002
-893571
-893182
-896371
-898070
-898466
-904026
-904664
-900454
-898903
-898415
-893139
-892757
-895662
-897519
-897919
-903556
-904141
-899953
-898452
-898020
-892746
-892294
-895529
-897323
-898370
-903616
-904322
-899945
-898648
-898312
-893075
-892869
-896100
-898012
-898721
-904564
-905547
-901265
-899703
-899038
-893820
-893461
-896543
-898515
-899095
-904782
-905615
-901421
-899964
-899560
-894384
-893995
-897024
-898888
-899393
-905186
-905979
-901857
-900420
-899881
-894552
-894200
-897107
-898912
-899348
-904964
-905705
-901407
-899792
-899423
-894250
-893921
-897085
-898947
-899408
-905101
-905868
-901690
-900132
-899735
-894326
-893891
-897045
-898992
-899491
-905231
-905946
-901801
-900299
-899917
-894710
-894355
-897356
-899400
-899887
-905290
-906293
-902149
-900599
-900106
-894733
-894300
-897208
-899031
-899550
-905154
-905912
-901618
-899996
-899412
-894020
-893420
-896421
-898340
-898879
-904527
-905388
-901135
-899574
-899222
-893823
-893520
-896476
-898328
-898627
-904168
-904914
-900684
-898857
-898521
-893162
-892622
-895675
-897534
-897980
-903581
-904421
-900281
-898685
-898204
-892835
-892372
-895475
-897322
-897880
-903569
-904423
-900269
-898745
-898196
-893021
-892512
-895139
-897413
-897860
-903588
-904458
-900188
-898580
-897996
-892741
-892305
-895323
-897399
-897948
-903724
-904366
-900536
-899154
-899410
-893496
-892827
-895812
-897862
-898438
-904022
-904941
-900859
-899231
-898650
-893216
-892973
-895849
-897968
-898418
-904009
-905033
-900878
-899250
-898857
-893215
-893024
-896100
-898108
-898603
-904331
-905254
-901015
-899381
-898898
-893694
-893126
-896132
-898324
-898631
-904248
-905382
-901077
-899497
-898986
-893690
-893133
-895970
-897951
-898317
-903852
-904664
-900462
-898764
-898295
-892895
-892329
-895432
-897516
-898065
-903537
-904529
-900279
-898670
-898681
-893153
-892483
-895449
-897458
-897979
-903605
-904671
-900339
-898791
-898348
-892989
-892439
-895281
-897591
-898074
-903623
-904725
-900631
-898980
-898606
-893185
-892648
-895550
-897678
-898086
-903590
-904846
-900594
-899006
-898396
-893234
-892636
-895774
-897838
-898279
-903873
-905035
-900930
-899228
-898752
-893547
-892778
-895815
-898302
-898438
-903861
-904992
-900620
-898956
-898394
-892843
-891963
-894832
-896753
-897005
-902185
-903241
-898695
-896836
-896055
-890575
-889585
-892161
-894110
-894323
-899590
-900704
-896369
-894650
-893857
-888467
-887439
-890195
-892130
-892344
-897337
-898344
-894096
-892143
-891356
-885853
-884714
-887189
-888949
-889102
-893993
-895230
-890872
-889388
-888901
-883707
-882551
-885416
-887448
-887995
-892836
-894513
-890301
-888582
-888086
-882876
-881967
-884956
-887102
-887600
-892816
-894408
-890947
-888701
-888096
-883089
-882072
-885094
-887233
-887753
-892959
-894784
-890590
-889064
-888563
-883548
-882690
-885789
-888174
-888903
-894083
-895798
-891993
-890419
-890025
-884930
-883890
-886804
-889102
-889881
-894889
-896727
-892610
-891154
-890583
-885623
-884647
-887571
-889790
-890461
-895271
-897251
-893209
-891693
-891130
-886275
-885182
-888145
-890432
-890965
-895768
-897877
-893771
-892105
-891474
-886749
-885519
-888427
-890659
-891228
-896501
-898172
-894015
-892212
-891558
-886735
-885524
-888218
-890399
-890907
-895286
-897234
-892972
-891199
-890484
-885567
-884014
-886935
-889130
-889789
-894283
-896316
-892123
-890461
-889853
-885101
-883348
-886289
-888357
-889110
-893486
-895669
-891551
-889846
-889242
-884463
-882851
-885757
-887929
-888643
-892988
-895255
-891210
-889701
-889024
-884552
-883084
-886140
-888252
-888946
-893327
-895596
-891781
-889956
-889261
-884685
-883031
-885795
-888134
-888558
-892875
-895379
-891270
-889441
-888790
-884198
-882455
-885248
-887232
-887737
-891920
-894325
-890316
-888449
-887898
-883331
-881591
-884395
-886893
-887423
-891630
-894322
-890502
-888590
-888168
-883707
-881968
-884910
-887362
-887949
-892257
-895147
-891367
-889701
-889149
-885008
-883077
-885959
-888474
-888884
-893091
-895800
-892089
-890105
-889616
-885232
-883196
-886041
-888249
-888763
-892744
-895364
-891529
-889623
-889097
-884789
-882756
-885384
-887770
-888256
-892336
-895506
-891742
-889898
-889403
-885290
-883129
-886022
-888445
-888894
-892816
-895908
-892173
-890418
-890034
-885825
-883760
-886728
-889203
-889652
-893590
-896614
-892990
-891059
-890537
-886465
-884342
-887101
-889527
-889962
-893622
-896550
-893052
-890928
-890509
-886348
-884094
-886812
-889306
-889872
-893484
-896545
-892873
-890733
-890198
-886152
-883776
-886465
-888977
-889437
-893075
-896307
-892785
-890767
-890266
-886326
-884042
-886869
-889442
-890117
-893641
-897148
-893615
-891550
-891214
-887608
-885160
-887941
-890333
-890988
-894542
-897988
-894513
-892326
-891724
-888006
-885568
-888077
-890506
-890841
-894024
-897262
-893590
-891225
-890424
-886409
-883607
-885926
-888279
-888364
-891400
-894624
-890827
-888312
-887430
-883948
-880775
-883117
-885098
-885448
-888322
-891516
-887833
-885418
-884664
-880766
-877959
-880351
-882760
-882937
-885777
-889136
-885698
-883245
-882408
-878781
-875863
-878314
-880672
-880878
-883735
-887225
-883762
-881459
-880573
-876942
-874099
-876608
-879114
-879730
-882879
-886624
-883255
-880836
-880267
-876765
-874083
-876634
-879343
-879914
-882645
-886466
-883276
-881117
-880490
-877195
-874370
-876971
-879598
-880109
-882906
-886857
-883822
-881509
-880964
-877826
-874870
-877534
-879971
-880529
-883207
-887105
-884066
-881936
-881387
-878341
-875491
-878282
-880921
-881541
-884182
-888482
-885571
-883394
-882871
-879899
-877053
-879663
-882340
-882797
-885558
-889510
-886579
-884185
-883738
-880688
-877536
-880077
-882561
-883101
-885531
-889798
-886891
-884462
-883888
-880985
-877791
-880214
-882788
-883383
-885721
-889940
-887361
-884944
-884219
-881227
-877872
-880005
-882498
-883058
-885215
-889456
-886700
-884201
-883520
-880636
-877393
-879696
-882128
-882577
-884586
-888867
-886169
-883587
-882907
-880193
-876951
-879088
-881592
-881929
-883807
-888103
-885232
-882845
-882225
-879614
-876149
-878280
-880770
-881315
-882986
-887431
-884929
-882421
-881770
-879295
-875793
-877884
-880516
-881009
-882472
-886997
-884550
-882026
-881372
-878938
-875553
-877556
-880152
-880703
-882216
-886913
-884482
-881904
-881163
-879045
-875435
-877462
-880047
-880613
-881994
-886834
-884533
-882054
-881365
-879245
-875517
-877514
-880154
-880715
-882172
-886956
-884688
-882070
-881456
-879372
-875486
-877503
-880111
-880566
-881882
-886750
-884708
-882116
-881436
-879551
-875638
-877692
-880392
-881184
-882430
-887628
-885843
-883167
-882257
-880256
-876399
-878252
-881136
-881723
-882638
-887805
-885774
-883118
-882385
-880660
-876570
-878443
-881030
-881694
-882662
-887989
-885998
-883308
-882524
-881043
-876679
-878673
-881350
-882002
-882788
-888197
-886346
-883487
-882884
-881410
-877002
-878916
-881645
-882247
-882945
-888281
-886470
-883721
-883019
-881609
-877299
-879155
-881801
-882281
-882808
-888293
-886588
-883644
-882857
-881487
-876853
-878687
-881322
-881810
-882229
-887942
-886047
-883029
-882286
-881179
-876523
-878187
-880861
-881497
-881798
-887672
-885888
-882982
-882397
-881280
-876575
-878343
-881148
-881734
-881980
-887977
-886232
-883259
-882566
-881641
-876834
-878522
-881240
-881818
-882043
-888001
-886212
-883112
-882257
-881249
-876247
-877812
-880381
-881222
-881121
-886707
-884727
-881548
-880431
-879393
-874204
-875518
-878048
-878399
-878545
-884110
-882003
-878599
-877522
-876614
-871185
-872570
-875094
-875495
-875616
-881207
-879324
-875994
-874889
-873961
-868523
-870040
-872602
-873036
-873186
-878949
-877200
-873921
-872976
-872456
-867093
-868562
-871314
-871971
-872253
-878396
-876753
-873586
-872734
-872497
-867058
-868692
-871577
-872207
-872612
-878778
-876883
-873686
-872841
-872712
-867356
-868833
-871712
-872178
-872628
-878730
-877208
-874081
-873279
-873062
-867552
-869139
-872111
-872823
-873263
-879405
-877939
-874775
-874034
-873896
-868134
-869865
-872863
-873561
-873942
-880092
-878685
-875148
-874572
-874440
-868921
-870350
-873370
-874199
-874513
-880785
-879345
-876139
-875261
-875129
-869523
-870865
-873956
-874703
-875454
-881395
-879915
-876651
-875845
-875528
-869922
-871421
-874397
-875133
-875447
-881671
-880272
-876860
-876006
-875642
-869876
-871381
-874388
-875013
-875372
-881461
-880169
-876786
-875861
-875479
-869820
-871215
-874212
-874828
-875073
-881199
-879787
-876275
-875143
-874794
-868919
-869979
-872891
-873521
-873661
-879516
-878238
-874732
-873657
-873402
-867579
-868866
-871890
-872532
-872898
-878858
-877599
-874125
-873136
-872892
-867356
-868516
-872023
-872615
-872925
-878996
-878048
-874805
-873899
-873709
-868098
-869121
-872042
-872822
-873269
-879236
-878231
-874722
-873587
-873285
-867750
-868880
-871916
-873349
-873281
-879055
-878182
-874696
-873611
-873349
-867971
-869005
-872995
-873196
-873373
-879299
-878206
-874872
-873963
-873708
-868335
-869225
-872360
-873277
-873681
-879554
-878738
-875247
-874352
-874104
-868767
-869678
-872929
-873777
-874239
-880025
-879125
-875699
-874764
-874449
-869153
-870055
-873218
-873989
-874423
-880246
-879619
-876087
-875143
-874987
-869720
-870449
-873750
-874568
-874902
-880627
-879834
-876369
-875391
-875133
-870027
-870758
-873953
-874679
-875056
-880764
-880001
-876504
-875496
-875205
-870011
-870904
-873947
-874806
-875149
-880773
-880122
-876604
-875602
-875278
-870111
-870969
-874140
-874928
-875361
-881013
-880447
-876965
-875894
-875752
-870541
-871330
-874599
-875400
-875827
-881517
-880742
-877230
-876253
-876087
-870836
-871565
-874723
-875463
-875786
-881446
-880841
-877218
-876138
-875965
-870922
-871565
-874715
-875483
-875792
-881404
-880825
-877223
-876398
-876146
-871161
-871815
-875174
-875942
-876336
-881796
-881452
-877994
-877119
-876947
-871894
-872658
-875950
-876918
-877295
-882810
-882478
-878699
-877511
-877066
-871992
-872511
-875438
-876117
-876244
-881320
-880691
-876798
-875523
-875166
-869848
-870075
-872924
-873400
-873312
-878561
-877865
-873980
-872698
-872220
-866984
-867231
-870190
-870722
-870736
-875930
-875367
-871358
-870204
-869804
-864643
-864929
-868130
-868816
-868825
-874055
-873523
-869637
-868598
-868232
-863348
-863606
-866900
-867487
-867778
-873123
-872494
-868764
-867790
-867589
-862582
-863267
-866520
-867283
-867493
-873057
-872646
-869007
-868194
-867923
-863058
-863773
-867131
-867924
-868320
-873937
-873544
-869805
-869046
-869028
-864066
-864739
-868099
-869011
-869399
-874967
-874648
-870888
-869988
-869957
-864771
-865370
-868679
-869419
-869791
-875397
-874869
-871048
-870172
-870147
-865251
-865885
-869382
-870204
-870552
-876387
-875923
-872249
-871283
-871135
-866101
-866848
-870365
-871230
-871494
-877302
-876815
-873078
-872089
-872055
-866891
-867767
-871138
-871923
-872147
-877982
-878100
-873984
-872960
-872752
-867628
-868334
-871805
-872678
-872808
-878673
-878149
-874225
-873262
-873205
-867971
-868630
-872105
-872847
-873129
-878882
-878298
-874455
-873381
-873236
-867858
-868469
-872015
-872561
-872769
-878411
-877767
-873762
-872713
-872569
-867454
-868197
-871779
-872467
-872682
-878625
-877997
-874128
-873057
-872982
-867621
-868289
-871786
-872425
-872563
-878341
-877800
-873780
-872921
-872749
-867338
-867927
-871402
-872152
-872362
-878267
-877739
-873740
-872752
-872796
-867450
-868239
-871828
-872542
-872962
-879006
-878402
-874623
-873715
-873655
-868638
-869339
-872744
-873662
-873734
-879586
-879002
-875172
-874143
-874038
-868769
-869411
-872686
-873471
-873725
-879637
-878913
-875010
-873984
-873800
-868440
-869041
-872365
-873285
-873383
-879411
-878978
-875297
-874515
-874314
-868903
-869664
-873044
-874143
-874330
-880318
-879599
-876047
-875086
-874900
-869796
-870543
-873843
-874606
-875020
-880979
-880306
-876616
-875676
-875523
-870320
-871072
-874316
-875385
-875677
-881467
-880924
-877142
-876259
-876018
-870801
-871524
-874918
-875918
-876179
-882114
-881461
-877751
-876702
-876684
-871401
-872264
-875495
-876504
-876752
-882595
-881987
-878322
-877418
-877162
-871882
-872699
-875965
-877058
-877330
-883198
-882479
-878810
-878238
-877657
-872414
-873256
-876435
-877396
-877650
-883544
-882911
-879141
-878132
-877978
-872786
-873487
-876825
-877862
-878019
-883931
-883322
-879645
-878730
-878587
-873466
-874389
-878272
-878968
-879391
-885278
-884866
-881270
-880419
-880056
-874816
-875693
-879029
-880012
-880272
-886136
-885493
-882585
-881077
-880838
-875696
-876562
-879652
-880705
-880749
-886633
-885824
-882333
-881259
-880893
-875699
-876446
-879382
-880232
-880139
-885809
-884888
-881133
-879785
-879275
-873857
-874433
-877238
-877946
-877755
-883218
-882276
-878233
-876893
-876323
-870958
-871494
-874249
-874942
-874906
-880485
-879389
-875429
-874032
-873510
-867879
-868425
-871204
-871895
-871714
-877307
-876276
-872339
-871110
-870610
-865160
-866087
-868857
-869810
-869899
-875704
-874833
-871289
-870133
-869891
-864834
-865677
-868687
-869732
-869936
-875759
-874910
-871405
-870498
-870342
-865129
-865988
-869072
-870149
-870261
-875993
-875329
-871867
-870884
-870480
-865405
-866254
-869081
-870301
-870541
-876615
-875857
-872368
-871398
-871317
-866233
-867256
-870351
-871469
-871747
-877675
-876887
-873540
-872613
-872176
-867191
-868363
-871350
-872391
-872652
-878586
-877885
-874506
-873413
-873234
-868099
-869106
-872115
-873296
-873541
-879312
-878606
-875192
-874303
-873967
-868869
-869767
-872795
-873766
-874104
-879969
-879242
-875876
-875030
-874905
-869888
-870761
-873759
-874812
-874984
-880872
-880044
-876767
-875811
-875426
-870294
-871359
-874109
-875075
-875291
-881002
-880306
-876870
-875893
-875679
-870333
-871070
-874023
-875120
-875330
-880966
-880136
-876695
-875588
-875150
-870000
-870841
-873685
-874685
-874904
-880471
-879679
-876097
-875096
-874731
-869410
-870255
-872970
-873644
-873859
-879457
-878731
-875213
-874204
-873885
-868467
-869490
-872368
-873536
-873767
-879429
-878593
-875111
-874108
-873655
-868432
-869327
-872125
-873132
-873352
-879084
-878307
-874881
-873873
-873518
-868331
-869398
-872291
-873429
-873410
-879392
-878671
-875341
-874393
-874153
-869070
-870013
-872906
-874021
-874381
-880273
-879414
-875859
-875111
-874719
-869542
-870577
-873406
-874608
-874870
-880464
-879728
-876364
-875747
-875255
-870124
-871034
-873840
-874908
-875211
-880937
-880144
-876878
-875872
-875423
-870226
-871321
-874195
-875284
-875794
-881485
-880891
-877572
-876514
-876266
-871309
-871944
-874919
-876116
-876610
-882349
-881641
-878253
-877339
-877007
-871856
-872759
-875582
-876660
-877120
-882833
-882144
-878763
-877866
-877473
-872407
-873251
-876507
-877419
-877682
-883371
-882788
-879435
-878363
-877936
-872889
-873784
-876657
-877703
-878173
-883858
-883217
-879816
-878844
-878400
-873582
-874472
-877280
-878368
-878850
-884470
-883769
-880510
-879540
-879196
-874092
-875103
-877872
-878873
-879406
-885095
-884530
-881211
-880243
-879751
-874694
-875668
-878369
-879538
-880204
-885841
-885192
-881869
-880893
-880300
-875409
-876394
-879072
-880181
-880781
-886273
-885515
-881946
-880692
-879971
-874871
-875398
-877948
-878750
-879071
-884406
-883312
-879760
-878356
-877362
-872118
-872747
-874969
-875793
-875943
-881258
-880284
-876677
-875086
-874111
-868875
-869454
-871880
-872688
-872962
-878318
-877406
-874001
-872527
-871754
-866614
-867919
-869926
-870782
-871208
-876786
-876104
-872522
-871384
-870723
-865595
-866416
-869000
-870192
-870682
-876344
-875601
-872242
-871161
-870416
-865491
-866236
-868859
-870213
-870872
-876390
-875777
-872505
-871273
-870745
-865728
-866652
-869378
-870717
-871340
-876984
-876403
-873072
-871925
-871303
-866338
-867191
-870080
-871335
-872128
-877751
-877135
-873918
-872642
-872193
-867227
-868112
-871013
-872373
-873074
-878818
-878409
-874921
-873961
-873375
-868450
-869388
-872204
-873610
-874254
-879940
-879565
-876159
-875187
-874619
-869446
-870147
-872943
-874130
-874806
-880469
-879943
-876436
-875460
-874853
-869826
-870532
-873286
-874782
-875325
-881018
-880548
-877110
-876003
-875493
-870390
-871118
-873862
-875296
-875802
-881461
-880817
-877259
-876149
-875620
-870576
-871138
-873968
-875301
-875847
-881469
-880974
-877294
-876100
-875553
-870444
-871011
-873697
-874973
-875171
-880723
-880267
-876539
-875392
-874818
-869584
-870223
-872983
-874198
-874715
-880215
-879842
-876257
-875026
-874501
-869341
-869618
-872679
-874181
-874786
-880359
-880074
-876564
-875402
-874901
-869763
-870468
-873300
-874845
-875344
-880978
-880716
-877064
-875961
-875286
-870292
-870806
-873562
-875042
-875385
-880986
-880788
-877070
-875746
-875316
-870145
-870628
-873320
-874532
-875060
-880927
-880552
-876876
-875649
-875272
-870048
-870464
-873349
-874825
-875247
-880950
-880680
-877033
-875975
-875668
-870449
-870853
-873790
-875229
-875761
-881504
-881316
-877770
-876588
-876213
-870958
-871416
-874381
-875850
-876276
-882115
-882173
-878343
-877072
-876802
-871651
-872091
-875047
-876700
-877129
-882897
-882857
-879070
-877797
-877451
-872207
-872510
-875457
-876961
-877408
-882970
-883161
-879444
-878008
-877615
-872468
-872718
-875670
-877295
-877721
-883364
-883560
-879787
-878417
-878691
-873081
-873118
-876149
-877850
-878378
-884226
-884279
-880517
-879291
-879037
-873978
-874323
-877400
-879295
-879803
-885677
-885975
-882085
-880673
-880271
-874961
-875042
-878185
-879740
-880331
-886077
-886094
-882382
-880975
-880561
-875412
-875448
-878569
-880189
-880648
-886411
-886718
-882694
-881258
-880681
-875387
-875487
-878499
-879990
-880329
-886184
-886524
-882318
-880942
-880613
-875392
-875397
-878967
-880339
-880663
-886467
-886756
-882561
-881083
-880462
-875106
-874752
-877624
-879182
-879188
-884814
-885002
-880708
-878950
-878158
-872542
-872180
-875048
-876455
-876535
-882451
-882285
-877787
-876069
-875137
-869584
-869082
-872001
-873418
-873536
-879147
-879338
-874860
-873151
-872488
-866977
-866600
-869582
-871068
-871281
-876790
-877213
-873012
-871470
-870781
-865332
-864971
-868116
-869848
-870229
-875854
-876354
-872211
-870631
-870252
-864924
-864744
-867885
-869648
-870228
-875992
-876622
-872540
-871099
-870708
-865531
-865376
-868681
-870599
-871215
-877178
-877927
-873997
-872665
-872419
-867121
-867026
-870061
-871701
-872163
-878129
-878892
-874803
-873339
-872953
-867744
-867607
-870839
-872621
-873287
-879084
-879832
-875750
-874480
-874019
-868727
-868437
-871806
-873745
-874182
-880011
-880773
-876644
-875311
-874880
-869582
-869349
-872631
-874568
-874962
-880804
-881541
-877480
-875980
-875651
-870379
-870224
-874030
-875642
-876091
-881800
-882568
-878418
-876964
-876466
-871161
-870809
-874010
-875884
-876386
-882188
-882910
-878781
-877259
-876780
-871358
-871135
-874226
-876224
-876522
-882212
-882916
-878745
-877263
-876776
-871273
-870888
-873895
-875682
-876111
-881820
-882434
-878248
-876752
-876118
-870629
-870233
-873200
-874976
-875347
-881121
-881812
-877530
-875897
-875374
-869959
-869548
-872446
-874468
-874867
-880564
-881462
-877245
-875698
-875154
-869778
-869386
-872513
-874616
-875048
-880781
-881577
-877492
-876022
-875567
-870356
-869966
-873115
-874999
-875607
-881418
-882086
-877952
-876361
-875935
-870496
-870268
-873431
-875384
-875924
-881643
-882601
-878414
-876889
-876400
-871084
-870721
-873888
-875859
-876517
-882271
-883140
-878976
-877541
-877186
-871948
-871656
-874795
-876903
-877495
-884008
-884512
-880371
-878938
-878654
-873281
-872942
-876712
-878553
-879044
-884893
-885488
-881300
-879749
-879242
-873894
-873565
-876708
-878710
-879294
-885199
-886130
-881937
-880278
-879940
-874586
-874132
-877359
-879452
-880102
-885989
-886905
-882633
-881187
-880726
-875386
-875040
-878150
-880197
-880797
-886601
-887516
-883363
-881889
-881393
-876072
-875740
-878737
-880985
-881611
-887263
-888284
-884175
-882704
-882214
-876949
-876579
-879509
-881723
-882197
-887994
-889033
-884893
-883227
-882824
-877568
-877088
-880091
-882222
-882699
-888536
-889555
-885311
-883678
-883095
-877688
-877150
-880242
-882226
-882782
-888471
-889556
-885253
-883694
-883229
-877805
-877283
-880741
-882559
-882960
-888831
-889866
-885751
-884144
-883857
-878535
-877964
-881079
-883278
-883862
-889549
-890911
-886694
-885262
-884880
-879634
-879037
-882080
-884224
-884815
-890497
-891883
-887555
-886039
-885737
-880376
-879805
-882695
-884821
-885413
-890974
-892259
-887953
-886190
-885740
-880627
-879728
-882689
-884596
-885121
-890629
-891657
-887152
-885268
-884559
-879109
-878100
-880779
-882644
-882877
-888249
-889317
-884682
-882824
-881911
-876442
-875411
-878037
-879841
-880145
-885325
-886465
-881868
-880993
-879482
-873914
-872841
-875478
-877498
-877734
-883004
-884377
-879917
-878081
-877411
-872108
-871205
-874051
-875939
-876292
-881457
-883065
-878793
-876972
-876387
-871016
-870180
-873073
-875265
-875901
-881143
-882775
-878566
-876902
-876450
-871348
-870571
-873494
-875900
-876378
-881468
-883151
-878904
-877215
-876577
-871708
-870816
-873824
-876010
-876647
-881912
-883756
-879624
-878116
-877623
-872573
-871598
-874723
-877005
-877692
-882798
-884589
-880585
-878940
-878474
-873480
-872498
-875676
-877853
-878617
-883567
-885609
-881496
-880073
-879539
-874577
-873465
-876449
-878788
-879488
-884496
-886367
-882342
-880682
-880626
-875423
-873938
-877135
-879471
-880280
-884907
-887221
-883207
-881627
-881353
-876299
-875040
-878112
-880232
-880617
-885415
-887727
-883655
-882003
-881373
-876581
-875184
-878113
-880490
-880976
-885620
-887763
-883722
-881964
-881337
-876616
-875140
-877923
-880272
-880878
-885270
-887330
-883327
-881539
-880809
-876110
-874494
-877365
-879518
-880050
-884415
-886487
-882396
-880583
-879765
-875094
-873514
-876411
-878660
-879241
-883718
-886138
-882228
-880445
-880364
-875384
-873719
-876725
-878960
-879522
-883828
-886486
-882442
-880700
-880015
-875498
-873736
-876603
-878884
-879398
-883808
-886314
-882339
-880514
-879936
-875479
-873812
-876681
-879025
-879528
-883689
-886346
-882433
-880609
-880141
-875512
-873745
-876660
-878891
-879525
-883636
-886304
-882500
-880716
-880404
-876061
-874324
-877181
-879427
-879930
-884149
-887000
-883277
-881400
-880931
-876359
-874856
-877740
-880036
-880541
-884685
-887749
-884062
-882160
-881772
-877460
-875553
-878578
-881029
-881551
-885652
-888898
-885239
-883376
-883174
-879088
-877169
-880136
-882424
-882931
-886931
-889873
-886104
-884330
-883987
-879788
-877703
-880519
-882924
-883485
-887372
-890486
-886818
-884770
-884320
-880111
-877872
-880685
-883131
-883436
-887064
-890452
-886639
-884493
-884118
-879854
-877578
-880451
-882926
-883428
-887136
-890548
-886882
-884902
-884444
-880381
-878273
-881162
-883658
-884180
-887873
-891274
-887588
-885539
-885040
-881105
-878770
-881579
-884121
-884612
-888158
-891540
-888567
-886015
-885369
-881588
-879140
-881989
-884529
-885019
-888612
-892168
-888651
-886442
-886064
-882171
-879737
-882623
-884986
-885453
-889134
-892659
-889252
-887057
-886516
-882774
-880360
-883234
-886315
-886488
-889770
-893371
-889935
-887803
-887279
-883553
-881179
-884004
-886557
-887046
-890301
-893984
-890561
-888480
-887968
-884262
-881631
-884426
-886937
-887435
-890738
-894442
-891009
-888713
-888209
-884468
-881841
-884413
-886985
-887345
-890299
-893864
-890355
-887886
-887050
-883242
-880443
-882760
-884974
-885360
-888078
-891607
-888149
-885635
-884720
-880974
-877903
-880450
-882768
-883006
-885579
-889206
-885717
-883217
-882425
-878663
-875627
-878048
-880291
-880430
-883168
-886733
-883195
-880590
-879833
-876385
-873315
-875746
-878112
-878302
-881048
-884648
-881312
-878593
-877940
-874761
-872177
-875014
-877497
-877849
-880318
-884586
-881510
-879276
-878570
-875434
-872409
-875029
-877550
-877955
-880672
-884845
-881760
-879390
-878760
-876234
-872898
-875318
-877954
-878456
-881060
-885327
-882503
-880212
-879689
-876572
-873770
-876312
-879040
-879583
-882194
-886421
-883587
-881084
-880642
-877652
-874556
-877263
-879791
-880436
-882874
-887216
-884233
-881970
-881484
-878571
-875616
-878078
-880705
-881282
-883652
-888103
-885447
-883086
-882688
-879907
-877021
-879586
-882348
-883095
-885616
-890019
-887567
-885268
-884704
-881849
-878517
-880908
-883554
-884124
-886369
-890840
-888111
-885625
-885001
-882350
-879134
-881495
-884116
-884709
-886713
-891027
-888452
-885776
-885264
-882527
-879092
-881320
-883798
-884196
-886090
-890425
-887857
-885206
-884566
-881912
-878443
-880632
-883113
-883617
-885464
-890008
-887472
-884885
-884235
-881910
-878545
-880682
-883333
-883845
-885689
-890326
-887954
-885357
-884763
-882435
-879369
-881012
-883297
-883901
-885578
-890255
-888004
-885263
-884699
-882282
-878693
-880820
-883514
-883898
-885270
-890329
-888095
-885456
-884762
-882648
-879112
-881081
-883782
-884185
-885756
-890541
-888369
-885885
-885148
-883179
-879483
-881532
-884140
-884824
-886170
-891703
-889101
-886371
-885760
-883767
-879916
-881994
-884680
-885363
-886586
-891780
-889742
-887094
-886382
-884499
-880695
-882799
-885374
-885838
-887170
-892244
-890203
-887534
-886769
-884978
-881035
-883022
-886241
-886359
-887397
-892590
-890431
-887651
-887117
-885439
-881480
-883407
-886115
-886762
-887840
-893045
-891112
-888342
-887700
-886061
-882108
-884050
-886766
-887369
-888304
-893831
-892007
-889137
-888516
-886955
-882851
-884818
-887427
-887893
-888848
-894403
-892478
-889672
-888866
-887417
-883003
-884914
-887637
-888167
-888807
-894373
-892579
-889739
-889000
-888380
-883353
-885158
-887758
-888337
-888963
-894655
-893243
-890084
-889473
-888215
-883849
-885715
-888437
-889094
-889843
-895571
-893768
-890920
-890327
-889371
-884924
-886722
-889600
-890173
-890853
-896721
-895124
-892213
-891597
-890702
-886149
-888079
-890803
-891416
-891967
-897831
-896029
-892959
-892144
-891287
-886783
-888515
-891368
-891833
-892345
-898257
-896200
-893541
-892880
-892023
-887342
-889192
-891994
-892204
-892903
-898942
-897300
-894429
-893522
-892893
-888061
-889780
-892584
-893173
-893606
-899764
-898130
-895136
-894488
-893669
-888625
-890878
-893308
-893817
-894121
-899982
-898137
-894871
-894007
-893259
-887949
-889248
-891779
-892151
-892120
-897933
-895817
-892431
-891418
-890526
-885205
-886438
-889033
-889179
-889331
-894968
-893047
-889656
-888476
-887705
-882182
-883493
-886067
-886382
-886420
-892245
-890485
-887057
-885923
-885321
-879890
-881307
-883924
-884135
-884463
-890993
-888794
-885374
-884384
-883975
-878606
-879924
-882756
-883292
-883635
-889693
-887887
-884622
-883767
-883522
-877754
-879322
-882172
-882828
-883142
-889396
-887936
-884759
-883808
-883684
-878073
-879799
-882670
-883463
-883868
-890208
-888808
-885758
-884871
-884872
-879465
-880843
-884001
-884936
-885373
-891695
-890288
-887090
-886167
-886267
-880877
-882499
-885555
-886187
-886747
-892855
-891649
-888303
-887503
-887478
-882013
-883585
-886639
-887422
-887825
-894097
-892571
-889420
-888619
-888401
-882758
-884273
-887294
-888229
-888633
-894896
-893480
-890204
-889444
-889350
-883688
-885336
-888369
-889063
-889541
-895927
-894562
-891168
-890400
-890297
-884685
-886211
-889257
-890062
-890543
-896830
-895362
-892133
-891221
-891073
-885513
-886950
-889873
-890506
-890929
-897109
-895591
-892216
-891266
-890998
-885254
-886640
-889659
-890245
-890599
-896787
-895396
-891919
-891000
-890558
-884955
-886257
-889084
-889745
-890113
-896263
-894607
-891251
-890386
-889992
-884357
-885646
-888604
-889210
-889618
-895697
-894380
-890894
-889993
-889636
-883983
-885243
-888210
-888991
-889334
-895494
-894158
-890700
-889776
-890169
-884085
-885134
-888108
-888823
-889145
-895255
-893926
-890589
-889585
-889348
-883693
-884912
-888081
-888868
-889416
-895633
-894501
-891043
-890065
-889892
-884395
-885537
-888685
-889474
-889863
-895906
-894971
-891997
-890687
-890498
-884984
-886066
-889206
-890304
-890458
-896545
-895536
-892160
-891154
-891011
-885551
-886790
-889811
-890633
-891162
-897064
-896058
-892742
-891716
-891600
-886024
-887268
-890396
-891187
-891630
-897749
-896866
-893575
-892516
-892455
-886973
-888214
-891450
-892345
-892763
-898939
-897965
-894555
-893734
-893570
-888228
-889541
-892701
-893564
-893854
-899857
-898956
-895580
-894810
-894678
-889343
-890353
-893633
-894451
-894918
-900836
-899918
-896632
-895646
-895555
-890311
-891404
-894419
-895298
-895722
-901697
-900893
-897431
-896522
-896203
-890846
-891808
-895015
-895893
-896271
-902065
-901043
-897724
-896779
-896425
-891310
-892348
-895487
-896221
-896664
-902561
-901895
-898498
-897499
-897269
-892033
-892937
-896156
-896902
-897310
-903164
-902433
-898985
-897975
-897915
-892695
-893507
-896699
-897541
-897839
-903846
-903194
-899604
-898711
-898465
-893337
-894157
-897306
-898238
-898563
-904291
-903622
-900140
-899247
-898839
-893757
-894468
-897632
-898474
-898952
-904585
-903844
-900437
-899495
-899212
-894113
-894799
-897991
-898808
-899047
-904718
-903900
-900299
-899121
-898801
-893319
-893967
-896904
-897399
-897591
-902885
-901877
-897987
-896840
-896212
-890703
-891131
-894105
-895409
-895113
-900125
-899083
-895201
-893942
-893547
-888252
-888656
-891579
-892170
-892288
-897863
-897115
-893176
-892142
-891790
-886409
-886896
-890008
-890579
-890861
-896371
-895552
-891758
-890620
-890298
-885706
-885788
-888833
-889417
-889669
-895067
-894418
-890666
-889669
-889277
-884124
-884876
-887945
-888738
-889153
-894782
-894384
-890924
-889889
-889729
-884674
-885274
-888447
-889358
-889687
-895280
-894959
-891421
-890597
-890423
-885506
-886418
-889712
-890565
-891038
-896657
-896370
-892851
-892139
-892091
-887171
-887969
-891318
-892344
-892859
-898468
-898060
-894348
-893504
-893271
-888497
-889298
-892507
-893367
-893619
-899299
-898843
-895324
-894512
-894305
-889550
-890204
-893561
-894366
-894800
-900338
-899865
-896230
-895331
-895041
-890014
-890588
-893778
-894622
-894778
-900268
-899658
-895874
-894632
-894676
-890074
-890685
-893983
-894761
-894979
-900478
-900061
-896415
-895531
-895284
-890518
-890952
-894077
-894972
-895276
-900746
-900325
-896570
-895751
-895556
-890853
-891300
-894714
-895567
-895871
-901411
-901054
-897383
-896503
-896219
-891283
-891783
-895084
-895773
-895790
-901348
-900883
-897249
-896184
-895953
-890872
-891320
-894572
-895410
-895559
-901038
-900460
-896596
-895652
-895322
-890264
-890768
-893956
-894624
-894825
-900336
-899758
-895934
-895066
-894835
-889802
-890398
-893649
-894480
-894646
-900281
-899785
-896062
-895189
-895123
-890055
-890754
-894291
-894957
-895328
-901111
-900707
-896829
-896744
-896184
-891069
-891739
-895195
-895982
-896244
-901998
-901591
-897835
-896938
-896870
-891686
-892408
-895942
-896771
-896998
-902819
-902355
-898702
-897888
-897690
-892478
-893259
-896904
-897698
-897856
-903704
-903444
-899580
-898765
-898553
-893281
-893928
-897346
-898133
-898364
-904202
-903801
-900032
-899170
-898926
-893861
-894565
-897971
-898830
-899060
-904642
-904203
-900376
-899372
-899324
-894081
-894709
-898129
-898940
-899033
-904880
-904250
-900351
-899331
-899277
-894048
-894827
-898248
-899024
-899353
-905244
-904619
-900733
-899985
-899946
-894734
-895468
-898939
-899606
-899959
-905903
-905255
-901282
-900612
-900690
-895468
-896296
-899780
-900524
-900750
-906654
-905977
-902836
-901495
-901110
-895839
-896446
-899921
-900661
-900806
-906665
-906090
-902260
-901586
-901619
-896547
-897188
-900757
-901573
-901799
-907728
-907119
-903156
-902234
-902077
-896992
-897781
-901237
-902047
-902274
-908170
-907585
-903723
-902754
-902665
-897287
-897932
-901356
-901965
-902166
-907857
-907106
-902947
-901779
-901461
-895989
-896454
-899584
-900031
-899864
-905467
-904432
-900357
-899163
-898637
-893178
-893581
-896798
-897314
-897959
-902863
-902079
-897863
-896741
-896466
-890887
-891486
-894803
-895366
-895348
-901031
-900229
-896320
-895119
-894930
-889363
-890051
-893385
-894027
-893966
-899835
-898976
-895052
-893995
-893739
-888395
-889056
-892283
-893053
-893095
-898993
-898395
-894482
-893533
-893219
-888064
-888774
-892190
-892989
-893179
-899027
-898458
-894560
-893624
-893565
-888390
-889140
-892448
-893327
-893674
-899348
-898638
-895118
-894221
-894237
-888919
-889781
-893116
-894093
-894252
-900230
-899642
-895861
-895014
-894988
-889870
-890543
-893853
-895086
-895099
-901146
-900607
-896779
-895786
-895726
-890470
-891296
-894683
-895466
-895610
-901498
-900885
-897030
-896085
-895911
-890749
-891472
-894675
-895496
-895636
-901482
-900877
-897233
-896316
-896393
-891475
-892176
-895577
-896580
-896617
-902487
-901746
-898213
-897240
-897082
-891921
-892607
-895818
-896870
-897114
-902919
-902205
-898536
-897521
-897327
-892102
-892587
-895867
-896841
-897082
-902850
-902177
-898362
-897345
-897212
-892005
-892727
-895589
-896575
-896783
-902764
-902033
-898277
-897214
-897238
-891861
-892347
-895636
-896420
-896459
-902303
-901686
-897786
-896760
-896442
-891111
-891819
-894962
-895686
-895879
-901793
-901215
-897863
-896628
-896273
-891094
-891692
-894876
-895826
-896007
-901696
-901068
-898073
-896572
-896274
-890955
-891618
-894942
-895924
-896058
-901952
-901265
-897574
-896563
-896363
-891144
-891880
-895051
-895966
-896205
-902150
-901526
-897872
-896862
-896700
-891626
-892424
-895704
-896759
-897137
-903029
-902339
-898687
-897794
-897388
-892467
-893460
-896579
-897567
-897736
-903711
-903248
-899649
-898610
-898514
-893309
-894157
-897443
-898352
-898581
-904556
-903890
-900214
-899114
-899149
-894021
-894851
-898084
-899069
-899519
-905389
-904851
-901319
-900285
-900127
-895120
-895999
-899160
-900210
-900613
-906457
-905638
-901772
-900936
-900719
-895698
-896591
-899731
-900715
-900931
-906799
-906046
-902359
-901457
-901306
-896127
-896851
-900170
-901080
-901369
-906996
-906498
-902913
-901958
-901719
-896637
-897557
-900736
-901644
-901974
-907865
-907107
-903443
-902401
-902333
-897258
-898064
-901168
-902152
-902479
-908306
-907744
-904180
-903306
-903039
-898010
-898922
-902031
-903057
-903155
-908996
-908380
-904750
-904661
-903875
-898262
-899217
-902412
-903452
-903722
-909645
-908984
-905241
-904389
-904193
-899126
-899934
-903049
-904124
-904202
-909673
-909032
-905469
-904373
-904033
-898679
-899242
-902272
-903032
-903029
-908673
-907685
-903793
-902608
-902030
-896546
-897009
-899861
-900577
-900517
-906070
-905129
-901211
-899779
-899225
-893809
-894461
-897165
-898010
-897923
-903549
-902547
-898652
-897370
-896895
-891421
-892019
-895054
-895769
-895821
-901454
-900531
-896814
-895619
-895253
-889958
-890773
-893844
-894837
-894945
-900576
-899686
-895696
-894731
-894447
-889234
-890069
-893116
-893991
-894106
-900069
-899238
-895666
-894527
-894213
-888981
-889942
-893029
-894033
-894323
-900152
-899408
-895858
-894920
-894818
-889584
-890533
-893437
-894708
-895001
-901008
-900272
-896730
-895434
-895394
-890387
-891375
-894600
-895675
-895896
-901882
-901102
-897582
-896698
-896543
-891413
-892382
-895385
-896478
-896676
-902756
-901972
-898502
-897560
-897527
-892325
-893236
-896396
-897567
-897914
-903717
-903030
-899498
-898526
-898468
-893257
-894317
-897372
-898471
-898733
-904474
-903777
-900230
-899419
-899266
-894070
-895016
-898171
-899258
-899308
-905102
-904422
-900605
-899795
-899677
-894473
-895294
-898413
-899485
-899718
-905460
-904765
-901285
-900196
-899987
-894762
-895766
-898735
-899853
-899924
-905738
-905007
-901343
-900407
-900136
-894881
-895698
-898468
-899645
-899677
-905555
-904666
-901060
-900087
-899794
-894471
-895344
-898381
-899248
-899446
-905116
-904282
-900652
-899523
-899081
-893813
-894647
-897453
-898389
-898515
-904336
-903579
-899921
-898956
-898763
-893598
-894529
-897352
-898436
-898625
-904626
-903751
-900368
-899384
-899143
-893946
-894918
-897937
-899051
-899170
-905025
-904274
-900777
-899752
-899481
-894504
-895345
-898381
-899385
-899578
-905461
-904790
-901282
-900463
-900299
-895377
-896274
-899208
-900191
-900325
-906195
-905358
-901979
-900614
-900712
-906626
-905822
-902442
-901570
-901284
-896238
-897184
-899953
-901126
-901551
-907218
-906585
-903011
-902074
-901793
-896501
-897408
-900105
-901175
-901426
-907105
-906417
-903176
-902302
-902060
-896912
-897814
-900790
-901897
-902185
-908096
-907330
-903781
-902824
-902556
-897426
-898386
-901468
-902593
-902870
-908652
-907957
-904408
-903534
-903348
-898360
-899342
-902376
-903466
-903784
-909455
-908990
-905685
-904737
-904428
-899234
-900275
-902819
-903950
-904302
-910243
-909417
-906064
-904984
-904881
-899748
-900726
-903627
-904810
-905064
-910953
-910211
-906753
-905906
-905639
-900620
-901597
-904588
-905646
-905764
-911790
-911060
-907650
-906705
-906426
-901329
-902275
-905107
-906184
-906403
-912260
-911649
-908187
-907222
-906949
-901835
-902926
-905899
-906869
-907129
-912946
-912186
-908546
-907541
-907151
-901906
-902788
-905464
-906425
-906456
-912002
-910891
-907207
-905957
-905433
-900166
-900688
-903274
-903934
-903696
-909070
-907873
-904058
-902723
-902146
-896613
-897296
-900071
-900784
-900869
-906450
-905355
-901651
-900515
-899867
-894630
-895358
-897951
-898806
-898907
-904556
-903491
-900027
-898891
-898364
-893219
-894034
-896835
-897847
-897948
-903596
-902729
-899304
-898249
-897987
-892808
-893701
-896363
-897521
-897586
-903428
-902645
-899361
-897879
-897717
-892481
-893327
-896156
-897129
-897498
-903376
-902883
-899424
-898501
-898236
-893198
-894254
-897001
-898141
-898448
-904249
-903635
-900258
-899419
-899057
-893975
-894914
-898036
-899115
-899396
-905230
-904494
-901315
-900368
-900596
-895141
-896093
-899017
-900188
-900429
-906357
-905756
-902329
-901520
-901226
-896192
-897900
-900252
-901273
-901612
-907389
-906851
-903558
-902603
-902339
-897297
-898239
-901130
-902266
-902648
-908388
-907683
-904417
-903662
-903497
-898438
-899475
-902418
-903545
-903926
-909607
-909053
-905738
-904866
-904668
-899695
-900658
-903478
-904497
-904733
-910481
-909497
-906283
-906008
-905136
-899914
-900799
-903437
-904525
-904768
-910541
-909715
-906148
-905271
-904873
-899648
-900595
-903292
-904444
-904631
-910372
-909473
-905902
-904939
-904403
-899185
-900276
-902966
-904093
-904323
-910026
-909059
-905641
-904651
-904240
-899045
-899912
-902805
-903758
-903883
-909584
-908732
-905379
-904371
-903877
-898611
-899417
-902111
-903259
-903318
-909130
-908367
-904863
-903942
-903496
-898345
-899323
-902147
-903391
-903728
-909569
-908847
-905401
-904437
-904142
-899117
-899996
-902925
-904234
-904589
-910552
-909632
-906232
-905416
-905112
-900060
-901060
-903955
-905074
-905392
-911081
-910375
-907026
-906050
-905670
-900652
-901545
-904411
-905448
-905713
-911468
-910759
-907279
-906315
-905990
-900914
-901858
-904715
-905819
-906160
-911880
-911250
-907785
-906945
-906570
-901591
-902563
-905350
-906603
-906966
-912832
-912260
-908870
-907937
-907581
-902619
-903489
-906258
-907375
-907793
-913656
-912987
-909465
-908644
-908004
-902846
-904195
-906955
-908112
-908535
-914316
-913494
-910295
-909287
-908998
-903840
-904907
-907636
-908683
-909048
-915027
-914215
-910879
-910016
-909648
-904518
-905549
-908272
-909332
-909653
-915440
-914694
-911362
-910243
-909824
-904793
-905579
-908469
-909371
-909699
-915534
-914841
-911320
-910330
-909833
-904791
-905714
-908395
-909534
-909778
-915643
-914746
-911310
-910355
-909858
-904693
-905728
-908562
-909562
-909977
-915707
-915085
-911674
-910849
-910459
-905303
-906263
-908910
-909922
-910082
-915768
-914831
-911295
-910162
-909457
-904206
-904977
-907588
-908434
-908573
-914099
-913100
-909385
-908186
-907708
-902319
-902888
-905423
-906174
-906402
-911977
-910935
-907249
-906029
-905261
-900076
-900754
-903368
-904286
-904453
-909958
-909205
-905629
-904406
-903813
-898581
-899323
-902060
-902999
-903173
-908789
-908059
-904622
-903547
-903140
-897849
-898669
-901474
-902499
-902981
-908648
-907759
-904655
-903665
-903199
-898026
-899038
-901976
-903037
-903484
-909222
-908554
-905120
-904239
-903845
-898844
-899917
-902720
-903807
-904273
-910049
-909456
-906186
-905140
-904640
-899664
-900589
-903387
-904633
-905055
-910740
-910047
-906696
-905769
-905279
-900178
-901084
-904151
-905248
-905726
-911491
-910729
-907448
-906686
-906179
-901185
-902156
-905111
-906211
-906760
-912640
-912063
-908575
-907791
-907456
-902471
-903502
-906365
-907518
-907927
-913718
-913074
-909831
-908772
-908224
-903178
-904114
-906888
-907968
-908430
-913904
-913281
-909938
-908762
-908386
-903375
-904170
-906923
-908055
-908597
-914203
-913479
-909996
-908951
-908550
-903644
-904493
-907564
-908791
-909297
-914922
-914110
-910632
-909562
-908955
-903938
-904729
-907533
-908691
-909133
-914669
-913978
-910468
-909343
-908881
-903724
-904525
-907221
-908412
-908826
-914419
-913772
-910275
-909289
-908716
-903677
-904453
-907232
-908346
-908773
-914464
-913826
-910335
-909274
-908623
-903579
-904332
-907205
-908386
-908876
-914533
-913890
-910345
-909300
-908802
-903729
-904622
-907530
-908625
-909055
-914876
-914150
-910765
-909799
-909316
-904306
-905158
-907965
-909160
-909673
-915404
-914790
-911454
-910599
-910041
-905097
-906064
-908994
-910332
-910913
-916752
-916210
-912889
-911799
-911174
-906345
-907211
-909967
-911220
-911702
-917522
-916667
-913261
-912227
-911576
-906450
-907435
-910209
-911313
-911737
-917188
-916646
-913206
-912319
-911961
-907192
-908020
-910823
-912019
-912580
-919142
-917956
-914535
-913361
-912785
-907836
-908721
-911654
-912971
-913612
-919587
-919048
-915679
-914791
-914423
-909486
-910559
-913539
-914707
-915411
-921176
-920449
-917204
-916213
-915593
-910674
-911627
-914249
-915466
-916120
-921682
-921098
-917674
-916636
-916112
-911075
-912043
-914894
-916157
-916839
-922493
-921899
-918523
-917542
-917084
-912101
-912966
-915786
-917121
-917682
-923357
-922706
-919311
-918284
-917844
-912824
-913796
-916577
-917803
-918532
-924191
-923554
-920165
-919065
-918485
-913514
-914386
-917105
-918432
-918924
-924435
-924332
-920352
-919106
-918241
-913069
-913762
-916200
-917053
-917422
-922839
-921844
-918091
-916669
-915742
-910390
-910825
-913205
-914161
-914440
-919674
-918789
-915139
-913793
-912810
-907618
-908819
-910891
-911370
-911903
-917271
-916375
-913403
-911759
-910809
-905647
-906334
-908904
-909963
-910343
-915971
-915170
-911642
-910397
-909648
-904522
-905206
-907929
-908982
-909415
-914956
-914239
-910739
-909641
-908988
-903946
-904623
-907423
-909048
-909214
-914828
-914312
-911155
-910218
-909538
-904427
-905270
-908071
-909401
-910152
-915700
-915179
-911936
-910729
-910176
-905223
-905953
-908870
-910066
-910826
-916590
-916017
-912642
-911548
-911076
-906117
-907063
-909988
-911340
-912192
-917954
-917545
-914447
-913683
-913317
-908550
-909491
-912344
-913620
-914189
-919905
-919385
-916113
-915171
-914629
-909792
-910671
-913615
-914832
-915526
-921250
-920775
-917251
-916284
-915644
-910533
-911191
-913829
-915103
-915657
-921108
-920424
-916906
-915706
-914914
-909880
-910495
-913185
-914543
-915283
-921044
-920337
-916854
-915804
-915122
-910142
-910916
-913582
-914820
-915388
-920876
-920306
-916740
-915541
-914886
-909865
-910595
-913197
-914362
-914794
-920431
-919745
-916176
-915006
-914562
-909460
-910261
-912931
-914251
-914834
-920425
-919956
-916428
-915341
-914711
-909565
-910384
-913041
-914350
-914830
-920312
-919483
-915871
-914744
-914034
-908942
-909778
-912438
-913581
-914137
-919693
-918978
-915335
-914137
-913418
-908409
-909053
-911587
-912830
-913256
-918647
-918083
-914441
-913197
-912630
-907615
-908281
-911007
-912239
-912934
-918611
-917979
-914438
-913308
-912657
-907692
-908557
-911355
-912767
-913392
-919139
-918593
-915110
-914010
-913519
-908561
-909493
-912340
-913614
-914250
-919932
-919405
-915907
-914705
-914326
-909231
-910114
-912932
-914266
-914900
-920502
-919999
-916577
-915466
-914944
-910006
-910783
-913718
-914935
-915584
-921231
-920785
-917333
-916205
-915564
-910629
-911504
-914320
-915373
-916014
-921673
-921075
-917445
-916251
-915563
-910485
-911146
-913976
-915235
-915625
-920996
-920543
-916925
-915771
-915144
-910182
-910882
-913639
-914888
-915437
-920941
-920498
-917096
-916235
-915751
-910759
-911572
-914363
-915527
-916126
-921759
-921282
-917895
-916769
-916137
-911142
-911768
-914696
-915894
-916643
-922236
-921712
-918185
-917200
-916569
-911640
-912294
-915389
-916531
-917150
-922828
-922366
-918699
-917601
-917083
-911959
-912571
-915234
-916403
-916810
-922109
-921448
-917622
-916337
-915417
-910043
-910479
-913106
-913918
-914134
-919547
-918667
-914797
-913419
-912624
-907166
-907658
-910197
-911225
-911385
-916795
-916224
-912366
-911121
-910272
-904944
-905573
-908386
-909459
-909819
-915393
-914696
-911058
-909820
-909110
-903907
-904426
-907346
-908414
-908820
-914337
-913778
-910093
-908871
-908318
-903156
-903800
-906608
-907738
-908137
-913670
-913219
-909509
-908539
-907871
-902767
-903499
-906389
-907783
-908380
-914170
-913633
-910297
-909001
-908689
-903775
-904610
-907669
-909062
-909591
-915399
-914931
-911393
-910259
-909786
-904630
-905229
-908214
-909461
-910016
-915616
-915165
-911566
-910306
-909656
-904612
-905290
-907990
-909183
-909810
-915612
-915313
-912000
-911095
-910474
-905576
-906346
-909435
-910688
-911346
-917037
-916689
-913261
-912204
-911773
-906698
-907496
-910428
-911817
-912459
-918150
-917894
-914419
-913357
-912905
-907903
-908570
-911424
-912846
-913362
-919035
-918552
-914774
-913638
-913039
-907770
-908509
-911253
-912500
-912888
-918446
-917946
-914182
-912898
-912400
-907389
-908073
-910953
-912220
-912666
-918375
-917860
-914137
-912995
-912350
-907115
-907834
-910581
-911838
-912407
-918060
-917664
-914042
-912882
-912323
-907078
-907853
-910662
-912106
-912492
-918180
-917854
-914118
-912937
-912474
-907392
-907861
-910816
-912042
-912589
-918197
-917719
-914107
-912899
-912479
-907344
-907964
-910957
-912201
-912634
-918396
-918027
-914452
-913367
-912834
-907748
-908306
-911288
-912627
-913173
-918845
-918435
-914891
-913664
-913297
-908175
-908694
-911553
-912959
-913500
-919194
-918941
-915253
-914143
-913578
-908496
-909243
-912112
-913336
-913845
-919662
-919249
-915600
-914391
-913889
-908727
-909340
-912223
-913530
-914091
-919699
-919366
-915739
-914605
-914110
-909028
-909693
-912520
-913894
-914357
-920206
-919982
-916185
-915056
-914581
-909390
-910188
-912990
-914377
-914857
-920622
-920357
-916611
-915432
-915033
-910001
-910681
-913668
-915106
-915542
-921395
-921092
-917454
-916211
-915884
-910724
-911366
-914325
-915715
-916179
-921961
-921607
-918185
-916979
-916452
-911353
-912065
-914895
-916261
-916786
-922627
-922307
-918809
-917525
-917109
-911936
-912678
-915642
-917014
-917630
-923470
-923136
-919509
-918267
-917805
-912801
-913426
-916302
-917682
-918271
-924066
-923846
-920255
-919089
-918645
-913395
-914043
-917126
-918527
-919142
-924835
-924584
-921067
-919696
-919217
-913847
-914367
-917365
-918716
-919187
-924939
-924723
-920995
-919832
-919452
-914136
-914611
-917480
-918844
-919156
-924808
-924365
-920584
-919199
-918500
-912965
-913291
-915808
-916805
-916913
-922389
-921707
-917622
-916060
-915202
-909574
-909760
-912340
-913319
-913187
-918556
-918035
-914078
-912769
-912144
-906570
-906761
-909406
-911327
-910928
-916439
-915765
-911858
-910418
-909758
-904280
-904561
-907192
-908433
-908642
-914227
-913691
-909587
-908478
-907904
-902621
-902941
-905633
-907076
-907376
-913085
-912654
-909005
-907731
-907332
-902159
-902646
-905695
-907099
-907560
-913426
-913281
-909802
-908545
-908154
-903084
-903730
-906573
-908029
-908575
-914332
-914069
-910413
-909256
-908932
-903608
-904107
-906984
-908583
-909181
-914912
-914699
-911050
-909759
-909539
-904338
-904881
-907807
-909269
-909868
-915787
-915660
-912098
-910828
-910623
-905388
-906013
-908996
-910475
-910993
-916794
-916554
-913100
-911832
-911455
-906355
-906944
-909819
-911437
-912009
-917940
-917711
-914098
-913026
-912607
-907492
-908078
-911010
-912562
-913119
-918855
-918594
-914963
-913700
-913219
-907988
-908339
-911295
-912765
-913110
-918943
-918662
-914991
-913527
-912981
-907764
-908318
-911106
-912303
-912648
-918419
-918103
-914246
-913000
-912490
-907134
-907510
-910271
-911595
-912068
-917682
-917320
-913438
-911958
-911468
-906131
-906556
-909306
-910610
-911095
-916742
-916439
-912688
-911230
-910783
-905484
-905914
-908773
-910192
-910520
-916220
-916061
-912332
-910949
-910520
-905282
-905747
-908644
-910121
-910500
-916390
-916167
-912346
-911073
-910608
-905373
-905494
-908589
-910109
-910424
-916307
-916037
-912381
-911069
-910730
-905544
-906006
-908844
-910409
-911014
-916858
-916399
-912941
-912319
-911726
-906688
-907079
-910015
-911320
-911485
-917120
-917031
-913346
-912205
-911830
-906668
-907068
-909913
-911393
-912039
-917900
-917748
-913984
-912643
-912220
-907055
-907479
-910305
-911754
-912136
-917952
-917754
-913979
-912543
-912073
-906934
-907328
-910218
-911674
-911984
-917841
-917634
-913874
-912613
-912031
-906738
-907101
-909979
-911350
-911766
-917678
-917656
-914149
-912935
-912527
-907281
-907788
-910790
-912253
-912754
-918733
-918684
-915215
-914047
-913766
-908704
-909371
-912268
-913647
-913906
-919796
-919683
-915992
-914710
-914971
-909304
-909499
-912290
-913871
-914319
-919997
-919801
-915979
-914579
-913987
-908756
-908912
-911577
-912975
-913318
-919140
-919134
-915423
-914107
-913633
-908588
-908990
-911809
-913326
-913760
-919486
-919363
-915832
-914506
-914099
-908992
-909588
-912488
-914092
-914693
-920584
-920636
-916930
-915691
-915463
-909982
-910267
-913407
-914828
-915267
-921017
-920987
-917137
-915838
-915429
-910148
-910654
-913493
-914995
-915320
-920821
-920989
-917316
-916068
-915609
-910287
-910704
-913619
-915184
-915411
-921293
-921173
-917473
-916159
-915524
-910271
-910493
-913260
-914606
-914709
-920415
-919975
-916045
-914399
-913801
-908187
-908214
-910924
-912054
-911935
-917471
-916967
-912971
-911248
-910434
-904802
-904777
-907285
-908378
-908319
-913663
-913112
-908883
-907372
-906551
-900914
-900845
-903290
-904554
-904796
-910456
-909948
-905941
-904445
-903754
-898325
-898508
-901229
-902589
-902726
-908340
-908117
-904242
-902879
-902269
-896936
-897237
-900085
-901442
-901805
-907453
-907330
-903572
-902354
-901975
-896796
-897210
-899972
-901603
-902066
-907888
-907910
-904237
-903042
-902696
-897412
-897803
-900879
-902410
-902854
-908778
-908707
-904977
-903638
-903300
-898125
-898605
-901468
-903020
-903402
-909230
-909082
-905270
-904082
-903730
-898456
-898797
-901650
-903171
-903537
-909399
-909342
-905501
-904318
-903999
-898880
-899309
-902429
-904034
-904493
-910450
-910464
-906772
-905500
-905239
-900119
-900582
-903764
-905491
-906078
-912116
-912043
-908324
-907213
-906955
-901913
-902376
-905261
-906716
-907205
-913116
-912978
-909135
-907910
-907455
-902128
-902493
-905312
-906793
-907054
-912624
-912430
-908404
-906963
-906530
-901222
-901695
-904742
-906191
-906533
-912128
-912005
-908261
-906920
-906473
-901161
-901404
-904248
-905793
-906166
-911986
-911814
-907882
-906399
-906013
-900821
-901062
-903777
-905280
-905729
-911411
-911257
-907561
-906216
-905837
-900653
-901077
-904063
-905654
-906121
-911914
-911719
-907935
-906642
-906213
-900983
-901379
-904291
-905667
-906003
-911821
-911630
-907668
-906194
-905696
-900415
-900747
-903585
-905032
-905466
-911280
-911241
-907394
-906175
-905781
-900651
-901100
-904183
-905756
-906319
-912320
-912407
-908727
-907412
-907217
-901963
-902564
-905503
-907135
-907912
-913633
-913330
-909503
-908039
-907744
-902337
-903479
-905930
-907328
-907721
-913336
-913344
-909535
-908132
-907673
-902342
-902616
-905439
-906955
-907310
