PPG
-1117888
-1118105
-1118235
-1118714
-1118785
-1118969
-1119200
-1119526
-1119570
-1119406
-1119233
-1119331
-1119652
-1119645
-1119553
-1119530
-1119646
-1119875
-1119816
-1119658
-1119321
-1119225
-1119580
-1119669
-1119714
-1119746
-1119800
-1119975
-1119914
-1119314
-1119306
-1119509
-1119689
-1119877
-1119865
-1119863
-1120060
-1120427
-1120369
-1120165
-1119792
-1120052
-1120351
-1120547
-1120577
-1120861
-1121088
-1121052
-1120968
-1121377
-1121007
-1121088
-1121229
-1121172
-1121287
-1121605
-1121632
-1121740
-1121452
-1121069
-1121310
-1121463
-1121661
-1121665
-1121652
-1121878
-1122201
-1122173
-1121831
-1121613
-1121716
-1121980
-1122156
-1122185
-1122119
-1122498
-1122699
-1122627
-1122418
-1122229
-1122492
-1122737
-1122874
-1123070
-1123205
-1123423
-1123857
-1123773
-1123593
-1123443
-1123601
-1123960
-1124157
-1124096
-1124231
-1124460
-1124533
-1124812
-1124585
-1124335
-1124455
-1124828
-1124872
-1125609
-1124987
-1125183
-1125303
-1125222
-1124934
-1124616
-1124828
-1125042
-1125016
-1124998
-1125061
-1125415
-1125667
-1125624
-1125229
-1125069
-1125275
-1125607
-1125794
-1125830
-1125862
-1126390
-1126650
-1126562
-1126461
-1126498
-1126702
-1127057
-1127355
-1127793
-1128520
-1129454
-1130415
-1131681
-1130977
-1130656
-1130783
-1130844
-1130902
-1131062
-1131264
-1131528
-1132012
-1131934
-1131957
-1131879
-1132108
-1132588
-1132730
-1132861
-1132923
-1133398
-1133742
-1133577
-1133728
-1134032
-1134588
-1134813
-1134970
-1135194
-1135609
-1136136
-1136090
-1136053
-1135980
-1136208
-1136598
-1136718
-1136794
-1136906
-1137325
-1137596
-1137610
-1137501
-1137340
-1137697
-1137995
-1138216
-1138206
-1138435
-1138910
-1139148
-1139356
-1139099
-1139167
-1139526
-1139841
-1140077
-1140207
-1140384
-1140749
-1141120
-1141321
-1141095
-1141216
-1141460
-1141877
-1141815
-1142381
-1142695
-1143178
-1143591
-1143599
-1143492
-1143458
-1143773
-1144158
-1144444
-1144439
-1144646
-1144843
-1145074
-1145111
-1144969
-1144755
-1144966
-1145324
-1145478
-1145494
-1145722
-1146120
-1146288
-1146327
-1146056
-1145946
-1146135
-1146415
-1146465
-1146644
-1146775
-1146982
-1147361
-1147289
-1147159
-1146927
-1147064
-1147325
-1147484
-1147575
-1147772
-1148224
-1148472
-1148645
-1148542
-1148312
-1148615
-1149043
-1149336
-1149388
-1149572
-1149838
-1150243
-1150346
-1150294
-1150277
-1150559
-1150926
-1151034
-1151155
-1151503
-1151959
-1153056
-1152641
-1152373
-1152157
-1152554
-1152932
-1153123
-1153269
-1153527
-1153920
-1154407
-1154426
-1154433
-1154441
-1154791
-1155204
-1155530
-1155843
-1156109
-1156602
-1156987
-1157032
-1157077
-1157165
-1157585
-1158089
-1158290
-1158339
-1158694
-1159130
-1159523
-1159511
-1159182
-1158932
-1158925
-1159099
-1158960
-1158732
-1158481
-1158298
-1158170
-1157637
-1156638
-1155836
-1155423
-1154927
-1154182
-1153325
-1152524
-1151933
-1151370
-1150390
-1149317
-1148244
-1147580
-1146717
-1145773
-1144866
-1144051
-1143427
-1142818
-1141993
-1141008
-1139906
-1139346
-1138924
-1138260
-1137547
-1136898
-1136442
-1136095
-1135478
-1134696
-1133915
-1133666
-1133453
-1133139
-1132760
-1132515
-1132456
-1132302
-1132049
-1131723
-1131426
-1131444
-1131333
-1131289
-1131406
-1131385
-1131666
-1131482
-1131252
-1131049
-1131054
-1131381
-1131468
-1130956
-1131306
-1131715
-1131852
-1131832
-1131595
-1131429
-1131492
-1131561
-1131681
-1131747
-1131611
-1131828
-1131928
-1131853
-1131489
-1131134
-1131053
-1131219
-1131347
-1131237
-1131025
-1131226
-1131152
-1130988
-1130592
-1130347
-1130327
-1130169
-1130119
-1129821
-1129789
-1129374
-1129483
-1129193
-1128695
-1128300
-1128115
-1128206
-1128054
-1127808
-1127496
-1127542
-1127658
-1127398
-1127055
-1126640
-1126719
-1126782
-1126711
-1126745
-1126552
-1126997
-1127123
-1127009
-1126825
-1126612
-1127072
-1127448
-1127652
-1127818
-1128109
-1128520
-1128989
-1128909
-1128991
-1128951
-1129445
-1129746
-1129958
-1130156
-1130473
-1130870
-1131318
-1131206
-1131193
-1131101
-1131431
-1131643
-1131994
-1132087
-1132229
-1132275
-1132688
-1132608
-1132386
-1132169
-1132289
-1132620
-1132516
-1132620
-1132595
-1132734
-1132892
-1132686
-1132387
-1132049
-1132292
-1132418
-1132411
-1132355
-1132380
-1132597
-1132740
-1132485
-1132184
-1132113
-1132205
-1132381
-1132586
-1132544
-1132382
-1133675
-1133351
-1133089
-1132739
-1132491
-1132740
-1132944
-1132994
-1132955
-1132935
-1133219
-1133510
-1133298
-1133173
-1132979
-1133108
-1133465
-1133577
-1134136
-1133932
-1134178
-1134454
-1134322
-1134187
-1133912
-1134028
-1134423
-1134547
-1134425
-1134639
-1134835
-1135094
-1134934
-1134785
-1134595
-1134831
-1135090
-1135095
-1134964
-1135122
-1135108
-1135148
-1135032
-1134685
-1134578
-1135514
-1135192
-1134969
-1134803
-1134834
-1135104
-1135287
-1135087
-1134713
-1134521
-1134674
-1134872
-1134907
-1134935
-1134987
-1135229
-1135426
-1135221
-1135077
-1134929
-1135001
-1135361
-1135332
-1135360
-1135585
-1135771
-1136097
-1135967
-1135819
-1136076
-1137488
-1138737
-1139333
-1139140
-1139310
-1139457
-1139421
-1139367
-1139336
-1139783
-1140263
-1140304
-1140385
-1140937
-1141012
-1140756
-1141339
-1141358
-1141645
-1141951
-1142214
-1142156
-1142032
-1141823
-1142120
-1142587
-1142583
-1142750
-1142917
-1142910
-1143247
-1143240
-1143112
-1143039
-1143190
-1143509
-1143709
-1143855
-1143944
-1144208
-1144389
-1144427
-1144306
-1144229
-1144162
-1144872
-1144973
-1144954
-1145198
-1145613
-1145927
-1145921
-1145879
-1145856
-1146287
-1146661
-1146855
-1146931
-1147212
-1147600
-1147957
-1148793
-1147930
-1147664
-1148204
-1148587
-1148732
-1149045
-1149178
-1149624
-1150122
-1150049
-1149983
-1149954
-1150350
-1150851
-1151024
-1151345
-1151466
-1151814
-1152320
-1152277
-1151999
-1152072
-1152325
-1152684
-1152739
-1153000
-1153206
-1153484
-1153801
-1153885
-1153767
-1153732
-1154148
-1154574
-1154672
-1154797
-1155072
-1155410
-1156245
-1155783
-1155587
-1155535
-1155938
-1156270
-1156337
-1156543
-1156752
-1157085
-1157481
-1157334
-1157315
-1157316
-1157731
-1158000
-1158125
-1158366
-1158520
-1159096
-1159300
-1159252
-1159197
-1159069
-1159193
-1159492
-1159404
-1159531
-1159516
-1159586
-1159725
-1159420
-1158949
-1158494
-1158408
-1158262
-1157859
-1157333
-1156813
-1156626
-1156094
-1155196
-1154329
-1153263
-1152697
-1152097
-1151022
-1150415
-1149551
-1148940
-1148341
-1147323
-1146084
-1145092
-1144416
-1143700
-1142838
-1141965
-1141217
-1140548
-1139931
-1138988
-1138081
-1137179
-1136749
-1136217
-1135456
-1134899
-1134507
-1134218
-1134021
-1133355
-1132650
-1132305
-1132122
-1132150
-1132045
-1131812
-1131694
-1131734
-1131732
-1131446
-1131168
-1130938
-1131142
-1131297
-1131344
-1131316
-1131285
-1131460
-1131746
-1131624
-1132043
-1131399
-1131528
-1132429
-1132116
-1132086
-1132206
-1132393
-1132672
-1132504
-1132180
-1132034
-1132265
-1132585
-1132606
-1132711
-1132781
-1133117
-1133184
-1132917
-1132821
-1132691
-1132728
-1132800
-1133019
-1132875
-1132828
-1133055
-1132945
-1132746
-1132418
-1132134
-1132105
-1132826
-1132143
-1131962
-1131793
-1131859
-1131810
-1131156
-1130951
-1130689
-1130784
-1130836
-1130716
-1130605
-1130473
-1130551
-1130687
-1130410
-1130026
-1129927
-1130038
-1130166
-1130289
-1130247
-1130339
-1130699
-1130939
-1130864
-1130733
-1130535
-1130904
-1131040
-1131029
-1131186
-1131213
-1131506
-1131690
-1131661
-1131347
-1131124
-1131339
-1131496
-1131452
-1131224
-1131249
-1131289
-1131365
-1131048
-1130621
-1130194
-1130717
-1131654
-1132492
-1132844
-1132773
-1132901
-1132644
-1132192
-1132022
-1131832
-1131951
-1132106
-1131864
-1131582
-1131692
-1131717
-1131847
-1131533
-1131309
-1131035
-1131135
-1131215
-1131168
-1130858
-1130849
-1131023
-1130887
-1130723
-1130441
-1130213
-1130294
-1130516
-1130529
-1130699
-1130689
-1130984
-1131118
-1130786
-1130693
-1130668
-1130776
-1131065
-1130993
-1130943
-1131081
-1131303
-1131292
-1131188
-1130945
-1130892
-1131139
-1131385
-1131531
-1131673
-1132059
-1132608
-1133015
-1133213
-1133333
-1133473
-1134224
-1134734
-1135223
-1135321
-1136129
-1136905
-1137474
-1137724
-1137887
-1137789
-1137823
-1137790
-1137900
-1138069
-1138429
-1138789
-1139046
-1138653
-1138435
-1138350
-1138451
-1138825
-1138991
-1139053
-1139182
-1139701
-1139918
-1139901
-1139956
-1139952
-1140134
-1140635
-1140766
-1140859
-1141068
-1141897
-1141668
-1141730
-1142040
-1143255
-1142569
-1142556
-1142634
-1142953
-1143158
-1143053
-1143077
-1142987
-1143312
-1143592
-1143722
-1143713
-1143846
-1144118
-1144479
-1144286
-1144050
-1144116
-1144502
-1144796
-1144735
-1144986
-1145152
-1145429
-1145418
-1145549
-1145335
-1145414
-1145559
-1145858
-1145922
-1145696
-1146174
-1146482
-1146811
-1146593
-1146401
-1146315
-1146645
-1146973
-1146954
-1147106
-1147280
-1147480
-1147721
-1147627
-1147442
-1147173
-1147365
-1147612
-1147723
-1147834
-1147913
-1148081
-1148361
-1148089
-1147868
-1147904
-1148086
-1148214
-1148184
-1148350
-1148233
-1148728
-1148812
-1148820
-1148402
-1148911
-1148759
-1148839
-1148796
-1148516
-1148813
-1149109
-1149472
-1149373
-1149202
-1149228
-1149422
-1149720
-1149949
-1150123
-1150215
-1150707
-1151028
-1150979
-1150850
-1151053
-1151396
-1151727
-1151847
-1152125
-1152517
-1152832
-1153086
-1153112
-1152954
-1152956
-1153156
-1153433
-1153648
-1153716
-1154034
-1154463
-1154603
-1154512
-1154460
-1154417
-1154682
-1154934
-1154992
-1155257
-1155559
-1155914
-1156747
-1156263
-1156048
-1155952
-1156251
-1156502
-1156731
-1156825
-1156949
-1157203
-1157056
-1157268
-1157154
-1157134
-1157412
-1157678
-1157633
-1157573
-1157556
-1157917
-1157848
-1157496
-1157108
-1156662
-1156633
-1156618
-1156004
-1155618
-1155243
-1154700
-1154146
-1153444
-1152410
-1151472
-1150871
-1150151
-1149230
-1148388
-1147597
-1146748
-1145993
-1144861
-1143543
-1142444
-1141589
-1140775
-1139761
-1138787
-1137987
-1137212
-1136382
-1135205
-1134176
-1133191
-1132313
-1131639
-1130572
-1129759
-1128880
-1128165
-1127479
-1126498
-1125402
-1124355
-1123759
-1123171
-1122352
-1121588
-1121007
-1120640
-1120328
-1120213
-1120215
-1120370
-1120349
-1120348
-1120108
-1119595
-1120125
-1120504
-1120634
-1120556
-1120336
-1120189
-1120334
-1120633
-1120513
-1120568
-1120754
-1121100
-1121416
-1121034
-1120950
-1120900
-1121201
-1121359
-1121338
-1121472
-1121655
-1121842
-1121794
-1121812
-1121590
-1121468
-1121509
-1121682
-1121504
-1121514
-1121589
-1121588
-1121706
-1121354
-1121138
-1120927
-1120859
-1120993
-1120886
-1120870
-1120773
-1120882
-1121042
-1120737
-1120384
-1120298
-1120323
-1120581
-1120329
-1120025
-1120377
-1120737
-1120705
-1120457
-1120279
-1120309
-1120543
-1120691
-1120750
-1120870
-1121101
-1121459
-1121697
-1121800
-1121865
-1121857
-1122277
-1122814
-1123067
-1123465
-1123720
-1124340
-1124626
-1124837
-1124753
-1124985
-1125398
-1125843
-1126009
-1126287
-1126568
-1126999
-1127238
-1127127
-1127040
-1126715
-1127170
-1127331
-1127342
-1127282
-1127457
-1127555
-1127615
-1127334
-1126974
-1126828
-1126901
-1126832
-1126551
-1126278
-1126153
-1126244
-1126201
-1125561
-1125146
-1124766
-1124710
-1124510
-1124322
-1124009
-1123967
-1123935
-1123762
-1123348
-1122883
-1122627
-1122525
-1122351
-1122123
-1121944
-1121730
-1121806
-1121561
-1121190
-1120639
-1120395
-1120047
-1120024
-1119818
-1119506
-1119202
-1118968
-1119015
-1119180
-1118953
-1118853
-1119092
-1119265
-1119286
-1119063
-1118727
-1118706
-1118901
-1119291
-1119273
-1119430
-1120640
-1121121
-1121074
-1121264
-1121637
-1122185
-1122850
-1123247
-1123463
-1123663
-1124045
-1124340
-1124915
-1124790
-1125127
-1125599
-1125788
-1125585
-1125541
-1125679
-1125867
-1126572
-1126712
-1126859
-1127139
-1127720
-1127984
-1127874
-1127890
-1127942
-1128405
-1128711
-1128767
-1129077
-1129227
-1129684
-1129929
-1129920
-1129763
-1129820
-1130217
-1130497
-1130434
-1130668
-1130853
-1131403
-1131541
-1131395
-1131482
-1131565
-1131738
-1132091
-1132074
-1132352
-1132572
-1133142
-1133309
-1133106
-1132956
-1133094
-1133393
-1133731
-1133769
-1133861
-1134074
-1134360
-1134652
-1134461
-1134427
-1134392
-1134600
-1134885
-1135044
-1135178
-1135564
-1136154
-1136404
-1136447
-1136387
-1136376
-1136613
-1136862
-1136984
-1137074
-1137298
-1137733
-1137884
-1137798
-1137652
-1137729
-1138108
-1138265
-1138212
-1138444
-1138605
-1138927
-1139030
-1138846
-1138715
-1138762
-1138853
-1139234
-1139284
-1139585
-1139725
-1140224
-1140453
-1140332
-1140255
-1140323
-1140860
-1141108
-1141304
-1141686
-1141954
-1142304
-1142637
-1142598
-1142603
-1142682
-1142678
-1142866
-1143371
-1143607
-1143948
-1144348
-1144596
-1144154
-1144424
-1144550
-1144893
-1145414
-1145178
-1145270
-1145538
-1145849
-1146164
-1145867
-1145893
-1145953
-1146340
-1146509
-1146507
-1146415
-1146417
-1147035
-1146791
-1146754
-1146805
-1146853
-1147071
-1147369
-1147276
-1147423
-1147638
-1147932
-1147972
-1147911
-1147831
-1147881
-1148226
-1148558
-1148698
-1149020
-1149758
-1150351
-1150851
-1150706
-1150731
-1150695
-1151095
-1151300
-1151453
-1151592
-1151916
-1152443
-1153129
-1152762
-1152429
-1152601
-1152812
-1153010
-1152957
-1152902
-1153156
-1153311
-1153176
-1152754
-1152337
-1151968
-1151738
-1151474
-1150961
-1150372
-1149930
-1149442
-1148809
-1147801
-1146817
-1145896
-1145137
-1144320
-1143366
-1142582
-1141681
-1140938
-1140227
-1138888
-1137929
-1136887
-1136337
-1135592
-1134806
-1134136
-1133487
-1133088
-1132408
-1131547
-1130647
-1130085
-1129727
-1129358
-1128722
-1128338
-1128151
-1128098
-1127906
-1127309
-1126750
-1126552
-1126605
-1126518
-1126344
-1126732
-1126611
-1126781
-1126754
-1126546
-1126324
-1126444
-1126833
-1127014
-1127010
-1127218
-1127355
-1126474
-1126619
-1126480
-1126307
-1126413
-1126522
-1126557
-1126469
-1126069
-1125904
-1126198
-1126270
-1126225
-1126138
-1126283
-1126504
-1126367
-1126058
-1125759
-1125608
-1125741
-1125695
-1125587
-1125432
-1125374
-1125428
-1125300
-1124962
-1124492
-1124152
-1124095
-1123829
-1123544
-1123312
-1122892
-1123100
-1122932
-1122297
-1121787
-1121600
-1121389
-1121268
-1121029
-1120580
-1120549
-1120535
-1120344
-1120003
-1119626
-1119313
-1119461
-1119502
-1119250
-1119203
-1119272
-1119629
-1119480
-1119373
-1119107
-1119135
-1119497
-1119694
-1119662
-1119781
-1120097
-1120279
-1120547
-1120401
-1120320
-1120346
-1120462
-1120693
-1120617
-1120739
-1120945
-1121082
-1121059
-1120730
-1120417
-1120409
-1120564
-1120523
-1120280
-1120143
-1120141
-1120180
-1120011
-1119660
-1119171
-1118710
-1118746
-1118536
-1118250
-1117924
-1117816
-1117810
-1117499
-1117000
-1116439
-1115912
-1115779
-1115641
-1114957
-1114712
-1114475
-1114314
-1114099
-1113336
-1112830
-1112357
-1112230
-1112090
-1111616
-1111435
-1111754
-1112543
-1113192
-1113238
-1113007
-1112721
-1112751
-1112963
-1112980
-1113145
-1113340
-1113671
-1113590
-1113331
-1112997
-1112995
-1113039
-1113611
-1113654
-1113777
-1113884
-1114314
-1114364
-1114308
-1114306
-1114345
-1114588
-1114860
-1115000
-1115100
-1115488
-1115867
-1116060
-1115944
-1115847
-1115921
-1116469
-1116853
-1116878
-1116835
-1117297
-1117817
-1118064
-1117999
-1118061
-1118192
-1118786
-1119028
-1119297
-1119470
-1119821
-1120217
-1120448
-1120458
-1120304
-1120501
-1120912
-1121296
-1121318
-1121537
-1121999
-1122383
-1122696
-1122638
-1122572
-1122628
-1122705
-1123269
-1123579
-1123741
-1123998
-1124467
-1124612
-1124585
-1124423
-1124570
-1124806
-1125107
-1125104
-1125093
-1125532
-1125907
-1126099
-1125857
-1125991
-1126138
-1126587
-1126919
-1126901
-1127201
-1127524
-1127841
-1128015
-1127912
-1127806
-1127917
-1128317
-1128380
-1128429
-1128617
-1128902
-1129272
-1129494
-1129226
-1129016
-1129136
-1129648
-1129810
-1129821
-1130047
-1130258
-1130722
-1130976
-1130808
-1130767
-1130704
-1131009
-1131247
-1131420
-1131480
-1131843
-1132231
-1132346
-1132284
-1132120
-1132239
-1132584
-1132902
-1133035
-1133192
-1133419
-1133869
-1133885
-1133841
-1133759
-1133899
-1134252
-1134584
-1134601
-1134717
-1135028
-1135471
-1135674
-1135500
-1135319
-1135493
-1135860
-1136195
-1136125
-1136274
-1136484
-1136939
-1137158
-1137064
-1137052
-1137068
-1137204
-1137632
-1137941
-1138180
-1138512
-1138992
-1139089
-1139021
-1138998
-1139199
-1139510
-1139843
-1140022
-1140292
-1140645
-1141081
-1141124
-1141106
-1140999
-1141191
-1141519
-1141727
-1141748
-1141977
-1142255
-1142680
-1142823
-1142583
-1142482
-1142773
-1143155
-1143355
-1143582
-1143811
-1143987
-1144490
-1144799
-1144552
-1144604
-1144783
-1145176
-1145461
-1145584
-1145858
-1146168
-1146646
-1146910
-1146664
-1146767
-1146963
-1147297
-1147641
-1147906
-1148235
-1148658
-1149091
-1149298
-1149350
-1149376
-1149618
-1149905
-1150282
-1150412
-1150710
-1151243
-1151629
-1151838
-1151755
-1151740
-1152021
-1152479
-1152861
-1153079
-1153344
-1153722
-1154325
-1154600
-1154470
-1154354
-1154348
-1154588
-1154805
-1154520
-1154412
-1154499
-1154507
-1154276
-1153587
-1152936
-1152387
-1152067
-1151522
-1150766
-1149799
-1149441
-1148909
-1148175
-1147073
-1145985
-1144853
-1144155
-1143509
-1142494
-1141493
-1140602
-1140119
-1139150
-1138048
-1136858
-1136042
-1135306
-1134575
-1133778
-1132848
-1132225
-1131390
-1130431
-1129250
-1128148
-1127376
-1127080
-1126644
-1126231
-1125670
-1125343
-1124903
-1124750
-1124129
-1123747
-1123528
-1123453
-1123423
-1123169
-1123157
-1123139
-1123229
-1123334
-1122931
-1122662
-1122549
-1122737
-1122801
-1122826
-1122805
-1122909
-1123266
-1123004
-1122934
-1122912
-1122842
-1123108
-1123208
-1123196
-1123277
-1123375
-1123747
-1123616
-1123212
-1122978
-1122947
-1123178
-1123030
-1123027
-1122822
-1122853
-1122874
-1122980
-1122563
-1122177
-1122202
-1122350
-1122153
-1121950
-1121689
-1121749
-1121776
-1121673
-1121230
-1120662
-1120502
-1120433
-1120318
-1120127
-1119843
-1119830
-1119874
-1120225
-1119385
-1118849
-1118562
-1118604
-1118571
-1118347
-1118338
-1118290
-1118374
-1118268
-1118038
-1117716
-1117755
-1117980
-1118033
-1118084
-1118133
-1118280
-1118571
-1118743
-1118584
-1118490
-1119330
-1119078
-1119174
-1119133
-1119279
-1119471
-1119898
-1120143
-1119990
-1119777
-1120019
-1120200
-1120419
-1120562
-1120602
-1120779
-1121172
-1121399
-1121212
-1121032
-1120967
-1121236
-1121143
-1120775
-1120713
-1120781
-1121010
-1120935
-1120530
-1120198
-1120257
-1120446
-1120427
-1120337
-1120172
-1120155
-1119677
-1119625
-1119470
-1119290
-1119388
-1119446
-1119315
-1118973
-1118529
-1118391
-1118464
-1118606
-1118303
-1118232
-1118449
-1118558
-1118467
-1118146
-1117913
-1117974
-1118105
-1118142
-1118090
-1118153
-1118392
-1118618
-1118570
-1118308
-1118251
-1118162
-1118459
-1118609
-1118783
-1118888
-1119001
-1119268
-1119473
-1119251
-1119241
-1119242
-1119442
-1119672
-1119676
-1119829
-1120097
-1120547
-1120761
-1120428
-1120384
-1120397
-1120755
-1120945
-1121103
-1121228
-1121514
-1121993
-1122280
-1122142
-1121959
-1122274
-1122524
-1122793
-1122932
-1123175
-1123523
-1123917
-1124211
-1124052
-1124104
-1124169
-1124607
-1124879
-1124898
-1125048
-1125410
-1125792
-1126084
-1125843
-1125831
-1126013
-1126293
-1126641
-1127400
-1128071
-1128082
-1128362
-1128780
-1128969
-1129177
-1129423
-1129632
-1130037
-1130193
-1130072
-1129766
-1130156
-1130572
-1130945
-1130948
-1131141
-1131262
-1131730
-1131764
-1131605
-1131559
-1131542
-1131928
-1132251
-1132289
-1132400
-1132543
-1133003
-1133021
-1132904
-1132615
-1132731
-1133107
-1133232
-1133185
-1133180
-1133588
-1133930
-1133912
-1133799
-1133589
-1133669
-1133905
-1134297
-1134300
-1134474
-1134765
-1135078
-1135195
-1135102
-1135159
-1135293
-1135749
-1135894
-1136027
-1136250
-1136438
-1136967
-1137140
-1136985
-1136960
-1137142
-1137617
-1137865
-1138060
-1138171
-1138607
-1139000
-1139136
-1139119
-1139089
-1139151
-1139261
-1139681
-1139888
-1140135
-1140315
-1140849
-1140983
-1140757
-1140707
-1141093
-1141490
-1141622
-1141691
-1142068
-1142389
-1142512
-1142490
-1142447
-1142501
-1142830
-1143092
-1143232
-1143443
-1143773
-1144256
-1144556
-1144513
-1144252
-1144569
-1145024
-1145320
-1145425
-1145759
-1146024
-1146460
-1146725
-1146745
-1146637
-1146881
-1147273
-1147478
-1147590
-1147803
-1148227
-1148768
-1148912
-1148878
-1148791
-1148928
-1149501
-1149847
-1149919
-1150228
-1150631
-1150965
-1151090
-1151061
-1151049
-1151155
-1151594
-1152000
-1152052
-1152181
-1152623
-1153186
-1153395
-1153226
-1153258
-1153486
-1154027
-1154357
-1154448
-1154787
-1155088
-1155603
-1155894
-1155899
-1155756
-1155954
-1156360
-1156816
-1156900
-1157052
-1157257
-1157521
-1157882
-1157540
-1157522
-1157524
-1157910
-1158078
-1158063
-1158052
-1158148
-1158397
-1158323
-1157939
-1157618
-1157478
-1157642
-1157431
-1156996
-1156586
-1156148
-1155825
-1155385
-1154395
-1153339
-1152658
-1152104
-1151416
-1150241
-1149410
-1148703
-1147830
-1146759
-1145659
-1144290
-1143390
-1142702
-1141791
-1140791
-1139934
-1139153
-1138620
-1137816
-1136715
-1135894
-1135124
-1134751
-1134087
-1133579
-1133141
-1132835
-1132615
-1132114
-1131378
-1130981
-1130653
-1130585
-1130277
-1130032
-1129811
-1129798
-1129766
-1129632
-1129150
-1128852
-1128914
-1129052
-1129016
-1129128
-1129325
-1129520
-1129622
-1129241
-1129228
-1129438
-1129695
-1129908
-1130077
-1130255
-1130530
-1130929
-1131170
-1130990
-1131045
-1131326
-1131624
-1131831
-1131958
-1133285
-1132848
-1133115
-1133125
-1133069
-1132736
-1132818
-1132950
-1133173
-1133024
-1133084
-1133213
-1133280
-1133283
-1132719
-1132230
-1132173
-1132220
-1132267
-1132159
-1132029
-1131939
-1132033
-1132050
-1131604
-1131257
-1131286
-1131314
-1131409
-1131323
-1131222
-1131304
-1131405
-1131389
-1130968
-1130801
-1130849
-1131107
-1131113
-1131015
-1131050
-1131214
-1131471
-1131327
-1130963
-1130760
-1130733
-1130992
-1131115
-1130873
-1130875
-1131135
-1131268
-1131257
-1131147
-1130980
-1130927
-1131237
-1131380
-1131211
-1131167
-1131441
-1131596
-1131681
-1131365
-1131067
-1131201
-1131461
-1131520
-1131676
-1131748
-1132069
-1132398
-1132538
-1132213
-1131947
-1131902
-1131965
-1132166
-1132124
-1132139
-1132288
-1132412
-1132409
-1132042
-1131631
-1131655
-1131751
-1131808
-1131749
-1131731
-1131879
-1132115
-1132055
-1131596
-1131384
-1131467
-1131804
-1131991
-1132018
-1132122
-1132513
-1132788
-1133018
-1132856
-1132699
-1132935
-1133383
-1134431
-1134091
-1134323
-1134568
-1135016
-1135225
-1135356
-1135409
-1135673
-1136254
-1136571
-1136824
-1137252
-1137800
-1138321
-1138715
-1138687
-1138931
-1139246
-1139793
-1140303
-1140663
-1140546
-1140339
-1139917
-1139527
-1139419
-1139378
-1139677
-1140109
-1140138
-1140120
-1140253
-1140568
-1140957
-1141098
-1140850
-1140714
-1140875
-1141418
-1141651
-1141887
-1142239
-1142553
-1142856
-1142991
-1142895
-1142762
-1143158
-1143402
-1143791
-1144059
-1144366
-1144753
-1145094
-1145315
-1145016
-1145003
-1145274
-1145690
-1145818
-1145859
-1145972
-1146260
-1146728
-1146850
-1146652
-1146666
-1146792
-1147220
-1147480
-1147597
-1147735
-1148035
-1148286
-1148421
-1148272
-1148013
-1148030
-1148301
-1148489
-1148278
-1148494
-1148831
-1148617
-1148098
-1147965
-1148037
-1148214
-1148227
-1148138
-1148190
-1148392
-1148543
-1148565
-1148220
-1147908
-1148104
-1148239
-1148426
-1148427
-1148349
-1148376
-1148593
-1148635
-1148465
-1148143
-1148291
-1148400
-1148593
-1148676
-1148607
-1148802
-1149282
-1149274
-1149036
-1148859
-1148920
-1149256
-1149343
-1149524
-1149474
-1149843
-1150258
-1150173
-1149609
-1149684
-1149816
-1150051
-1150362
-1150437
-1150383
-1150499
-1150681
-1150651
-1150385
-1150232
-1150200
-1150348
-1150521
-1150423
-1150331
-1150487
-1150673
-1150460
-1149742
-1149761
-1149794
-1149999
-1149921
-1149948
-1149987
-1150117
-1150319
-1150247
-1149919
-1149808
-1149804
-1150135
-1150358
-1150687
-1151050
-1151656
-1152012
-1152190
-1151937
-1151899
-1151955
-1152254
-1152640
-1152695
-1152938
-1153271
-1153537
-1153698
-1153515
-1153386
-1153589
-1154083
-1154329
-1153899
-1154231
-1154558
-1155007
-1155222
-1155059
-1154876
-1155186
-1155640
-1155867
-1156044
-1156816
-1157022
-1156890
-1156981
-1157250
-1157494
-1158008
-1158192
-1158386
-1158765
-1159241
-1159521
-1159512
-1159437
-1159795
-1160405
-1160763
-1160972
-1161275
-1161754
-1162287
-1162633
-1162516
-1162687
-1163053
-1163477
-1163871
-1163904
-1164348
-1164576
-1165160
-1165399
-1165292
-1165186
-1165540
-1165901
-1166199
-1166479
-1166697
-1167151
-1167467
-1167731
-1167469
-1167487
-1167698
-1167915
-1168163
-1168247
-1168236
-1168242
-1168486
-1168343
-1167859
-1167505
-1167188
-1167181
-1166892
-1166431
-1165902
-1165515
-1164929
-1164252
-1163332
-1162216
-1161550
-1160954
-1160224
-1159326
-1158434
-1157527
-1156760
-1155798
-1155449
-1153467
-1152353
-1151443
-1150561
-1149432
-1148467
-1147830
-1147132
-1146168
-1144986
-1143804
-1143004
-1142573
-1141924
-1141127
-1140421
-1139780
-1139440
-1138722
-1137816
-1137090
-1136662
-1136284
-1135780
-1135335
-1134615
-1134468
-1134362
-1134170
-1133475
-1132808
-1132587
-1132538
-1132426
-1132244
-1132204
-1132240
-1132841
-1133596
-1133745
-1133940
-1134089
-1134118
-1134069
-1134021
-1134043
-1134429
-1135051
-1135288
-1135049
-1134936
-1135082
-1135426
-1135550
-1135522
-1135796
-1136243
-1136570
-1136581
-1136402
-1136376
-1136676
-1137028
-1136842
-1137311
-1137476
-1137984
-1138386
-1138590
-1138478
-1138343
-1138534
-1138967
-1139232
-1139332
-1139377
-1139647
-1140013
-1140124
-1139853
-1139844
-1139990
-1140322
-1140612
-1140635
-1140698
-1141047
-1141157
-1141340
-1141109
-1141065
-1141226
-1141492
-1141513
-1141638
-1141789
-1142004
-1142089
-1142326
-1142151
-1142049
-1142432
-1142642
-1143017
-1143289
-1143375
-1143842
-1144317
-1144527
-1144621
-1144709
-1144997
-1146182
-1146227
-1146375
-1146673
-1147080
-1147570
-1147539
-1146413
-1145807
-1145466
-1145712
-1145864
-1145757
-1145625
-1145584
-1145408
-1145003
-1144716
-1144425
-1144427
-1144634
-1144463
-1144349
-1144144
-1144160
-1144281
-1144228
-1143713
-1143377
-1143347
-1143370
-1143150
-1142912
-1142699
-1142797
-1142731
-1142487
-1141879
-1141488
-1141426
-1141361
-1141469
-1141381
-1141324
-1141597
-1141793
-1141778
-1141649
-1141337
-1141614
-1142015
-1142180
-1142081
-1142233
-1142473
-1142669
-1142637
-1142355
-1142170
-1142112
-1142321
-1142312
-1142110
-1142183
-1142235
-1142288
-1142150
-1141785
-1141455
-1141331
-1141423
-1141413
-1140947
-1140758
-1140547
-1140372
-1140015
-1139815
-1140406
-1141304
-1142146
-1142594
-1142354
-1142620
-1142840
-1143330
-1143594
-1143587
-1143447
-1143885
-1144200
-1144577
-1144606
-1144741
-1145109
-1145485
-1145638
-1145705
-1145754
-1146114
-1146603
-1147197
-1147635
-1148169
-1148854
-1149625
-1150094
-1150310
-1150627
-1151357
-1151893
-1152506
-1152889
-1153435
-1153930
-1154476
-1154640
-1154439
-1154314
-1154336
-1154543
-1154613
-1154414
-1154217
-1154135
-1154063
-1153723
-1153307
-1152731
-1152628
-1152582
-1152462
-1152204
-1152288
-1152932
-1153841
-1154387
-1154099
-1154172
-1154255
-1154542
-1154852
-1154961
-1155059
-1155595
-1155789
-1156311
-1156271
-1156437
-1156827
-1157523
-1157992
-1158325
-1158724
-1159291
-1159795
-1160131
-1160174
-1160084
-1160583
-1161126
-1161321
-1161507
-1161759
-1162128
-1162632
-1162615
-1162542
-1162407
-1162716
-1163192
-1163538
-1163580
-1163734
-1164073
-1164622
-1164831
-1164607
-1164675
-1164886
-1165203
-1165402
-1165648
-1165665
-1166137
-1166479
-1166385
-1166013
-1165341
-1165327
-1165467
-1165758
-1165735
-1165975
-1165787
-1166611
-1166624
-1165912
-1165785
-1166006
-1166154
-1166536
-1167518
-1167095
-1167112
-1167445
-1167340
-1167185
-1166952
-1167093
-1167490
-1167724
-1167755
-1167921
-1168016
-1168519
-1168436
-1168392
-1168127
-1168256
-1168435
-1168725
-1168508
-1168719
-1168991
-1169382
-1169600
-1169280
-1169170
-1169324
-1169285
-1169912
-1170138
-1170231
-1170448
-1170762
-1171948
-1170982
-1170758
-1170833
-1171158
-1171526
-1171465
-1171667
-1172122
-1172554
-1172358
-1172418
-1172319
-1172649
-1173035
-1173268
-1173413
-1173323
-1173860
-1174419
-1174595
-1174372
-1175016
-1174874
-1175094
-1175489
-1175662
-1175823
-1176245
-1176683
-1176819
-1176564
-1176491
-1176724
-1177047
-1177475
-1177542
-1177656
-1178291
-1178407
-1178558
-1178302
-1178285
-1178570
-1178992
-1179174
-1179146
-1179463
-1179847
-1180172
-1180226
-1179740
-1179670
-1179962
-1180118
-1180073
-1179639
-1179715
-1179764
-1179620
-1179236
-1178480
-1177838
-1177419
-1176941
-1176539
-1175650
-1175047
-1174543
-1174012
-1173123
-1171688
-1170117
-1168937
-1168069
-1167236
-1166161
-1165101
-1164276
-1163457
-1162388
-1161783
-1160085
-1158978
-1158114
-1157283
-1156304
-1155459
-1154895
-1154249
-1153421
-1152325
-1151412
-1150708
-1150299
-1149900
-1149347
-1148917
-1148552
-1148508
-1148897
-1147713
-1146987
-1146740
-1146729
-1146637
-1146389
-1146307
-1146287
-1146463
-1146354
-1146038
-1145689
-1145702
-1145712
-1145964
-1146161
-1146157
-1145819
-1145443
-1145812
-1145707
-1146086
-1146567
-1146341
-1146024
-1146102
-1146437
-1146579
-1146588
-1146860
-1147124
-1147975
-1147645
-1147195
-1147045
-1147123
-1147438
-1147519
-1147542
-1147112
-1147478
-1147906
-1147825
-1147462
-1147105
-1147119
-1147306
-1147347
-1147043
-1146986
-1147000
-1147062
-1146441
-1145898
-1145973
-1146039
-1145925
-1145735
-1145585
-1145535
-1145603
-1145425
-1145117
-1144709
-1144672
-1144994
-1145109
-1145026
-1145119
-1145009
-1145427
-1145598
-1145232
-1145589
-1145860
-1145546
-1145856
-1146282
-1146687
-1146778
-1146514
-1146448
-1146648
-1147133
-1147362
-1147305
-1147559
-1147837
-1148371
-1148335
-1148019
-1148071
-1148097
-1148508
-1148724
-1148686
-1148709
-1148860
-1148863
-1148923
-1148511
-1148065
-1147992
-1147859
-1147638
-1147376
-1147104
-1146994
-1147022
-1146655
-1146142
-1145577
-1145428
-1145566
-1145465
-1145155
-1145185
-1145130
-1145440
-1145371
-1145111
-1144927
-1145160
-1145495
-1145484
-1145588
-1145738
-1146062
-1146485
-1146166
-1146321
-1146300
-1146500
-1146651
-1146821
-1147101
-1147380
-1147922
-1148354
-1148287
-1148337
-1148171
-1148389
-1148956
-1149206
-1149342
-1149415
-1149884
-1150326
-1150383
-1150382
-1150348
-1150641
-1150908
-1151209
-1151321
-1151532
-1151921
-1152238
-1152222
-1152133
-1151872
-1152033
-1152302
-1152477
-1152537
-1152544
-1152858
-1153087
-1153137
-1153020
-1152746
-1152845
-1153261
-1153214
-1153252
-1153343
-1153597
-1153753
-1153633
-1153530
-1153196
-1153221
-1153490
-1153457
-1153297
-1153327
-1153466
-1153629
-1153555
-1153472
-1153925
-1154700
-1155467
-1155661
-1155651
-1155525
-1155807
-1155937
-1156067
-1155847
-1155758
-1155975
-1156259
-1156378
-1156296
-1156319
-1156758
-1156756
-1157155
-1156844
-1156814
-1156992
-1157476
-1157735
-1157647
-1157850
-1158197
-1158632
-1158742
-1158671
-1158581
-1158839
-1159092
-1159390
-1159675
-1159791
-1160233
-1160666
-1160922
-1160856
-1160949
-1161210
-1161792
-1162149
-1162240
-1162571
-1163104
-1163800
-1164086
-1164112
-1164140
-1164462
-1165061
-1165424
-1165817
-1166197
-1166889
-1167280
-1167438
-1166874
-1166300
-1166058
-1166206
-1166458
-1166519
-1167560
-1167342
-1167300
-1167241
-1166931
-1166502
-1166371
-1166310
-1166259
-1165924
-1165750
-1165727
-1165543
-1165273
-1164739
-1164457
-1164379
-1164675
-1164775
-1164735
-1164820
-1165207
-1165508
-1165634
-1165440
-1165692
-1165962
-1166026
-1166109
-1166206
-1166338
-1166554
-1166609
-1166451
-1166325
-1166588
-1167026
-1167395
-1167457
-1167697
-1168351
-1168940
-1168993
-1168887
-1168817
-1169116
-1169423
-1169553
-1169447
-1169484
-1169640
-1170065
-1170004
-1169700
-1169409
-1169362
-1169729
-1169781
-1169840
-1169812
-1170010
-1170156
-1170157
-1169791
-1169470
-1169491
-1169706
-1169775
-1169774
-1169986
-1170161
-1170581
-1170500
-1170278
-1170163
-1170419
-1170757
-1170735
-1170856
-1170846
-1171043
-1171292
-1172338
-1171148
-1170838
-1170695
-1170787
-1170932
-1170583
-1170668
-1170804
-1170888
-1170778
-1171346
-1170038
-1170047
-1170467
-1170881
-1171589
-1172229
-1172723
-1173078
-1172860
-1172287
-1171963
-1172269
-1172610
-1172749
-1172272
-1171867
-1171685
-1171640
-1171228
-1170346
-1169504
-1168973
-1168619
-1168048
-1167250
-1166509
-1165720
-1165167
-1164155
-1162896
-1161844
-1160890
-1160171
-1159370
-1158367
-1157598
-1156824
-1156323
-1155362
-1154181
-1153005
-1152258
-1151747
-1151123
-1150304
-1149405
-1148884
-1148536
-1147804
-1146992
-1146105
-1145663
-1145332
-1144886
-1144298
-1143757
-1143695
-1143736
-1143336
-1142729
-1142294
-1142048
-1141912
-1141750
-1141545
-1141425
-1141544
-1141723
-1141632
-1141066
-1140761
-1140774
-1140982
-1141186
-1141151
-1141126
-1141502
-1141718
-1141678
-1141378
-1141356
-1141503
-1141675
-1141960
-1141929
-1142087
-1142399
-1142865
-1142782
-1142583
-1142552
-1142646
-1143099
-1143183
-1143361
-1143080
-1143731
-1144110
-1144158
-1143885
-1143779
-1143970
-1144221
-1144473
-1144575
-1144744
-1145033
-1145313
-1145170
-1144912
-1144718
-1144716
-1144965
-1144998
-1144881
-1144852
-1144923
-1144797
-1144985
-1144572
-1144154
-1144263
-1144315
-1144285
-1144155
-1144054
-1144116
-1144399
-1144286
-1143858
-1143636
-1143807
-1143976
-1144130
-1144197
-1144284
-1144451
-1144516
-1144623
-1144301
-1144096
-1144203
-1144453
-1144492
-1144364
-1144314
-1144547
-1144624
-1144657
-1144479
-1144200
-1144407
-1144447
-1144658
-1144540
-1144645
-1144720
-1144895
-1144896
-1144513
-1144267
-1144309
-1144596
-1144629
-1144405
-1144287
-1144577
-1144661
-1144502
-1144000
-1143706
-1143781
-1143866
-1143824
-1143643
-1143400
-1144526
-1143829
-1143482
-1143031
-1142516
-1142601
-1142721
-1142577
-1142286
-1142373
-1142442
-1142483
-1142164
-1141910
-1141683
-1141734
-1142028
-1142195
-1142082
-1142069
-1142321
-1142545
-1142542
-1142112
-1141842
-1141990
-1142448
-1142499
-1142358
-1142533
-1142836
-1143438
-1143087
-1142743
-1142491
-1142574
-1143303
-1143608
-1143592
-1143361
-1143342
-1143520
-1143727
-1144001
-1144055
-1144310
-1144735
-1145304
-1145376
-1145372
-1145229
-1145693
-1146302
-1146251
-1146649
-1146978
-1147581
-1148059
-1148073
-1148036
-1148751
-1148387
-1148618
-1149017
-1149173
-1149287
-1149597
-1149885
-1150075
-1149900
-1149856
-1149916
-1150222
-1150503
-1150533
-1150696
-1150924
-1151299
-1151389
-1151142
-1150974
-1151249
-1151517
-1151756
-1151881
-1151953
-1152381
-1152676
-1152765
-1152602
-1152697
-1152930
-1153302
-1153498
-1153710
-1154019
-1154420
-1154793
-1154855
-1154907
-1154773
-1154926
-1155451
-1155666
-1155726
-1155819
-1156113
-1156428
-1156345
-1156036
-1155900
-1155851
-1156130
-1156258
-1156253
-1156232
-1156421
-1156530
-1156286
-1155959
-1155513
-1155484
-1155535
-1155514
-1155320
-1155376
-1155430
-1155708
-1155628
-1155579
-1156046
-1157161
-1157747
-1157917
-1157801
-1157719
-1157927
-1158430
-1158644
-1158359
-1158004
-1158073
-1158285
-1158431
-1158586
-1158783
-1159030
-1159286
-1159189
-1159035
-1158842
-1158993
-1159283
-1159475
-1159459
-1159789
-1160056
-1160610
-1160645
-1160529
-1160469
-1160745
-1161241
-1161552
-1161742
-1162028
-1162409
-1162802
-1163045
-1162916
-1162855
-1163241
-1163749
-1164051
-1164377
-1164596
-1164939
-1165410
-1165654
-1165467
-1165417
-1165642
-1166206
-1166570
-1166662
-1166884
-1167291
-1167636
-1167701
-1167604
-1167391
-1167676
-1168060
-1168332
-1168436
-1168684
-1168934
-1169480
-1169647
-1169234
-1169266
-1169541
-1170109
-1170441
-1170470
-1170790
-1171076
-1171710
-1171894
-1171730
-1171698
-1172150
-1172536
-1172811
-1172963
-1173168
-1173688
-1174050
-1174358
-1174264
-1174153
-1174316
-1174771
-1174872
-1174879
-1174848
-1175014
-1174997
-1174806
-1174104
-1173657
-1173398
-1173288
-1173085
-1172617
-1172216
-1171926
-1171531
-1170899
-1169876
-1169081
-1168277
-1167842
-1166997
-1166010
-1165134
-1164439
-1163845
-1162890
-1161651
-1160272
-1159102
-1158553
-1157739
-1156536
-1155624
-1154915
-1154196
-1153275
-1152071
-1150983
-1150143
-1149645
-1149023
-1148256
-1147578
-1147137
-1146762
-1146221
-1145380
-1144740
-1144340
-1144214
-1143891
-1143559
-1143351
-1143399
-1143369
-1143081
-1142650
-1142294
-1142293
-1142455
-1142529
-1142513
-1142618
-1142871
-1143160
-1143173
-1142895
-1142702
-1142825
-1143047
-1143298
-1143333
-1143339
-1143539
-1143782
-1143814
-1143669
-1143410
-1143428
-1143929
-1144077
-1144116
-1144044
-1144293
-1144499
-1144526
-1144217
-1144002
-1143978
-1144229
-1144430
-1143979
-1144175
-1144433
-1144566
-1144488
-1144101
-1143870
-1143942
-1143890
-1143974
-1143811
-1143672
-1143844
-1143865
-1143599
-1143267
-1143077
-1143150
-1143175
-1143069
-1142905
-1142719
-1142866
-1142950
-1142954
-1142527
-1142072
-1141982
-1142330
-1142406
-1142313
-1142307
-1142656
-1142850
-1142985
-1142827
-1142634
-1142716
-1143069
-1143127
-1143046
-1143164
-1143481
-1143767
-1143654
-1143366
-1143267
-1143274
-1143574
-1143551
-1143404
-1143575
-1143651
-1143815
-1143839
-1143219
-1143038
-1142945
-1142986
-1142996
-1142743
-1142632
-1142774
-1142826
-1142738
-1142341
-1141928
-1141981
-1142036
-1141897
-1141717
-1141579
-1141428
-1141563
-1141525
-1141012
-1140474
-1140335
-1140339
-1140219
-1140158
-1140032
-1140026
-1140110
-1140034
-1139816
-1140170
-1140783
-1141435
-1141682
-1141623
-1141431
-1141490
-1141564
-1141460
-1141233
-1141166
-1141398
-1141757
-1141897
-1141788
-1141479
-1141806
-1142223
-1142298
-1142080
-1141851
-1142148
-1142374
-1142803
-1142751
-1142857
-1143150
-1143590
-1143692
-1143452
-1143414
-1143839
-1144128
-1144309
-1144485
-1144750
-1145011
-1145513
-1145555
-1145341
-1145498
-1145847
-1146449
-1146875
-1146950
-1147262
-1147828
-1148289
-1148545
-1148598
-1148773
-1149091
-1149643
-1150080
-1150223
-1150627
-1151010
-1151714
-1152174
-1152206
-1152364
-1152749
-1153227
-1153614
-1153928
-1154165
-1154755
-1155513
-1155825
-1155961
-1156176
-1156527
-1157121
-1157521
-1157772
-1158130
-1158623
-1159118
-1159446
-1159635
-1159659
-1160220
-1160715
-1161266
-1161530
-1161778
-1162333
-1162743
-1163153
-1163244
-1163088
-1162899
-1162786
-1162701
-1162660
-1162737
-1163238
-1163620
-1163641
-1163272
-1163102
-1163111
-1163587
-1163820
-1163997
-1164069
-1164314
-1164559
-1164625
-1164408
-1164264
-1164464
-1164729
-1164921
-1164836
-1165846
-1165500
-1165840
-1165795
-1165345
-1165329
-1165445
-1165725
-1165893
-1165867
-1165782
-1166109
-1166385
-1166492
-1166343
-1166196
-1166285
-1166609
-1166962
-1166923
-1167081
-1167399
-1167603
-1167757
-1167393
-1167195
-1167338
-1167808
-1167827
-1167800
-1167940
-1168211
-1168367
-1168331
-1168178
-1167972
-1168014
-1168348
-1168397
-1168508
-1168570
-1168892
-1169113
-1169244
-1168518
-1168320
-1168834
-1169216
-1169537
-1169534
-1169460
-1169763
-1170004
-1170085
-1169764
-1169325
-1169465
-1169848
-1169933
-1169856
-1169963
-1170108
-1170229
-1170282
-1170049
-1169790
-1169794
-1170152
-1170376
-1170307
-1170022
-1170672
-1171130
-1171204
-1170955
-1170718
-1170904
-1171094
-1171405
-1171341
-1171417
-1171751
-1172029
-1172137
-1171782
-1171619
-1171760
-1171994
-1172134
-1171952
-1171874
-1172065
-1172137
-1172152
-1171688
-1171196
-1170940
-1170767
-1170670
-1170101
-1169631
-1169231
-1168538
-1168047
-1167160
-1166291
-1165477
-1165136
-1164340
-1163411
-1162647
-1162028
-1161484
-1160644
-1159554
-1158414
-1157683
-1157249
-1156328
-1155651
-1155054
-1154620
-1154142
-1153564
-1152769
-1151715
-1151246
-1149854
-1147102
-1146877
-1146799
-1146829
-1146483
-1146230
-1146210
-1146455
-1146079
-1145781
-1145513
-1145543
-1145752
-1145635
-1145588
-1145664
-1145672
-1146164
-1146094
-1145944
-1145764
-1145912
-1146231
-1146626
-1146555
-1146687
-1146952
-1147382
-1147600
-1147348
-1147163
-1147295
-1147816
-1148033
-1148173
-1148298
-1148653
-1149087
-1149152
-1149114
-1149030
-1149086
-1149501
-1149710
-1149647
-1149888
-1150051
-1150392
-1150327
-1150183
-1149928
-1149939
-1150134
-1150407
-1150334
-1150399
-1150500
-1150613
-1150640
-1150209
-1150146
-1150184
-1150355
-1150582
-1150423
-1150499
-1150835
-1151064
-1151242
-1150982
-1150921
-1151161
-1151509
-1151561
-1151868
-1151931
-1152286
-1152664
-1152841
-1152802
-1152747
-1152887
-1153257
-1153499
-1153589
-1153665
-1153875
-1154029
-1154073
-1153761
-1153472
-1153388
-1153471
-1153561
-1153317
-1153300
-1153360
-1153523
-1153482
-1152970
-1152556
-1152557
-1152524
-1152473
-1152449
-1152132
-1152207
-1152303
-1152063
-1151749
-1151339
-1151146
-1151213
-1151234
-1151054
-1150840
-1150940
-1151104
-1150902
-1150525
-1150186
-1149858
-1150254
-1150354
-1150156
-1150049
-1150119
-1150018
-1150308
-1150067
-1149780
-1149720
-1150019
-1150076
-1149970
-1149951
-1150208
-1150424
-1150477
-1150038
-1149831
-1150048
-1150373
-1150389
-1150330
-1150571
-1150822
-1151124
-1151211
-1150804
-1150851
-1150986
-1151197
-1151409
-1151533
-1151678
-1151759
-1152099
-1152160
-1152125
-1151978
-1152131
-1152441
-1152786
-1152759
-1152868
-1153252
-1153537
-1153832
-1153519
-1153947
-1153689
-1153992
-1154358
-1154762
-1154593
-1154763
-1155073
-1155205
-1155036
-1154898
-1155191
-1155464
-1155720
-1155760
-1155853
-1156160
-1156604
-1156810
-1157351
-1156664
-1156604
-1156808
-1157102
-1157302
-1157434
-1157790
-1158097
-1158365
-1158302
-1158279
-1158390
-1158892
-1159040
-1159286
-1159258
-1159775
-1160102
-1160463
-1160166
-1160211
-1160446
-1160898
-1161086
-1161236
-1161485
-1161694
-1161957
-1162104
-1162096
-1162011
-1162081
-1162530
-1162853
-1162828
-1162968
-1163325
-1163537
-1163717
-1163486
-1163491
-1163669
-1163973
-1164086
-1164236
-1164271
-1164523
-1164772
-1164887
-1164732
-1164615
-1164620
-1164933
-1165140
-1165245
-1165357
-1165658
-1166025
-1166210
-1165770
-1165583
-1165707
-1166114
-1166443
-1166491
-1166609
-1166944
-1167271
-1167403
-1167279
-1167136
-1167241
-1167570
-1167764
-1167747
-1168033
-1168310
-1168573
-1168849
-1168621
-1168498
-1168671
-1169099
-1169308
-1169388
-1169522
-1169879
-1170085
-1170375
-1170296
-1170129
-1170395
-1170922
-1171161
-1171238
-1171338
-1171847
-1172206
-1172541
-1172454
-1172477
-1172761
-1173115
-1173340
-1173431
-1173620
-1173938
-1174379
-1174663
-1174382
-1174441
-1174692
-1175009
-1175245
-1175149
-1175196
-1175432
-1175570
-1175557
-1175053
-1174498
-1174328
-1174247
-1173915
-1173363
-1173050
-1173632
-1172660
-1171862
-1170678
-1169729
-1168930
-1168326
-1167706
-1166821
-1166096
-1165553
-1164864
-1164145
-1162888
-1161763
-1161003
-1160428
-1159812
-1158904
-1158357
-1157838
-1157402
-1156822
-1155873
-1154991
-1154388
-1154099
-1153746
-1153199
-1153618
-1152911
-1152616
-1152256
-1151636
-1151157
-1150970
-1150986
-1150882
-1150690
-1150529
-1150491
-1150442
-1150479
-1150027
-1149795
-1149675
-1150792
-1150188
-1149866
-1150016
-1150198
-1150580
-1150623
-1150371
-1150218
-1150401
-1150838
-1151186
-1151251
-1151479
-1151688
-1152149
-1152133
-1151766
-1150998
-1150474
-1150618
-1150831
-1150852
-1151173
-1151516
-1151781
-1151770
-1151510
-1151287
-1151201
-1151668
-1151846
-1151801
-1151897
-1152278
-1152610
-1152776
-1152361
-1152000
-1152080
-1152370
-1152272
-1152117
-1152163
-1152243
-1152473
-1152479
-1152030
-1151729
-1151724
-1151858
-1151930
-1151874
-1151894
-1152135
-1152540
-1152633
-1152460
-1152329
-1152428
-1152612
-1153000
-1153128
-1153153
-1153602
-1153911
-1154220
-1154098
-1153843
-1153859
-1154214
-1154504
-1154469
-1154490
-1154641
-1154819
-1154991
-1154593
-1154159
-1154291
-1154432
-1154391
-1154177
-1154098
-1154245
-1154386
-1154214
-1153595
-1153300
-1153114
-1153033
-1152880
-1152514
-1152278
-1152402
-1152382
-1152324
-1151798
-1151245
-1151055
-1151047
-1151073
-1150755
-1150620
-1150735
-1150772
-1150619
-1150070
-1149606
-1149471
-1149613
-1149667
-1149403
-1149220
-1149298
-1149386
-1149484
-1149140
-1148666
-1148674
-1148909
-1148843
-1148891
-1148802
-1149037
-1149132
-1149364
-1148957
-1148829
-1148860
-1149181
-1149350
-1149402
-1149503
-1149633
-1149971
-1150089
-1149958
-1149918
-1149970
-1150275
-1150537
-1150719
-1150927
-1152045
-1151929
-1151952
-1151676
-1151648
-1151695
-1152098
-1152432
-1152581
-1152726
-1153158
-1153461
-1153631
-1153542
-1153440
-1153648
-1153948
-1154234
-1154152
-1154315
-1154523
-1154866
-1155123
-1154968
-1154770
-1154855
-1155250
-1155476
-1155463
-1155639
-1155860
-1156065
-1156211
-1155960
-1155933
-1156069
-1156281
-1156522
-1156531
-1156685
-1156942
-1157428
-1157470
-1157290
-1157223
-1157420
-1157633
-1157958
-1157904
-1158078
-1158386
-1158691
-1158814
-1158708
-1158549
-1158660
-1158975
-1159101
-1159188
-1159243
-1159460
-1159787
-1159932
-1159734
-1159598
-1159753
-1160210
-1160442
-1160382
-1160524
-1160721
-1161111
-1161457
-1161179
-1161011
-1161041
-1161498
-1161781
-1161587
-1161802
-1162097
-1162268
-1162386
-1162163
-1161837
-1161879
-1162086
-1162106
-1161984
-1162166
-1162031
-1162558
-1162697
-1162391
-1162490
-1162558
-1162707
-1162853
-1163139
-1163266
-1163046
-1162560
-1162742
-1163053
-1163204
-1163298
-1163313
-1163420
-1163943
-1163903
-1163794
-1163617
-1163591
-1164018
-1164133
-1164973
-1164376
-1164589
-1164795
-1164932
-1164708
-1164381
-1164473
-1164623
-1164776
-1164573
-1164368
-1164556
-1164506
-1164250
-1163582
-1162885
-1162328
-1162147
-1161730
-1160901
-1160199
-1159699
-1159195
-1158565
-1157505
-1156391
-1155376
-1154803
-1153994
-1153111
-1152120
-1151416
-1150869
-1149959
-1148889
-1147715
-1146749
-1146177
-1145473
-1144749
-1144031
-1143406
-1142917
-1142152
-1141260
-1140401
-1139729
-1139331
-1138819
-1138308
-1137840
-1137613
-1137389
-1136986
-1136640
-1135787
-1135346
-1135830
-1135383
-1134997
-1134804
-1134837
-1134870
-1134725
-1134377
-1133820
-1133954
-1134104
-1134250
-1134309
-1134239
-1134391
-1134743
-1134819
-1134563
-1134367
-1134466
-1134601
-1134841
-1134881
-1134891
-1135025
-1135561
-1135725
-1135513
-1135257
-1135535
-1135838
-1136181
-1136313
-1137079
-1136977
-1137111
-1136913
-1136537
-1136772
-1136897
-1137104
-1137394
-1137289
-1137213
-1137404
-1137677
-1137567
-1137325
-1137025
-1136796
-1136881
-1136826
-1136569
-1136452
-1136164
-1136445
-1136478
-1136137
-1135788
-1135749
-1135881
-1136092
-1135878
-1135988
-1136302
-1136564
-1136693
-1136452
-1136380
-1136501
-1136735
-1136966
-1137114
-1137167
-1137348
-1137598
-1137747
-1137631
-1137403
-1137416
-1137681
-1137766
-1137746
-1137573
-1137652
-1137765
-1137722
-1137374
-1136853
-1136616
-1136624
-1136488
-1136162
-1135823
-1135608
-1135249
-1135219
-1134545
-1133906
-1133468
-1133271
-1133096
-1132703
-1132307
-1131777
-1131733
-1131572
-1130863
-1130363
-1129924
-1129892
-1129608
-1129349
-1129046
-1129074
-1129688
-1130513
-1130736
-1130683
-1130557
-1130523
-1130259
-1130004
-1130095
-1130329
-1130766
-1130790
-1130416
-1129958
-1129689
-1129816
-1129872
-1130428
-1130111
-1130127
-1130522
-1130542
-1130256
-1130239
-1130333
-1131142
-1130983
-1131154
-1131406
-1131909
-1131950
-1132009
-1131859
-1132066
-1132520
-1132828
-1133010
-1133214
-1133464
-1133992
-1134235
-1134045
-1134063
-1134149
-1134550
-1135074
-1135080
-1136126
-1135980
-1136337
-1136572
-1136433
-1136427
-1136623
-1137066
-1137451
-1137501
-1137831
-1138157
-1138505
-1138614
-1138419
-1138355
-1138496
-1138759
-1139073
-1139055
-1139197
-1139486
-1139747
-1139939
-1139813
-1139628
-1139513
-1139926
-1140256
-1140322
-1140372
-1140546
-1140970
-1141187
-1141009
-1140827
-1140856
-1141307
-1141662
-1141669
-1141870
-1142041
-1142472
-1142666
-1142532
-1142301
-1143196
-1143104
-1143227
-1143347
-1143542
-1143763
-1144206
-1144416
-1144106
-1143979
-1144235
-1144436
-1144717
-1144610
-1144786
-1144918
-1145395
-1145573
-1145237
-1145204
-1145456
-1145731
-1145691
-1145714
-1145739
-1146132
-1146149
-1145839
-1145691
-1145636
-1146025
-1146245
-1146167
-1146176
-1146277
-1146613
-1146603
-1146688
-1146425
-1146427
-1146738
-1147068
-1146918
-1146900
-1147256
-1147470
-1147543
-1147319
-1147238
-1147187
-1147388
-1147647
-1147449
-1147566
-1147668
-1148062
-1148174
-1147860
-1147726
-1147591
-1147851
-1147731
-1147548
-1147382
-1147274
-1147205
-1146996
-1146246
-1145490
-1144965
-1144607
-1144134
-1143355
-1142824
-1142263
-1141559
-1140944
-1139746
-1138714
-1137764
-1137070
-1136355
-1135408
-1134585
-1133724
-1133224
-1132411
-1131260
-1130180
-1129329
-1128608
-1128078
-1127346
-1126572
-1125981
-1125494
-1124906
-1123892
-1123100
-1122426
-1122231
-1121787
-1121277
-1120813
-1120755
-1121862
-1121302
-1121232
-1120938
-1120625
-1120324
-1120158
-1119784
-1119679
-1119653
-1119880
-1119941
-1119575
-1119442
-1119238
-1119365
-1119429
-1118954
-1119191
-1119442
-1119710
-1119392
-1119399
-1119618
-1119471
-1119626
-1119754
-1119783
-1119787
-1119983
-1120318
-1120447
-1120255
-1120182
-1120052
-1120310
-1120440
-1120549
-1120599
-1120684
-1120927
-1120942
-1120450
-1120239
-1120116
-1120218
-1120284
-1120045
-1120056
-1120031
-1120124
-1120030
-1119631
-1119149
-1119014
-1119057
-1118994
-1118755
-1118620
-1118706
-1118808
-1118342
-1118111
-1117686
-1117494
-1117612
-1117744
-1117476
-1117502
-1117514
-1117808
-1117812
-1117411
-1117225
-1117150
-1117369
-1117471
-1117488
-1117727
-1117998
-1118108
-1118333
-1118085
-1117984
-1117690
-1118240
-1118485
-1118553
-1118696
-1118794
-1119211
-1119288
-1119033
-1118793
-1118814
-1118988
-1119190
-1119157
-1119129
-1119286
-1119499
-1119611
-1119283
-1118928
-1118796
-1118900
-1118971
-1118790
-1118724
-1118606
-1118904
-1118869
-1118337
-1117945
-1117907
-1117796
-1117923
-1117620
-1117560
-1117429
-1117585
-1117509
-1117028
-1116648
-1116492
-1116474
-1116537
-1116391
-1116257
-1116164
-1116304
-1116276
-1115885
-1115722
-1115560
-1115776
-1115854
-1115616
-1115667
-1115762
-1116046
-1116087
-1115845
-1116204
-1115441
-1115532
-1115714
-1115586
-1115696
-1115684
-1116618
-1116369
-1116107
-1115851
-1115965
-1116167
-1116329
-1116238
-1116492
-1116935
-1117232
-1117436
-1117378
-1117347
-1117425
-1117685
-1118048
-1118208
-1118353
-1118641
-1119079
-1119219
-1119066
-1119022
-1119066
-1119439
-1119809
-1119766
-1119828
-1120069
-1120393
-1120619
-1120478
-1120308
-1120232
-1120352
-1120616
-1120524
-1120607
-1120804
-1121064
-1121066
-1120884
-1120539
-1120450
-1120719
-1120922
-1120838
-1120855
-1120847
-1121070
-1121000
-1120684
-1120480
-1120302
-1120477
-1120667
-1120405
-1120503
-1120487
-1120774
-1120711
-1120546
-1120355
-1120397
-1120614
-1120898
-1120992
-1121097
-1121246
-1121775
-1121846
-1121776
-1121727
-1121928
-1122218
-1122593
-1122737
-1122919
-1123197
-1123744
-1123919
-1123954
-1124016
-1124066
-1124449
-1124764
-1124918
-1125159
-1125416
-1125925
-1126222
-1126288
-1126242
-1126285
-1126726
-1127171
-1127422
-1127474
-1127876
-1128506
-1128784
-1128812
-1128931
-1129016
-1129443
-1130052
-1129899
-1130132
-1130803
-1131450
-1131820
-1131798
-1131820
-1132119
-1132783
-1133183
-1133420
-1133630
-1133929
-1134419
-1134888
-1134975
-1135065
-1135180
-1135574
-1135942
-1136062
-1136408
-1136628
-1136956
-1136990
-1136955
-1136650
-1136584
-1136709
-1136910
-1136500
-1136277
-1136808
-1136330
-1135816
-1135178
-1134448
-1133895
-1133693
-1133380
-1132707
-1132132
-1131559
-1131184
-1130502
-1129429
-1128522
-1127797
-1127278
-1126628
-1125701
-1125123
-1124558
-1124073
-1123443
-1122637
-1121939
-1121218
-1121003
-1120566
-1119890
-1118704
-1117568
-1116635
-1115936
-1115646
-1115074
-1114616
-1114289
-1113797
-1113294
-1112955
-1112845
-1112942
-1112873
-1112432
-1111857
-1111697
-1111728
-1111752
-1111754
-1111632
-1111626
-1111827
-1111760
-1111504
-1111350
-1111270
-1111570
-1111721
-1111546
-1111653
-1111728
-1111968
-1111914
-1111724
-1111406
-1111323
-1111502
-1111653
-1111404
-1111332
-1111019
-1111409
-1111508
-1111284
-1111079
-1110976
-1111115
-1111064
-1110875
-1110709
-1110683
-1110779
-1110737
-1110398
-1110047
-1109816
-1109742
-1109781
-1109427
-1109348
-1109116
-1109201
-1109082
-1108644
-1108156
-1108048
-1107903
-1107809
-1107668
-1107547
-1107522
-1107535
-1107499
-1107028
-1107296
-1106859
-1106810
-1106880
-1107601
-1107021
-1107068
-1107315
-1107250
-1107185
-1106987
-1106975
-1107263
-1107492
-1107496
-1107700
-1107880
-1108229
-1108425
-1108261
-1108245
-1108849
-1108614
-1108685
-1108306
-1108593
-1108741
-1109090
-1109214
-1108913
-1108761
-1108602
-1108729
-1108714
-1108644
-1108428
-1108440
-1108442
-1108397
-1108060
-1107531
-1107362
-1107443
-1107384
-1107124
-1106789
-1106588
-1106596
-1106563
-1106168
-1105814
-1105558
-1105527
-1105315
-1105193
-1104875
-1104871
-1104943
-1104800
-1104394
-1104002
-1103939
-1104131
-1104064
-1104036
-1103856
-1103922
-1104188
-1104289
-1103951
-1103793
-1103723
-1104033
-1104158
-1104133
-1104239
-1104261
-1104656
-1104797
-1104755
-1104607
-1104682
-1105031
-1105338
-1105492
-1105727
-1106096
-1106438
-1106714
-1106804
-1106705
-1106929
-1107215
-1107682
-1107735
-1108091
-1108332
-1108830
-1109096
-1109190
-1109260
-1109437
-1109888
-1110090
-1110422
-1110448
-1111033
-1111523
-1111988
-1111992
-1112070
-1112338
-1112605
-1113244
-1113312
-1113602
-1113868
-1114273
-1114706
-1114877
-1114900
-1115015
-1115440
-1115991
-1116068
-1116300
-1116548
-1117135
-1117349
-1117380
-1117343
-1117373
-1117669
-1117950
-1118026
-1118073
-1118461
-1118705
-1118956
-1118786
-1118666
-1118624
-1118993
-1119158
-1119352
-1119346
-1119599
-1119895
-1120034
-1119890
-1119771
-1119789
-1120092
-1120371
-1120404
-1120630
-1120906
-1121127
-1121427
-1121310
-1121199
-1121268
-1121684
-1122060
-1122129
-1122282
-1122326
-1122854
-1123003
-1123049
-1122951
-1122822
-1123117
-1123416
-1123083
-1123373
-1123559
-1123826
-1124123
-1123912
-1123634
-1123603
-1123768
-1124007
-1123965
-1123762
-1123961
-1123816
-1124053
-1123833
-1123640
-1123488
-1123695
-1123897
-1123880
-1123787
-1123738
-1124039
-1124082
-1123988
-1123746
-1123720
-1123894
-1124203
-1124257
-1124196
-1124197
-1124435
-1124726
-1124723
-1124865
-1124664
-1124870
-1125037
-1125169
-1125115
-1125316
-1125493
-1125677
-1125455
-1125324
-1125368
-1125650
-1125958
-1126132
-1126161
-1126286
-1126568
-1126797
-1126692
-1126656
-1126723
-1127043
-1127142
-1127136
-1127197
-1127195
-1127361
-1128083
-1127297
-1126933
-1126491
-1126459
-1126430
-1126000
-1125642
-1125179
-1125046
-1124551
-1123869
-1122948
-1122139
-1121617
-1120923
-1120277
-1119358
-1118697
-1118079
-1117297
-1116334
-1115346
-1114284
-1113867
-1113159
-1112273
-1111438
-1110795
-1110244
-1109678
-1108841
-1108005
-1107192
-1106827
-1106332
-1105708
-1105146
-1104637
-1104395
-1104001
-1103484
-1103383
-1102618
-1102456
-1102268
-1101966
-1101708
-1101665
-1101738
-1101654
-1101480
-1101132
-1100868
-1101103
-1101252
-1101258
-1101210
-1101329
-1101328
-1101582
-1101365
-1101717
-1101846
-1102058
-1102140
-1101835
-1101584
-1101557
-1101670
-1101845
-1101743
-1101576
-1101493
-1101561
-1101583
-1101335
-1101094
-1100732
-1100800
-1100842
-1100676
-1100372
-1100340
-1100454
-1100369
-1099822
-1099495
-1099174
-1099002
-1098916
-1098591
-1098307
-1098150
-1098186
-1098075
-1097552
-1097210
-1096825
-1096888
-1096921
-1096760
-1097023
-1097533
-1097969
-1098145
-1097664
-1097352
-1097115
-1097347
-1097388
-1097559
-1097666
-1097887
-1098300
-1098787
-1098696
-1099624
-1098885
-1099083
-1099236
-1099668
-1099951
-1100297
-1100722
-1101106
-1101253
-1101239
-1101398
-1101823
-1102226
-1102548
-1102786
-1103125
-1103442
-1103778
-1103740
-1103625
-1103526
-1103851
-1104071
-1104101
-1104154
-1104201
-1104322
-1104442
-1104278
-1103934
-1103773
-1103916
-1103958
-1103693
-1103714
-1103538
-1103705
-1103633
-1103378
-1102992
-1102662
-1102727
-1102836
-1102574
-1102627
-1102483
-1102600
-1102703
-1102523
-1102205
-1102018
-1102357
-1102585
-1102461
-1102419
-1102503
-1102876
-1103035
-1103025
-1102971
-1102807
-1103172
-1103498
-1103666
-1103648
-1104007
-1104316
-1104606
-1104740
-1104760
-1104709
-1105082
-1105587
-1105775
-1105945
-1106320
-1106789
-1107219
-1107360
-1107280
-1107446
-1107887
-1108147
-1108422
-1108642
-1109024
-1109513
-1109807
-1109898
-1109806
-1109966
-1110211
-1110661
-1110737
-1110886
-1111005
-1111551
-1111800
-1111761
-1111770
-1111697
-1111943
-1112342
-1112442
-1112530
-1112597
-1112918
-1113482
-1113465
-1113983
-1113518
-1113550
-1113982
-1114253
-1114471
-1114430
-1114906
-1114727
-1114940
-1114834
-1114620
-1114808
-1115117
-1115062
-1115193
-1115292
-1115619
-1115712
-1115585
-1115298
-1115244
-1115380
-1115417
-1115617
-1115585
-1115672
-1115720
-1115787
-1115731
-1115457
-1115256
-1115333
-1115524
-1115427
-1115389
-1115400
-1115720
-1115842
-1115700
-1115521
-1115218
-1115382
-1115593
-1115625
-1115608
-1115824
-1116085
-1116338
-1116231
-1115924
-1115860
-1116177
-1116442
-1116394
-1116552
-1116720
-1116863
-1117139
-1117060
-1116818
-1116493
-1117122
-1117412
-1117561
-1117569
-1117723
-1118124
-1118406
-1118257
-1118111
-1117960
-1118317
-1118594
-1118620
-1118746
-1119009
-1119397
-1119744
-1119618
-1119498
-1119482
-1119758
-1120229
-1120284
-1120516
-1120733
-1121117
-1121300
-1121433
-1121390
-1121199
-1121603
-1122006
-1122208
-1122232
-1122328
-1122944
-1123275
-1123375
-1123377
-1123287
-1123639
-1124100
-1124294
-1124625
-1124968
-1125374
-1125687
-1125767
-1125736
-1125825
-1126178
-1126561
-1126984
-1127185
-1127470
-1127994
-1128334
-1128473
-1128521
-1128415
-1128951
-1129288
-1129500
-1129469
-1129696
-1130044
-1130225
-1129954
-1129723
-1129312
-1129296
-1128988
-1128787
-1128551
-1128176
-1127942
-1127596
-1126726
-1125959
-1125077
-1124521
-1123970
-1123062
-1122347
-1121563
-1120841
-1120081
-1119159
-1118141
-1117105
-1116360
-1115723
-1114904
-1114152
-1113492
-1112916
-1112378
-1111530
-1110602
-1109775
-1109265
-1108903
-1108418
-1108019
-1107625
-1108112
-1107359
-1106520
-1105833
-1105330
-1105279
-1105054
-1104803
-1104492
-1104419
-1104366
-1104441
-1104042
-1103639
-1103291
-1103361
-1103435
-1103113
-1103047
-1103144
-1103445
-1103361
-1103121
-1102903
-1102472
-1102474
-1102637
-1102347
-1101991
-1102001
-1102059
-1102120
-1101718
-1101218
-1100793
-1100711
-1100802
-1100481
-1100173
-1099977
-1099994
-1099947
-1099555
-1098989
-1098495
-1098419
-1098300
-1098062
-1097623
-1097483
-1097382
-1095608
-1095461
-1095038
-1094743
-1094791
-1094705
-1094433
-1093751
-1093341
-1093235
-1093348
-1093177
-1092952
-1092734
-1092960
-1092905
-1092675
-1092239
-1092133
-1092197
-1092469
-1092393
-1092518
-1092570
-1092840
-1093137
-1093164
-1092947
-1092880
-1093190
-1093580
-1093767
-1093920
-1094066
-1094594
-1094957
-1095057
-1094681
-1094625
-1094854
-1095259
-1095507
-1095493
-1095538
-1095912
-1096098
-1096051
-1095789
-1095371
-1095673
-1095808
-1095925
-1095721
-1095826
-1095858
-1096084
-1095891
-1095568
-1095266
-1095298
-1095371
-1095388
-1095080
-1095081
-1095254
-1095320
-1095021
-1094704
-1094265
-1094243
-1094330
-1094356
-1094206
-1094068
-1094291
-1094299
-1094179
-1093744
-1093308
-1093413
-1093819
-1093855
-1093787
-1093764
-1094056
-1094195
-1094057
-1093771
-1093668
-1093929
-1094266
-1094307
-1094312
-1094595
-1094925
-1095193
-1095142
-1094979
-1094869
-1095176
-1095541
-1095747
-1095722
-1096017
-1096365
-1096625
-1096632
-1096581
-1096493
-1096687
-1096985
-1097244
-1097438
-1097656
-1098029
-1098445
-1098406
-1098369
-1098469
-1098741
-1099194
-1099342
-1099559
-1099624
-1100029
-1100568
-1100671
-1100511
-1100449
-1100822
-1101148
-1101327
-1101491
-1101610
-1102009
-1102312
-1102512
-1102371
-1102444
-1102579
-1102864
-1103009
-1103250
-1103253
-1103657
-1104110
-1104182
-1104009
-1103717
-1104184
-1104722
-1104918
-1104987
-1105050
-1105464
-1105885
-1105846
-1105725
-1105617
-1105953
-1106353
-1106371
-1106434
-1106526
-1106989
-1107243
-1107254
-1107215
-1107200
-1107392
-1107704
-1107754
-1107958
-1108036
-1108305
-1108705
-1108772
-1108601
-1108456
-1108573
-1108972
-1109070
-1109174
-1109277
-1109674
-1109946
-1109520
-1109477
-1109550
-1109800
-1109969
-1110121
-1110329
-1110337
-1110649
-1111082
-1111225
-1111028
-1110936
-1111199
-1111530
-1111844
-1112000
-1112138
-1112420
-1112927
-1113064
-1112740
-1112775
-1113013
-1113415
-1113561
-1113822
-1114018
-1114415
-1114825
-1114897
-1114729
-1114793
-1115070
-1115386
-1115641
-1115820
-1115984
-1116268
-1116694
-1116752
-1116702
-1116584
-1116813
-1117266
-1117282
-1117384
-1117738
-1118175
-1118340
-1118375
-1118245
-1118150
-1118474
-1118883
-1119156
-1119289
-1120331
-1119733
-1120042
-1120092
-1119931
-1119767
-1119960
-1120331
-1120483
-1120617
-1120839
-1121164
-1121447
-1121406
-1121196
-1121140
-1121409
-1121716
-1121911
-1122120
-1122243
-1122527
-1123017
-1123156
-1123042
-1122937
-1123144
-1123474
-1123760
-1123863
-1124050
-1124476
-1124743
-1124723
-1124732
-1124505
-1124935
-1125331
-1125538
-1125597
-1125891
-1126341
-1126613
-1126786
-1126627
-1126523
-1126884
-1127334
-1127496
-1127648
-1127911
-1128267
-1128596
-1128722
-1128653
-1128600
-1129412
-1129718
-1129927
-1130312
-1130404
-1130342
-1130278
-1130544
-1131007
-1131282
-1131472
-1131714
-1131904
-1132228
-1132417
-1132358
-1132311
-1132743
-1133168
-1133437
-1133548
-1133934
-1134371
-1134813
-1134873
-1134682
-1134598
-1134899
-1135240
-1135402
-1135400
-1135410
-1135624
-1135648
-1135370
-1134720
-1134232
-1133852
-1133671
-1133165
-1132598
-1131855
-1131446
-1130778
-1129868
-1128822
-1127532
-1126753
-1125502
-1124951
-1124052
-1123197
-1122380
-1121561
-1120472
-1119222
-1117856
-1116901
-1116191
-1115390
-1114390
-1113676
-1113079
-1112387
-1111677
-1110634
-1109594
-1109131
-1108778
-1108201
-1107717
-1107197
-1106956
-1106645
-1106102
-1105459
-1105066
-1104768
-1104670
-1104595
-1104475
-1104161
-1104397
-1104353
-1104155
-1103814
-1103598
-1103532
-1103672
-1103852
-1103662
-1103694
-1104030
-1104055
-1103934
-1103749
-1103485
-1103542
-1103878
-1103865
-1103826
-1103842
-1104069
-1104105
-1104135
-1103745
-1103440
-1103597
-1103614
-1103674
-1103580
-1103490
-1103560
-1103455
-1103309
-1102832
-1102401
-1102260
-1102251
-1102781
-1101969
-1101348
-1101347
-1101292
-1100895
-1100378
-1099874
-1099593
-1099543
-1099319
-1098980
-1098402
-1098420
-1098381
-1098105
-1097535
-1096965
-1096792
-1096797
-1096692
-1096458
-1096310
-1096432
-1096560
-1096339
-1095958
-1095699
-1095632
-1095910
-1095937
-1095819
-1095805
-1096055
-1096292
-1096472
-1096445
-1096195
-1096338
-1096775
-1096937
-1097088
-1097259
-1097665
-1098083
-1098372
-1098336
-1098321
-1098488
-1099037
-1099171
-1099305
-1099456
-1099790
-1100290
-1100195
-1100150
-1100135
-1100259
-1100487
-1100639
-1100622
-1100773
-1100930
-1101139
-1101199
-1100828
-1100526
-1100514
-1100685
-1100720
-1100512
-1100677
-1100851
-1100633
-1100239
-1100027
-1099951
-1099981
-1100044
-1099964
-1099936
-1100151
-1100299
-1100364
-1099972
-1099630
-1099731
-1099900
-1100012
-1100070
-1100028
-1100259
-1100512
-1100571
-1100194
-1100031
-1100186
-1100446
-1100644
-1100749
-1100813
-1101152
-1101649
-1101623
-1101454
-1101353
-1101654
-1101945
-1102162
-1102347
-1102529
-1102819
-1103180
-1103351
-1103333
-1103261
-1103595
-1104044
-1104299
-1104304
-1104475
-1104990
-1105387
-1105534
-1105390
-1105489
-1105823
-1106247
-1106511
-1106574
-1106781
-1107165
-1107566
-1107911
-1107791
-1107721
-1107968
-1108295
-1108466
-1108664
-1108881
-1109305
-1109689
-1109834
-1109713
-1109680
-1109923
-1110270
-1110553
-1110608
-1110837
-1111346
-1111664
-1111880
-1111701
-1111530
-1111895
-1112124
-1112290
-1112412
-1112677
-1112940
-1113262
-1113362
-1113205
-1113111
-1113271
-1113515
-1113766
-1113946
-1113919
-1114164
-1114498
-1114609
-1114430
-1114186
-1114435
-1114730
-1114936
-1114842
-1114898
-1115197
-1116186
-1115695
-1115506
-1115205
-1115356
-1115617
-1115964
-1115966
-1116027
-1116321
-1116665
-1116849
-1116668
-1116437
-1116769
-1117142
-1117315
-1117303
-1117495
-1117870
-1118356
-1118363
-1118150
-1118079
-1118454
-1118656
-1118911
-1119021
-1119325
-1119477
-1119933
-1120006
-1119740
-1119660
-1119952
-1120164
-1120470
-1120456
-1120653
-1120942
-1121350
-1121548
-1121361
-1121376
-1121553
-1121966
-1122213
-1122242
-1122579
-1122914
-1123269
-1123352
-1123213
-1123159
-1123358
-1123850
-1124041
-1124231
-1124453
-1124933
-1125190
-1125402
-1125251
-1125165
-1125505
-1125873
-1126237
-1126463
-1126633
-1127064
-1127620
-1127755
-1127570
-1127566
-1127715
-1128030
-1128414
-1128586
-1128686
-1129145
-1129580
-1129795
-1129628
-1129402
-1129642
-1129951
-1130258
-1130353
-1130425
-1130894
-1131131
-1131158
-1130999
-1130760
-1130750
-1131161
-1131442
-1131552
-1131597
-1131910
-1132284
-1132451
-1132085
-1132119
-1132309
-1132642
-1132777
-1132805
-1132986
-1133356
-1133751
-1133752
-1133544
-1133462
-1133658
-1133948
-1134353
-1134297
-1134558
-1134814
-1135326
-1135118
-1135309
-1135818
-1136204
-1137142
-1137237
-1137161
-1137104
-1137262
-1137646
-1137952
-1138024
-1138268
-1138400
-1138781
-1138986
-1138738
-1138797
-1139008
-1139230
-1139559
-1139592
-1139744
-1139924
-1140436
-1140568
-1140502
-1139959
-1140364
-1140829
-1141059
-1141149
-1141228
-1141518
-1141924
-1142022
-1141947
-1141690
-1142024
-1142372
-1142583
-1142507
-1142695
-1142996
-1143379
-1143607
-1143445
-1143232
-1143526
-1143906
-1144236
-1144116
-1144398
-1144778
-1145170
-1145298
-1145275
-1145168
-1145364
-1145653
-1145906
-1146081
-1146247
-1146420
-1146941
-1147023
-1146851
-1146830
-1147131
-1147389
-1147393
-1147376
-1147316
-1148159
-1147892
-1147526
-1147053
-1146507
-1146245
-1146064
-1145615
-1144991
-1144456
-1143840
-1143329
-1142540
-1141416
-1140465
-1139536
-1138837
-1138009
-1136970
-1135867
-1135077
-1134326
-1133378
-1131887
-1130706
-1129864
-1129169
-1128315
-1127317
-1126398
-1125685
-1125136
-1124132
-1123165
-1122335
-1121677
-1121232
-1120745
-1120227
-1119560
-1119229
-1119097
-1119105
-1118182
-1117623
-1117330
-1117372
-1117209
-1116934
-1116827
-1116764
-1116955
-1116898
-1116708
-1116341
-1116450
-1116787
-1116924
-1116762
-1116710
-1116992
-1117263
-1117218
-1117095
-1116872
-1116991
-1117343
-1117465
-1117280
-1117436
-1117730
-1118039
-1118017
-1117639
-1117627
-1117590
-1117803
-1117808
-1117572
-1117273
-1117338
-1117454
-1117298
-1116775
-1116304
-1116192
-1116188
-1116117
-1115739
-1115210
-1115141
-1114922
-1114603
-1113885
-1113447
-1113032
-1112714
-1112384
-1111817
-1111427
-1110775
-1110778
-1110410
-1109713
-1109073
-1108704
-1108440
-1107973
-1107504
-1107028
-1106780
-1106571
-1106189
-1105311
-1104825
-1104515
-1104433
-1104026
-1103644
-1103289
-1103208
-1103256
-1103093
-1102514
-1102278
-1102030
-1102258
-1102266
-1102137
-1102155
-1102333
-1102326
-1102550
-1102429
-1102376
-1103193
-1104783
-1106156
-1106767
-1106711
-1106626
-1106771
-1106944
-1106836
-1106972
-1107517
-1107895
-1107849
-1107761
-1107552
-1107618
-1107846
-1108112
-1107946
-1107742
-1107703
-1107974
-1107859
-1107804
-1107649
-1107681
-1107940
-1107957
-1107652
-1107410
-1107354
-1107481
-1107418
-1107348
-1107210
-1107362
-1107624
-1107430
-1107049
-1106964
-1106944
-1107143
-1107266
-1107188
-1107180
-1107416
-1107567
-1107715
-1107950
-1107452
-1107380
-1107669
-1108046
-1108070
-1108178
-1108474
-1108725
-1108951
-1108747
-1108791
-1109007
-1109511
-1109804
-1109841
-1110209
-1110616
-1111061
-1111385
-1111386
-1111598
-1111796
-1112461
-1112622
-1112966
-1113495
-1113947
-1114645
-1114968
-1115003
-1115283
-1115537
-1116073
-1116249
-1116164
-1115959
-1115731
-1115955
-1116160
-1116299
-1116277
-1116286
-1116435
-1116594
-1116732
-1117007
-1117441
-1117828
-1117913
-1117815
-1117691
-1117956
-1118419
-1118845
-1118808
-1119000
-1119253
-1119651
-1119765
-1119744
-1119604
-1119652
-1119900
-1120056
-1120257
-1120403
-1120734
-1121023
-1121263
-1121078
-1121050
-1121044
-1121317
-1121615
-1121644
-1121725
-1121749
-1122164
-1122204
-1122054
-1121722
-1121904
-1122106
-1122496
-1122485
-1122710
-1122971
-1123461
-1123737
-1123782
-1123808
-1123917
-1124228
-1124547
-1124765
-1124990
-1125312
-1125600
-1125749
-1125446
-1125029
-1124998
-1125153
-1125467
-1125609
-1125852
-1126095
-1126525
-1126638
-1126280
-1126172
-1126137
-1126427
-1126678
-1126767
-1127006
-1127122
-1127565
-1127634
-1127410
-1127263
-1127285
-1127559
-1127713
-1127811
-1127719
-1127890
-1128193
-1128148
-1127775
-1127690
-1127621
-1127767
-1127912
-1127794
-1127896
-1127906
-1128251
-1128284
-1128040
-1127907
-1127853
-1127837
-1128107
-1128317
-1128440
-1128070
-1127867
-1127868
-1127943
-1128002
-1128118
-1128077
-1128215
-1128405
-1128399
-1128107
-1127786
-1127749
-1128597
-1128216
-1128054
-1127991
-1128038
-1128224
-1128178
-1127948
-1127853
-1128216
-1128928
-1129674
-1129990
-1130111
-1130227
-1130534
-1130856
-1131026
-1131113
-1131313
-1131500
-1131845
-1132119
-1132426
-1132720
-1133118
-1133296
-1133253
-1133293
-1133419
-1133806
-1134035
-1134159
-1134413
-1134767
-1135321
-1135519
-1135408
-1135302
-1135447
-1135613
-1136024
-1136282
-1136555
-1136880
-1137392
-1137610
-1137452
-1137308
-1137469
-1137696
-1138158
-1138172
-1138505
-1138865
-1139321
-1139615
-1139403
-1139335
-1139422
-1139837
-1140176
-1140227
-1140491
-1140888
-1141227
-1141348
-1141301
-1141254
-1141545
-1141936
-1142241
-1142171
-1142406
-1142721
-1143103
-1143228
-1143196
-1143121
-1143367
-1143718
-1144109
-1144057
-1144148
-1144571
-1145049
-1145260
-1145122
-1145035
-1145068
-1145471
-1145708
-1145828
-1146080
-1146390
-1146890
-1147220
-1147012
-1147094
-1147258
-1147640
-1147933
-1147993
-1148287
-1148676
-1149286
-1149515
-1149458
-1149360
-1149502
-1149934
-1150373
-1150239
-1150615
-1151203
-1151590
-1152010
-1151951
-1152026
-1152224
-1152620
-1152993
-1153259
-1153546
-1153994
-1154536
-1154933
-1155031
-1155150
-1155281
-1155884
-1156382
-1156691
-1156795
-1157252
-1157903
-1158219
-1158256
-1158492
-1158727
-1159202
-1159644
-1159911
-1160224
-1160721
-1161956
-1161861
-1161823
-1161833
-1162222
-1162945
-1163338
-1163549
-1163922
-1164393
-1164974
-1165272
-1165225
-1165327
-1165467
-1165816
-1166231
-1166210
-1166386
-1166285
-1166059
-1165324
-1164161
-1163396
-1162896
-1162669
-1162329
-1161752
-1160926
-1159960
-1159283
-1158496
-1157225
-1156201
-1155310
-1154562
-1153887
-1152715
-1151506
-1150687
-1149724
-1148791
-1147479
-1146214
-1145144
-1144444
-1143591
-1142575
-1141561
-1141018
-1140449
-1139651
-1138603
-1137529
-1136945
-1136295
-1135865
-1135196
-1134666
-1134269
-1134029
-1133475
-1132874
-1132140
-1131664
-1131415
-1131213
-1130871
-1130740
-1130804
-1130699
-1130624
-1130317
-1129835
-1129613
-1129693
-1129866
-1129605
-1129573
-1129682
-1129864
-1129780
-1129490
-1129239
-1129027
-1129268
-1129323
-1129167
-1129886
-1129388
-1129361
-1129408
-1128937
-1128621
-1128462
-1128630
-1128637
-1128363
-1128250
-1128174
-1128223
-1128164
-1127475
-1127040
-1126802
-1126708
-1126478
-1126086
-1125385
-1125603
-1125550
-1125323
-1124712
-1124090
-1123748
-1123647
-1123358
-1122922
-1122716
-1122423
-1122367
-1122076
-1121475
-1120895
-1120481
-1120314
-1120003
-1119553
-1119349
-1119089
-1119075
-1118820
-1118357
-1117454
-1117442
-1117415
-1117237
-1117081
-1116901
-1116852
-1116959
-1116906
-1116643
-1116321
-1116344
-1116491
-1116656
-1116555
-1116599
-1116917
-1117156
-1117256
-1117162
-1117125
-1117233
-1117384
-1117638
-1117799
-1117982
-1118152
-1118549
-1118554
-1118434
-1118320
-1118472
-1118757
-1118911
-1118907
-1119027
-1119165
-1119607
-1119538
-1119402
-1119265
-1119081
-1119404
-1119495
-1119339
-1119443
-1119562
-1119797
-1119893
-1119562
-1119317
-1119093
-1119210
-1119421
-1119157
-1119257
-1119278
-1119402
-1119603
-1119357
-1118987
-1119002
-1118750
-1119030
-1119100
-1119012
-1119278
-1119415
-1119468
-1119279
-1118978
-1118994
-1119120
-1119352
-1119173
-1119177
-1119327
-1119613
-1119795
-1119541
-1119403
-1119345
-1119716
-1120057
-1119908
-1120078
-1120285
-1120751
-1120926
-1120745
-1120691
-1120801
-1121132
-1121519
-1121575
-1121889
-1122161
-1122560
-1122924
-1122785
-1122771
-1122948
-1123408
-1123886
-1123956
-1124189
-1124342
-1124788
-1125080
-1125149
-1125130
-1125363
-1125810
-1126227
-1126172
-1126422
-1126699
-1126979
-1127275
-1127226
-1127201
-1127473
-1127722
-1128100
-1128081
-1128244
-1128511
-1128909
-1129226
-1129119
-1129151
-1129062
-1129531
-1129863
-1129854
-1129956
-1130277
-1130558
-1130761
-1130648
-1130536
-1130759
-1131043
-1131190
-1131245
-1131264
-1131676
-1131955
-1132163
-1132001
-1132030
-1131944
-1132245
-1132481
-1132492
-1132737
-1132831
-1133249
-1133439
-1133308
-1133283
-1133272
-1133473
-1133585
-1133758
-1133841
-1134306
-1134603
-1134393
-1134310
-1134427
-1134595
-1134929
-1134933
-1135122
-1135391
-1135614
-1135961
-1135791
-1135715
-1136041
-1136287
-1136339
-1136452
-1136665
-1137194
-1137275
-1137202
-1137142
-1137176
-1137513
-1137718
-1137768
-1138025
-1138258
-1138584
-1138795
-1138663
-1138473
-1138479
-1138795
-1139101
-1139223
-1139209
-1139387
-1139803
-1139996
-1139759
-1139747
-1139717
-1140054
-1140136
-1140070
-1140202
-1140344
-1140740
-1140877
-1140738
-1140485
-1140448
-1140710
-1140824
-1140768
-1140893
-1140937
-1141095
-1141359
-1141049
-1140997
-1141092
-1141165
-1141315
-1141218
-1141223
-1141335
-1141839
-1141945
-1141711
-1141535
-1141607
-1141847
-1142135
-1142125
-1142284
-1142464
-1142942
-1142945
-1143048
-1142927
-1142948
-1143235
-1143641
-1143699
-1143819
-1143959
-1144271
-1144472
-1144286
-1144245
-1144254
-1144474
-1144791
-1144788
-1144962
-1145288
-1145536
-1145890
-1145684
-1145513
-1145616
-1145845
-1146267
-1146159
-1146407
-1146558
-1147011
-1147097
-1147026
-1146864
-1146665
-1146880
-1147229
-1147551
-1148627
-1150120
-1151323
-1151865
-1151652
-1151321
-1151237
-1151503
-1151798
-1151984
-1152497
-1152850
-1153310
-1153351
-1153165
-1152869
-1152891
-1153255
-1153620
-1153721
-1154061
-1154323
-1154783
-1155039
-1155657
-1155091
-1154865
-1155129
-1155509
-1155671
-1155732
-1156030
-1156528
-1156885
-1156842
-1156676
-1156706
-1156959
-1157285
-1157411
-1157578
-1157888
-1158363
-1158714
-1158580
-1158536
-1158465
-1158784
-1159238
-1159280
-1159343
-1159539
-1160105
-1160433
-1160333
-1160339
-1160360
-1160768
-1161236
-1161396
-1161518
-1161841
-1162344
-1162738
-1162628
-1162230
-1162669
-1163130
-1163471
-1163771
-1163991
-1164265
-1164625
-1164986
-1165063
-1165011
-1164706
-1165442
-1165935
-1166251
-1166484
-1166820
-1167352
-1167642
-1167635
-1167682
-1167742
-1168139
-1168653
-1168751
-1168915
-1169289
-1169860
-1170142
-1170035
-1170102
-1170052
-1170460
-1170717
-1170980
-1171012
-1171266
-1171633
-1172037
-1171876
-1171860
-1171690
-1171921
-1172161
-1172118
-1171975
-1171898
-1171986
-1171816
-1171384
-1170677
-1170203
-1169682
-1169439
-1168777
-1167963
-1167186
-1166723
-1165956
-1165016
-1163762
-1162879
-1161903
-1161076
-1159838
-1159846
-1158501
-1157751
-1156869
-1155611
-1154539
-1153333
-1152779
-1152012
-1151056
-1150172
-1149476
-1148865
-1147980
-1146920
-1146015
-1145034
-1144555
-1144077
-1143343
-1142810
-1142207
-1142028
-1141584
-1140959
-1140125
-1139627
-1139271
-1139216
-1138934
-1138876
-1138799
-1138845
-1138531
-1138266
-1137891
-1137430
-1137788
-1137903
-1137792
-1137870
-1137992
-1138258
-1138498
-1137933
-1138111
-1138329
-1138470
-1138629
-1138785
-1139103
-1139451
-1139299
-1139278
-1139150
-1139571
-1139534
-1139853
-1139901
-1140146
-1140450
-1140670
-1140555
-1140512
-1140399
-1140639
-1140894
-1140800
-1140817
-1140833
-1141078
-1141212
-1140938
-1140526
-1140298
-1140406
-1140436
-1140196
-1140068
-1140031
-1140044
-1139953
-1139661
-1139223
-1138646
-1138851
-1138793
-1138584
-1138490
-1138325
-1138399
-1138407
-1138048
-1137605
-1137373
-1137395
-1138288
-1137574
-1137431
-1137296
-1137359
-1137566
-1137230
-1136777
-1136500
-1136437
-1136140
-1135790
-1135579
-1135704
-1135879
-1136145
-1136011
-1135719
-1135624
-1135887
-1136002
-1135886
-1135768
-1135733
-1136030
-1135961
-1135624
-1135185
-1134930
-1134942
-1134801
-1134550
-1134406
-1134260
-1134120
-1134151
-1133346
-1133082
-1132776
-1132553
-1132182
-1132956
-1131928
-1131764
-1131661
-1131520
-1130978
-1130607
-1130051
-1129823
-1130076
-1130022
-1129881
-1130050
-1130407
-1130742
-1130505
-1130120
-1129681
-1129750
-1130091
-1130115
-1130106
-1130232
-1130292
-1130275
-1130092
-1129813
-1129670
-1129799
-1129896
-1130038
-1130033
-1130087
-1130438
-1130731
-1130580
-1130217
-1131139
-1130726
-1130950
-1130889
-1131094
-1131383
-1131881
-1132115
-1132035
-1131906
-1131628
-1131917
-1132245
-1132473
-1132698
-1132913
-1133240
-1133550
-1133869
-1133511
-1133434
-1133703
-1133865
-1134080
-1134542
-1134477
-1134898
-1135176
-1135046
-1135071
-1135073
-1135290
-1135697
-1135711
-1135806
-1136074
-1136362
-1136884
-1136695
-1136621
-1136486
-1136724
-1137029
-1137212
-1137252
-1137454
-1137771
-1138085
-1138047
-1138006
-1138052
-1138433
-1138826
-1138878
-1139077
-1139219
-1139641
-1140071
-1140130
-1139863
-1140022
-1140434
-1140898
-1141044
-1141488
-1141642
-1142095
-1142641
-1142771
-1142799
-1142928
-1143467
-1143992
-1144474
-1144845
-1145168
-1145685
-1146272
-1146381
-1146662
-1146979
-1147468
-1148240
-1148269
-1148631
-1148826
-1149280
-1149305
-1148938
-1148538
-1148545
-1148848
-1149013
-1148992
-1149358
-1149190
-1149396
-1149568
-1149276
-1150172
-1149361
-1149358
-1149563
-1149591
-1149727
-1149701
-1150001
-1150283
-1150156
-1150026
-1149899
-1150052
-1150229
-1150471
-1150576
-1150772
-1150973
-1151110
-1150599
-1150741
-1150789
-1150992
-1151281
-1151354
-1151280
-1151392
-1151699
-1151945
-1151937
-1151693
-1151595
-1151995
-1152309
-1152460
-1152655
-1152948
-1153235
-1153562
-1153479
-1153323
-1153649
-1153937
-1153955
-1153790
-1154293
-1154560
-1154998
-1154950
-1154815
-1154777
-1155191
-1155517
-1155903
-1156167
-1156251
-1156666
-1156929
-1156991
-1156872
-1156812
-1157083
-1157495
-1157601
-1157799
-1158095
-1158373
-1158588
-1158506
-1158190
-1158142
-1158311
-1158978
-1159207
-1159406
-1159550
-1160013
-1160299
-1160114
-1160098
-1160117
-1160375
-1160878
-1161174
-1161218
-1161365
-1161706
-1162150
-1162309
-1162119
-1162071
-1162532
-1162568
-1162871
-1162997
-1163220
-1163574
-1164022
-1163826
-1163738
-1163594
-1163992
-1164203
-1164267
-1164255
-1164374
-1164658
-1164876
-1164396
-1164092
-1163650
-1163637
-1163645
-1163426
-1163039
-1162803
-1162583
-1162540
-1162001
-1161497
-1160572
-1160771
-1160744
-1160860
-1161388
-1162107
-1162803
-1164047
-1163330
-1162942
-1162725
-1163114
-1163434
-1163707
-1164048
-1164306
-1164717
-1165093
-1165065
-1165033
-1165081
-1165558
-1165784
-1165972
-1166087
-1166282
-1166608
-1167100
-1167126
-1167019
-1166978
-1167325
-1168410
-1168269
-1168219
-1168530
-1168972
-1168888
-1168953
-1169481
-1169745
-1169614
-1170085
-1170370
-1170715
-1171159
-1171243
-1171181
-1171230
-1171722
-1172149
-1172337
-1172507
-1172694
-1172952
-1173363
-1173263
-1173145
-1172900
-1173075
-1173286
-1173526
-1173509
-1173739
-1174085
-1174537
-1174590
-1174510
-1174331
-1174604
-1175172
-1175337
-1175209
-1175640
-1176025
-1176335
-1176204
-1175816
-1175346
-1175476
-1175389
-1175106
-1174536
-1174155
-1173875
-1173576
-1172791
-1171809
-1170984
-1170398
-1169850
-1169227
-1168484
-1167317
-1166312
-1165066
-1163750
-1162434
-1161278
-1160595
-1159693
-1158471
-1157370
-1156425
-1155709
-1155015
-1153841
-1152726
-1151702
-1151262
-1150763
-1150143
-1149535
-1148973
-1148583
-1148227
-1147589
-1146862
-1146208
-1146013
-1145869
-1145654
-1145321
-1145015
-1144956
-1145025
-1144741
-1144420
-1144074
-1144095
-1144146
-1144079
-1144070
-1144199
-1144239
-1144480
-1144311
-1144004
-1143737
-1143900
-1144224
-1144284
-1144277
-1144167
-1144591
-1144941
-1144802
-1144635
-1144267
-1144524
-1144801
-1144871
-1144955
-1145020
-1145259
-1145462
-1145332
-1145052
-1144860
-1144924
-1145198
-1145193
-1145085
-1145208
-1145214
-1145360
-1145086
-1144693
-1144444
-1144427
-1144476
-1144243
-1144149
-1143824
-1143893
-1143961
-1143686
-1143296
-1142893
-1142944
-1142883
-1142625
-1142361
-1141956
-1141864
-1141551
-1140986
-1140231
-1139619
-1139173
-1138960
-1138429
-1137968
-1137569
-1137401
-1137228
-1136750
-1136112
-1135706
-1135579
-1135547
-1135427
-1135282
-1135454
-1135909
-1136552
-1136966
-1137141
-1137337
-1137381
-1137452
-1137554
-1138454
-1138537
-1139036
-1139507
-1139216
-1139007
-1139058
-1139212
-1139362
-1139338
-1139215
-1139642
-1139928
-1139772
-1139380
-1139217
-1139386
-1139230
-1139390
-1139358
-1139548
-1139701
-1140010
-1139846
-1139673
-1139403
-1139611
-1139779
-1139834
-1139935
-1139929
-1140522
-1140609
-1140435
-1139888
-1139928
-1140245
-1140656
-1140699
-1140720
-1140976
-1141364
-1141680
-1141746
-1141540
-1141521
-1141945
-1142237
-1142616
-1142851
-1143043
-1143549
-1143861
-1143934
-1143686
-1143259
-1143001
-1142768
-1142513
-1142492
-1142763
-1143136
-1143448
-1143372
-1142848
-1142603
-1143064
-1143579
-1143674
-1143862
-1143880
-1144233
-1144591
-1144475
-1144452
-1144484
-1144914
-1145250
-1145396
-1145544
-1145774
-1146103
-1146468
-1146388
-1146082
-1145917
-1146162
-1146347
-1146407
-1146495
-1146554
-1146619
-1147012
-1147019
-1146744
-1146485
-1146596
-1146640
-1146800
-1146794
-1146865
-1147212
-1147480
-1147402
-1147053
-1146849
-1147106
-1147326
-1147293
-1147287
-1147226
-1147625
-1147762
-1147757
-1147550
-1147350
-1147737
-1147904
-1147883
-1148022
-1148550
-1148464
-1148563
-1148526
-1148351
-1148199
-1148203
-1148524
-1148418
-1148328
-1148384
-1148528
-1148693
-1148660
-1148345
-1147992
-1148372
-1149300
-1150244
-1150647
-1150951
-1151228
-1151395
-1151238
-1150999
-1150917
-1151324
-1151750
-1152100
-1152239
-1152136
-1152489
-1152795
-1152772
-1152578
-1152419
-1152740
-1153141
-1153464
-1153520
-1153784
-1154213
-1154630
-1154730
-1154658
-1154364
-1154922
-1155347
-1155785
-1155895
-1156213
-1156608
-1156855
-1156987
-1156784
-1156746
-1157134
-1157506
-1157767
-1157903
-1158191
-1158756
-1159055
-1159334
-1159375
-1159404
-1159819
-1160315
-1160752
-1160851
-1161259
-1161722
-1162372
-1162635
-1162686
-1162750
-1163316
-1163779
-1164115
-1164272
-1165152
-1165275
-1165773
-1165866
-1165479
-1164726
-1164530
-1164776
-1165271
-1165409
-1165688
-1166003
-1166234
-1165943
-1165761
-1165632
-1166132
-1166599
-1166771
-1166722
-1166824
-1167046
-1167447
-1167547
-1167268
-1167363
-1167644
-1167940
-1168339
-1168343
-1168408
-1168937
-1169264
-1169350
-1169139
-1168961
-1169279
-1169566
-1169825
-1169811
-1169913
-1170194
-1170646
-1170652
-1170547
-1170355
-1170587
-1170862
-1171182
-1171198
-1171274
-1171555
-1171775
-1171797
-1171574
-1171383
-1171583
-1171698
-1171823
-1171619
-1171741
-1171972
-1172233
-1172274
-1171947
-1171580
-1171852
-1172003
-1171986
-1171801
-1171818
-1172092
-1172276
-1172217
-1171792
-1171420
-1171547
-1171631
-1171716
-1171552
-1171457
-1171551
-1171778
-1171703
-1171231
-1170879
-1171127
-1171219
-1171266
-1171053
-1171036
-1171162
-1171539
-1171590
-1171679
-1172125
-1172904
-1173627
-1173968
-1173869
-1173910
-1174420
-1175097
-1175508
-1175346
-1175238
-1175457
-1175812
-1176158
-1176404
-1176724
-1177060
-1177549
-1177600
-1177350
-1177259
-1177787
-1178176
-1178491
-1178534
-1178765
-1179227
-1179607
-1179703
-1179622
-1179584
-1179800
-1180215
-1180495
-1180545
-1180568
-1180889
-1181181
-1181076
-1180719
-1180359
-1180274
-1180100
-1179682
-1179142
-1178570
-1178251
-1177989
-1177245
-1176121
-1175078
-1174258
-1173588
-1172705
-1171662
-1170732
-1169982
-1169192
-1167943
-1166678
-1165101
-1164451
-1163564
-1162659
-1161520
-1160663
-1159902
-1159106
-1158358
-1157300
-1156274
-1155484
-1155105
-1154353
-1153614
-1152968
-1152629
-1152251
-1151741
-1150862
-1150149
-1149781
-1149620
-1149318
-1148939
-1148614
-1148553
-1148591
-1148332
-1147641
-1147194
-1147122
-1147235
-1147355
-1147211
-1147190
-1147147
-1147347
-1147232
-1146817
-1146651
-1146700
-1147001
-1146963
-1146882
-1146925
-1147186
-1147372
-1147233
-1146904
-1146679
-1146852
-1147052
-1147167
-1147770
-1146975
-1146861
-1147915
-1147593
-1146845
-1146615
-1146492
-1146950
-1146921
-1146809
-1146777
-1146962
-1146794
-1146327
-1146295
-1146123
-1145937
-1146034
-1146135
-1145960
-1145498
-1145067
-1145263
-1145456
-1145638
-1145856
-1145794
-1145818
-1145817
-1145535
-1145054
-1144597
-1144697
-1144942
-1144916
-1144778
-1144690
-1144703
-1145068
-1144969
-1144704
-1144315
-1144509
-1144843
-1145031
-1144975
-1144985
-1145399
-1145747
-1145940
-1145628
-1145512
-1145804
-1145991
-1146184
-1146278
-1146367
-1146692
-1147000
-1147086
-1146720
-1146250
-1147354
-1146797
-1146877
-1146543
-1146802
-1146934
-1147772
-1147282
-1146890
-1146484
-1146335
-1146585
-1146625
-1146425
-1146393
-1146398
-1146388
-1146397
-1145893
-1145467
-1145359
-1145854
-1145557
-1145140
-1145109
-1145179
-1145184
-1145052
-1144707
-1144167
-1144100
-1144343
-1144358
-1144177
-1143962
-1144258
-1144574
-1144598
-1144433
-1144138
-1144226
-1144446
-1144362
-1144293
-1144255
-1144424
-1144521
-1144367
-1144149
-1143871
-1144139
-1144931
-1144479
-1144391
-1144358
-1144736
-1145006
-1144971
-1144681
-1144613
-1144902
-1145232
-1145442
-1145447
-1145629
-1145917
-1146362
-1146368
-1146289
-1146169
-1146271
-1146706
-1147013
-1147073
-1147181
-1147539
-1147942
-1148766
-1148033
-1147721
-1147982
-1148385
-1148667
-1148801
-1148988
-1149589
-1149665
-1149717
-1149562
-1149514
-1149713
-1150173
-1150376
-1150566
-1150650
-1150944
-1151413
-1151606
-1151515
-1151450
-1151585
-1152053
-1152372
-1152503
-1152544
-1152966
-1153233
-1153494
-1153294
-1153198
-1153323
-1153669
-1153926
-1154101
-1154264
-1154504
-1154944
-1155163
-1155138
-1154992
-1155169
-1155380
-1155703
-1155918
-1156105
-1156297
-1156813
-1156945
-1156598
-1156491
-1156694
-1157220
-1157340
-1157396
-1157578
-1157920
-1158250
-1158307
-1158147
-1158130
-1158227
-1158720
-1158937
-1158876
-1159019
-1159285
-1159644
-1159866
-1159595
-1159270
-1159281
-1159635
-1159968
-1159725
-1159922
-1160269
-1160510
-1160671
-1160459
-1160133
-1160308
-1160647
-1160815
-1160664
-1160705
-1161059
-1161415
-1161501
-1161287
-1161044
-1161135
-1161513
-1161783
-1161773
-1161816
-1162185
-1162532
-1162640
-1162316
-1162229
-1162237
-1162597
-1162943
-1163015
-1163070
-1163240
-1163614
-1163648
-1163662
-1163436
-1163645
-1163973
-1164167
-1164225
-1164365
-1164614
-1165016
-1165136
-1164922
-1164758
-1165033
-1165253
-1165455
-1165532
-1165499
-1165827
-1166212
-1166200
-1165867
-1165890
-1166154
-1166366
-1166639
-1166735
-1166812
-1167156
-1167524
-1167631
-1167445
-1167306
-1167436
-1167719
-1168100
-1168257
-1168294
-1168698
-1168929
-1169216
-1169043
-1168869
-1169032
-1169414
-1169544
-1169653
-1169734
-1170086
-1170557
-1170715
-1170504
-1170430
-1170565
-1170888
-1171054
-1171107
-1170934
-1171389
-1171806
-1171915
-1171693
-1171436
-1171573
-1171878
-1172044
-1172188
-1172230
-1172458
-1172843
-1173055
-1172733
-1172734
-1172965
-1173374
-1173511
-1173415
-1173750
-1173924
-1174374
-1174482
-1174303
-1174019
-1174382
-1174575
-1174744
-1174914
-1175319
-1176238
-1177050
-1178210
-1177486
-1177114
-1177141
-1177441
-1177647
-1177665
-1177920
-1178364
-1178728
-1178923
-1178737
-1178489
-1178667
-1179039
-1179161
-1179090
-1179141
-1179439
-1179787
-1179846
-1179810
-1179432
-1179601
-1179907
-1179866
-1179661
-1179629
-1179354
-1179646
-1179400
-1178790
-1178141
-1177715
-1177365
-1176935
-1176223
-1175592
-1175210
-1174552
-1173765
-1172577
-1171363
-1170620
-1169961
-1169043
-1167872
-1166898
-1166222
-1165382
-1164413
-1163086
-1161875
-1160889
-1160165
-1159295
-1158307
-1157558
-1156957
-1156413
-1155508
-1154557
-1153496
-1152875
-1152357
-1151900
-1151338
-1150734
-1150459
-1150207
-1149904
-1149156
-1148566
-1148232
-1148266
-1147923
-1147829
-1147594
-1147534
-1147586
-1147497
-1147169
-1146819
-1146727
-1147092
-1147096
-1147029
-1147033
-1147228
-1147611
-1147704
-1147334
-1147310
-1147458
-1147633
-1147864
-1148098
-1148187
-1148554
-1148914
-1148825
-1148608
-1148548
-1148753
-1149176
-1149221
-1149244
-1149319
-1149608
-1149736
-1149908
-1149668
-1149491
-1149521
-1149625
-1149748
-1149813
-1149729
-1150040
-1150120
-1150179
-1149713
-1149479
-1149263
-1149340
-1149416
-1149239
-1149176
-1149224
-1149094
-1149039
-1148615
-1148133
-1147951
-1148097
-1148036
-1147799
-1147538
-1147649
-1147780
-1147818
-1147369
-1147053
-1147081
-1147094
-1147183
-1147082
-1146968
-1147245
-1147633
-1147623
-1147420
-1147205
-1147379
-1147542
-1147876
-1147837
-1147865
-1148258
-1148577
-1148589
-1148401
-1148204
-1148291
-1148597
-1148679
-1148654
-1148740
-1148840
-1149708
-1149324
-1148940
-1148554
-1148495
-1148755
-1148637
-1148557
-1148538
-1148631
-1148686
-1149426
-1148452
-1147867
-1147568
-1147800
-1147623
-1147422
-1147182
-1147221
-1147211
-1147003
-1146454
-1146025
-1145736
-1145732
-1145714
-1145492
-1145286
-1145149
-1145186
-1145019
-1144693
-1144194
-1144050
-1144096
-1144076
-1143972
-1143827
-1144692
-1144169
-1143907
-1143571
-1143962
-1143263
-1143225
-1143269
-1143257
-1143151
-1143240
-1143466
-1143488
-1143267
-1142965
-1143047
-1143341
-1143505
-1143282
-1143364
-1143636
-1143895
-1143910
-1143714
-1143588
-1143669
-1143756
-1144071
-1144097
-1144173
-1144436
-1144697
-1144751
-1144512
-1144463
-1144554
-1144844
-1145217
-1144980
-1145305
-1145513
-1146000
-1146120
-1145965
-1145934
-1146192
-1146626
-1146955
-1147004
-1147158
-1147608
-1148054
-1148149
-1148563
-1148155
-1148326
-1148723
-1149066
-1149030
-1149253
-1149673
-1150040
-1150414
-1150265
-1150188
-1150332
-1150888
-1151289
-1151331
-1151582
-1151950
-1152479
-1152696
-1152717
-1152600
-1152835
-1153258
-1153688
-1153718
-1154013
-1154313
-1154718
-1155000
-1154818
-1154712
-1155040
-1155306
-1155677
-1155729
-1155878
-1156382
-1156796
-1157128
-1156970
-1156953
-1157158
-1157436
-1157770
-1157867
-1158088
-1158352
-1158804
-1159045
-1158717
-1158831
-1158934
-1159349
-1159846
-1159777
-1160004
-1160276
-1160763
-1160861
-1160746
-1160807
-1160806
-1161264
-1161586
-1161768
-1161803
-1162130
-1162522
-1162682
-1162491
-1162073
-1162426
-1162788
-1163174
-1163654
-1163602
-1163823
-1164165
-1164307
-1164231
-1164073
-1164351
-1164630
-1164951
-1165129
-1165136
-1165428
-1165656
-1165955
-1165906
-1165887
-1165955
-1166304
-1166566
-1166563
-1166748
-1167034
-1167445
-1167754
-1167447
-1167289
-1167405
-1167783
-1168204
-1168070
-1168294
-1168649
-1169187
-1169452
-1169200
-1169124
-1169399
-1169618
-1169925
-1169540
-1168966
-1168633
-1168690
-1168768
-1168614
-1168632
-1168997
-1169114
-1169236
-1169044
-1168716
-1169074
-1169579
-1169932
-1169878
-1169685
-1169659
-1170043
-1170123
-1170232
-1170345
-1170758
-1171150
-1171320
-1171012
-1170976
-1171072
-1171484
-1171597
-1171773
-1171801
-1172088
-1172470
-1172853
-1172631
-1172559
-1172783
-1173244
-1173359
-1173385
-1173676
-1174008
-1174404
-1174499
-1174344
-1174287
-1174361
-1174773
-1175012
-1175033
-1175175
-1175660
-1175950
-1176164
-1175904
-1175749
-1175806
-1176063
-1176450
-1176449
-1176523
-1176794
-1176898
-1176905
-1176787
-1176504
-1176496
-1176658
-1176921
-1176681
-1176786
-1176835
-1176862
-1176818
-1176190
-1175667
-1175407
-1175153
-1174829
-1174076
-1173531
-1173051
-1172521
-1171791
-1170665
-1169459
-1168534
-1167770
-1166919
-1165612
-1164537
-1163618
-1162739
-1161540
-1160074
-1158529
-1157226
-1156353
-1155408
-1154731
-1154202
-1153984
-1153484
-1152561
-1151084
-1149814
-1149029
-1148613
-1148131
-1147369
-1146491
-1145854
-1145348
-1144594
-1143875
-1143044
-1142341
-1141994
-1141484
-1141025
-1140522
-1140282
-1140259
-1139901
-1139402
-1138923
-1138657
-1138643
-1138744
-1138586
-1138432
-1138541
-1138799
-1138863
-1138570
-1138236
-1138112
-1138331
-1138615
-1138560
-1138817
-1138960
-1139259
-1139383
-1139092
-1138980
-1139185
-1139334
-1139634
-1139615
-1139772
-1140239
-1140512
-1140719
-1140412
-1140365
-1140390
-1140584
-1140896
-1140899
-1140962
-1141133
-1141449
-1141520
-1141322
-1141013
-1140981
-1141126
-1141274
-1141003
-1140952
-1140863
-1141068
-1140880
-1140518
-1139968
-1139803
-1139806
-1139695
-1139440
-1139408
-1139305
-1139427
-1139341
-1138698
-1138242
-1138139
-1138107
-1138240
-1137876
-1137764
-1137954
-1138019
-1137985
-1137710
-1137547
-1137522
-1137733
-1137946
-1138185
-1138244
-1138626
-1138792
-1138679
-1138689
-1138729
-1139126
-1139493
-1139578
-1139760
-1140054
-1140435
-1140504
-1140429
-1140160
-1140339
-1140566
-1140884
-1140767
-1140756
-1140954
-1141202
-1141396
-1141189
-1140905
-1140983
-1141182
-1141382
-1141370
-1141338
-1141492
-1141892
-1141843
-1141569
-1141289
-1141383
-1141557
-1141680
-1141605
-1142242
-1142012
-1141734
-1141708
-1141935
-1142152
-1141984
-1142131
-1141969
-1141651
-1140808
-1140017
-1139596
-1139697
-1139990
-1140175
-1139862
-1139597
-1139428
-1139752
-1139932
-1139853
-1139628
-1139427
-1139445
-1139706
-1139840
-1139956
-1140161
-1140471
-1140556
-1140387
-1140189
-1140139
-1140275
-1140577
-1140432
-1140505
-1140725
-1141147
-1141445
-1141381
-1141095
-1141115
-1141461
-1141886
-1142005
-1142255
-1142621
-1142885
-1143013
-1142783
-1142744
-1142893
-1143345
-1143656
-1143723
-1143936
-1144149
-1144544
-1144702
-1144580
-1144540
-1144618
-1145088
-1145484
-1145442
-1145600
-1145894
-1146363
-1146588
-1146571
-1146248
-1146375
-1146790
-1146966
-1146856
-1147101
-1147480
-1147889
-1148038
-1147801
-1147614
-1147666
-1148024
-1148502
-1148490
-1148668
-1148914
-1149265
-1149457
-1149335
-1149376
-1149461
-1149793
-1150040
-1150190
-1150219
-1150415
-1150834
-1151024
-1150723
-1150516
-1150461
-1150638
-1150709
-1150639
-1150841
-1150974
-1151228
-1151318
-1151104
-1150874
-1150899
-1151017
-1151280
-1151278
-1151389
-1151440
-1151776
-1151824
-1151555
-1151374
-1151329
-1151492
-1151762
-1151633
-1151737
-1151805
-1152017
-1152158
-1152023
-1151827
-1151798
-1152201
-1152385
-1152513
-1152668
-1152945
-1153291
-1153651
-1153522
-1153403
-1153590
-1154014
-1154331
-1154479
-1154696
-1155007
-1155432
-1155643
-1155630
-1155543
-1155628
-1156006
-1156352
-1156441
-1156655
-1156859
-1157275
-1157375
-1157161
-1156957
-1156934
-1157212
-1157431
-1157440
-1157532
-1157571
-1157875
-1158039
-1157758
-1157698
-1157726
-1157816
-1158032
-1157988
-1158090
-1158281
-1158647
-1158733
-1158554
-1158526
-1158507
-1158715
-1159086
-1159145
-1159249
-1159521
-1159906
-1160114
-1159769
-1159749
-1159833
-1160140
-1160320
-1160372
-1160569
-1160889
-1161168
-1161367
-1161260
-1161271
-1161357
-1161654
-1161925
-1161961
-1162250
-1162543
-1163016
-1163403
-1163225
-1163199
-1163100
-1163613
-1164127
-1164188
-1164444
-1164861
-1165222
-1165405
-1165304
-1165416
-1165630
-1166017
-1166241
-1166451
-1166862
-1167221
-1167667
-1167960
-1167959
-1168009
-1168264
-1168686
-1168999
-1169334
-1169493
-1169898
-1170490
-1170992
-1170988
-1171059
-1171290
-1171750
-1172190
-1172366
-1172685
-1173172
-1173671
-1173982
-1173829
-1173692
-1173787
-1174157
-1174282
-1174151
-1173986
-1173970
-1173894
-1173619
-1173101
-1172485
-1171835
-1171417
-1171014
-1170222
-1169459
-1168990
-1168430
-1167603
-1166386
-1165255
-1164336
-1163560
-1162794
-1161752
-1160710
-1159877
-1159201
-1158231
-1157090
-1155923
-1154899
-1154207
-1153520
-1152657
-1151701
-1151097
-1150781
-1150070
-1149050
-1148258
-1147625
-1147161
-1146649
-1146050
-1145652
-1145509
-1145352
-1144805
-1144098
-1143587
-1143300
-1143197
-1142976
-1142696
-1142336
-1142341
-1142334
-1142150
-1141822
-1141370
-1141191
-1141237
-1141231
-1141054
-1141013
-1141039
-1141397
-1141364
-1141081
-1140837
-1140771
-1141055
-1141247
-1141313
-1141301
-1141302
-1141687
-1141762
-1141490
-1141472
-1141319
-1141564
-1141707
-1141819
-1141793
-1141927
-1142258
-1142236
-1142002
-1141767
-1141581
-1141979
-1142114
-1141949
-1141929
-1141867
-1142148
-1142215
-1141761
-1141418
-1141199
-1141366
-1141438
-1141145
-1141103
-1141015
-1141107
-1140961
-1140683
-1140390
-1140091
-1140242
-1140237
-1140129
-1140033
-1140101
-1140313
-1140293
-1139989
-1139761
-1139712
-1139931
-1140008
-1140121
-1140161
-1140281
-1140704
-1140877
-1140907
-1140811
-1140935
-1141319
-1141579
-1141634
-1141818
-1142093
-1142621
-1142782
-1142604
-1142517
-1142522
-1142790
-1143155
-1143171
-1143345
-1143521
-1143723
-1143916
-1143599
-1143474
-1143450
-1143680
-1143896
-1143755
-1143849
-1143968
-1144129
-1144138
-1143823
-1143492
-1143499
-1143717
-1143632
-1143626
-1143631
-1143637
-1143922
-1144028
-1143667
-1143491
-1143247
-1143548
-1143671
-1143575
-1143516
-1143710
-1144015
-1144061
-1143853
-1143582
-1143504
-1143689
-1143691
-1143688
-1143714
-1143693
-1143866
-1144131
-1143935
-1143786
-1143599
-1143908
-1143983
-1143861
-1143962
-1144218
-1144474
-1144607
-1144419
-1144086
-1144037
-1144270
-1144459
-1144323
-1144446
-1144627
-1144851
-1145018
-1144835
-1144603
-1144436
-1144782
-1144889
-1144888
-1145137
-1145382
-1145794
-1146039
-1145804
-1145730
-1145684
-1146062
-1146349
-1146135
-1146544
-1146842
-1147325
-1147485
-1147340
-1147209
-1147290
-1147712
-1147954
-1147990
-1148165
-1148333
-1148668
-1148886
-1148645
-1148526
-1148635
-1148840
-1149050
-1149317
-1149250
-1149472
-1149889
-1150094
-1149984
-1149681
-1149665
-1149951
-1150303
-1150193
-1150315
-1150382
-1150756
-1151012
-1150733
-1150553
-1150543
-1150704
-1150998
-1150955
-1150971
-1151026
-1151354
-1151567
-1151357
-1151147
-1151090
-1151392
-1151743
-1151705
-1151798
-1151899
-1152408
-1152607
-1152523
-1152388
-1152387
-1152550
-1152855
-1152982
-1153162
-1153264
-1153551
-1153903
-1153772
-1153617
-1153701
-1153988
-1154181
-1154154
-1154286
-1154353
-1154643
-1154931
-1154681
-1154649
-1154506
-1154870
-1155007
-1155214
-1155243
-1155463
-1156027
-1156109
-1156001
-1155730
-1155820
-1156133
-1156494
-1156562
-1156673
-1156982
-1157448
-1157552
-1157659
-1157605
-1157725
-1158066
-1158277
-1158326
-1158515
-1158916
-1159322
-1159511
-1159467
-1159426
-1159338
-1159735
-1160122
-1160195
-1160202
-1160406
-1160757
-1161005
-1160821
-1160856
-1160984
-1161233
-1161456
-1161629
-1161655
-1161875
-1162143
-1162274
-1162230
-1162039
-1161967
-1162327
-1162554
-1162508
-1162595
-1162643
-1163077
-1163254
-1163012
-1162885
-1162798
-1162929
-1163216
-1163247
-1163335
-1163535
-1163983
-1164091
-1164012
-1163941
-1163919
-1164169
-1164547
-1164769
-1164980
-1165275
-1165571
-1165759
-1165627
-1165610
-1165564
-1165864
-1166327
-1166491
-1166559
-1166873
-1167356
-1167540
-1168359
-1167745
-1167527
-1167798
-1168117
-1168334
-1168549
-1168871
-1169385
-1169654
-1169706
-1169621
-1169687
-1170143
-1170453
-1170636
-1170889
-1171243
-1171675
-1171999
-1171583
-1171632
-1171742
-1172093
-1172450
-1172595
-1172785
-1172894
-1173193
-1173256
-1173126
-1172855
-1172716
-1172652
-1172678
-1172378
-1171859
-1171542
-1171239
-1170856
-1170233
-1169333
-1168513
-1167895
-1167486
-1166616
-1165695
-1164885
-1164103
-1163150
-1162241
-1161165
-1160071
-1159281
-1158509
-1157439
-1156405
-1155604
-1155785
-1154578
-1153309
-1152287
-1151323
-1150731
-1150249
-1149381
-1148753
-1148088
-1147734
-1147313
-1146605
-1145915
-1145443
-1145197
-1145014
-1144712
-1144236
-1144053
-1144071
-1144017
-1143753
-1143351
-1143066
-1143113
-1143157
-1143148
-1142941
-1142645
-1143062
-1143154
-1143002
-1142909
-1142923
-1143106
-1143285
-1143221
-1143035
-1143243
-1143456
-1143540
-1143401
-1142997
-1143191
-1143310
-1143447
-1143486
-1143520
-1143697
-1143930
-1143989
-1143811
-1143721
-1143607
-1143812
-1143972
-1143774
-1143728
-1143769
-1143968
-1143999
-1144400
-1143558
-1143176
-1143267
-1143298
-1143098
-1142895
-1142737
-1142853
-1142793
-1142509
-1142270
-1141955
-1142058
-1142171
-1142052
-1141909
-1141831
-1141790
-1141820
-1141550
-1141300
-1141129
-1141226
-1141248
-1141215
-1140974
-1141092
-1141237
-1141304
-1141105
-1140910
-1140905
-1141313
-1141530
-1141413
-1141495
-1141675
-1141874
-1142063
-1141795
-1141769
-1141693
-1141990
-1142061
-1141967
-1142132
-1142110
-1142192
-1142314
-1142092
-1141998
-1141749
-1141840
-1142046
-1141886
-1141731
-1141297
-1141628
-1141586
-1141298
-1140863
-1140664
-1140652
-1140841
-1141450
-1142072
-1142664
-1142622
-1142101
-1141569
-1141402
-1141635
-1141970
-1141935
-1141577
-1141471
-1141479
-1141530
-1141453
-1141141
-1140955
-1140950
-1141099
-1140950
-1140809
-1140783
-1140876
-1141039
-1140877
-1140738
-1140493
-1140503
-1140827
-1140939
-1140726
-1140855
-1141074
-1141328
-1141166
-1141080
-1141183
-1141350
-1141639
-1141637
-1141621
-1141724
-1142252
-1142457
-1142261
-1142015
-1141959
-1142279
-1142569
-1142587
-1142581
-1142797
-1143143
-1143385
-1143479
-1143336
-1143298
-1143573
-1143995
-1144035
-1144148
-1144445
-1144809
-1145083
-1145210
-1145388
-1145469
-1145954
-1146401
-1146725
-1147128
-1147465
-1148078
-1148760
-1149110
-1149362
-1149628
-1150256
-1150870
-1151314
-1151693
-1152097
-1152813
-1153352
-1153448
-1153345
-1152828
-1152804
-1152981
-1153159
-1153420
-1153852
-1153891
-1153919
-1153829
-1153794
-1153909
-1154316
-1154513
-1154531
-1154400
-1154576
-1154985
-1155272
-1155188
-1155225
-1155286
-1155595
-1155722
-1155884
-1155801
-1156005
-1156148
-1156450
-1156193
-1155963
-1155953
-1156056
-1156298
-1156265
-1155941
-1155542
-1155621
-1155771
-1155584
-1155393
-1155271
-1155322
-1155228
-1155005
-1154630
-1154182
-1154118
-1154253
-1153913
-1153845
-1153832
-1154001
-1153963
-1153729
-1153469
-1153370
-1153388
-1153565
-1153504
-1153593
-1153750
-1153999
-1154084
-1154010
-1153871
-1153961
-1154332
-1154661
-1154833
-1154848
-1155018
-1155499
-1155815
-1155870
-1155841
-1156070
-1156361
-1156934
-1157208
-1157311
-1157600
-1158175
-1158537
-1158772
-1158795
-1158934
-1159585
-1160097
-1160191
-1159845
-1159537
-1159558
-1159615
-1159820
-1159838
-1159937
-1160223
-1160111
-1159977
-1160168
-1160315
-1160854
-1161122
-1160923
-1160905
-1160922
-1161290
-1161815
-1161689
-1161906
-1162090
-1162462
-1162573
-1162917
-1163027
-1163028
-1163350
-1163727
-1163894
-1163961
-1163994
-1164390
-1164720
-1164586
-1164500
-1164270
-1164443
-1164553
-1164641
-1164415
-1164386
-1164518
-1164742
-1164419
-1164062
-1164023
-1164138
-1164278
-1164159
-1163854
-1163860
-1163959
-1163908
-1163462
-1162868
-1162462
-1162289
-1162139
-1161717
-1161087
-1160561
-1160141
-1159777
-1159527
-1158200
-1157214
-1156680
-1156169
-1155323
-1154353
-1153632
-1152973
-1152217
-1151296
-1150270
-1149341
-1148786
-1148089
-1147327
-1146382
-1145734
-1145096
-1144719
-1144014
-1143314
-1142550
-1142095
-1141837
-1141385
-1140892
-1140442
-1140249
-1139817
-1139359
-1138824
-1138264
-1138201
-1138169
-1137775
-1137471
-1137293
-1137227
-1137068
-1136999
-1136499
-1136232
-1136216
-1136204
-1135998
-1135828
-1135620
-1135771
-1135914
-1135522
-1135144
-1134737
-1134883
-1135038
-1134745
-1134495
-1134419
-1134489
-1134391
-1134124
-1133735
-1133431
-1133363
-1133471
-1133251
-1133036
-1132792
-1132977
-1133036
-1132970
-1133230
-1133691
-1134081
-1134206
-1134014
-1133734
-1133407
-1133700
-1133885
-1133781
-1133442
-1133172
-1133116
-1132984
-1132965
-1132745
-1132634
-1132828
-1132804
-1132419
-1131986
-1131663
-1131940
-1131962
-1131824
-1131646
-1131476
-1131609
-1131665
-1131562
-1130899
-1130827
-1130981
-1131151
-1131215
-1131095
-1131333
-1131665
-1131717
-1131644
-1131552
-1131490
-1131382
-1131875
-1131813
-1132122
-1132238
-1132395
-1132780
-1132911
-1132709
-1132273
-1132774
-1133185
-1133445
-1133485
-1133412
-1133664
-1133901
-1133932
-1133715
-1133472
-1133792
-1133962
-1133959
-1133849
-1133850
-1133933
-1133936
-1133849
-1133493
-1133223
-1133499
-1133386
-1133444
-1133074
-1133155
-1133241
-1133182
-1132890
-1132588
-1132194
-1132229
-1132467
-1132398
-1132240
-1132218
-1132294
-1132229
-1132185
-1131798
-1131564
-1131643
-1131921
-1131767
-1131751
-1131664
-1131909
-1131935
-1131748
-1131581
-1131320
-1131417
-1131731
-1131606
-1131490
-1131816
-1132144
-1132120
-1132584
-1132888
-1132804
-1132697
-1132601
-1133032
-1133415
-1133531
-1133557
-1133828
-1134197
-1134511
-1134580
-1134411
-1134413
-1134633
-1135097
-1135249
-1135101
-1135429
-1135978
-1136184
-1136339
-1136309
-1136202
-1136698
-1137048
-1137263
-1137254
-1137321
-1137825
-1138045
-1138025
-1138039
-1138075
-1138363
-1138769
-1139015
-1138973
-1139188
-1139517
-1139740
-1139862
-1139719
-1139412
-1139928
-1140373
-1140455
-1140458
-1140684
-1140933
-1141230
-1141268
-1141175
-1140654
-1141213
-1141573
-1141786
-1141789
-1141911
-1142279
-1142413
-1142447
-1142451
-1142529
-1142654
-1143019
-1142970
-1142956
-1143159
-1143531
-1143873
-1143833
-1143626
-1143634
-1144805
-1144507
-1144457
-1144359
-1144555
-1144929
-1145053
-1145105
-1145083
-1144948
-1145381
-1145748
-1146628
-1146058
-1146110
-1146340
-1146634
-1146813
-1146698
-1146870
-1147098
-1147584
-1147747
-1147768
-1148108
-1148559
-1148997
-1149139
-1149000
-1149125
-1149476
-1149959
-1150014
-1150152
-1150368
-1150823
-1151192
-1151229
-1151213
-1151107
-1151435
-1151782
-1151834
-1151756
-1152171
-1152572
-1152825
-1152992
-1152821
-1152764
-1153050
-1153234
-1153499
-1153530
-1153727
-1154071
-1154423
-1154351
-1154280
-1154159
-1154573
-1154974
-1155028
-1154932
-1155158
-1155575
-1155868
-1155909
-1155682
-1155701
-1155884
-1156098
-1156191
-1156127
-1156103
-1156219
-1156515
-1156339
-1156272
-1156253
-1156433
-1156774
-1156868
-1156929
-1157181
-1157380
-1157765
-1157620
-1157497
-1157417
-1157648
-1157947
-1158091
-1157917
-1158037
-1158282
-1158454
-1158275
-1157969
-1157609
-1157858
-1157963
-1157868
-1157499
-1157329
-1157309
-1156786
-1156417
-1155582
-1154927
-1154363
-1153909
-1154188
-1152583
-1151610
-1151104
-1150319
-1149274
-1148095
-1146982
-1146168
-1145389
-1144365
-1143496
-1142458
-1141677
-1141131
-1140022
-1138755
-1137630
-1136967
-1136396
-1135512
-1134510
-1133740
-1133990
-1132903
-1131919
-1130934
-1130114
-1129959
-1129507
-1128963
-1128504
-1128840
-1128212
-1127853
-1127416
-1126876
-1126394
-1126249
-1126327
-1126224
-1125870
-1125773
-1125827
-1125991
-1125973
-1125729
-1125575
-1125763
-1125863
-1125951
-1125974
-1125878
-1126109
-1126358
-1126267
-1126171
-1126065
-1126234
-1126406
-1126473
-1126880
-1126539
-1126615
-1126641
-1125836
-1125990
-1125943
-1126105
-1126223
-1126117
-1125839
-1125635
-1125695
-1125692
-1125230
-1124681
-1124515
-1124709
-1124589
-1124474
-1124141
-1123852
-1123903
-1123867
-1123534
-1123037
-1122632
-1122607
-1122661
-1122333
-1121917
-1121578
-1121736
-1121622
-1121281
-1120838
-1120401
-1120439
-1120446
-1120234
-1120123
-1119941
-1119881
-1119906
-1119915
-1119642
-1119416
-1119480
-1119599
-1119573
-1119627
-1119578
-1119911
-1120189
-1120163
-1120154
-1120068
-1120196
-1120473
-1120515
-1120262
-1120420
-1120739
-1121017
-1121120
-1120965
-1120807
-1121055
-1121131
-1121177
-1121132
-1121145
-1121381
-1121574
-1121479
-1121083
-1120769
-1120864
-1121064
-1120924
-1120785
-1120638
-1120725
-1120806
-1120705
-1120168
-1119909
-1120089
-1120082
-1119945
-1119753
-1119592
-1119675
-1119800
-1119713
-1119357
-1119081
-1119112
-1119332
-1119295
-1119046
-1118982
-1119143
-1119380
-1119141
-1118962
-1118775
-1118980
-1119122
-1119273
-1119061
-1119047
-1119363
-1119622
-1119591
-1119473
-1119431
-1119746
-1119957
-1119970
-1119859
-1119783
-1119978
-1120296
-1120253
-1119990
-1119939
-1120291
-1120639
-1120724
-1120743
-1120912
-1121228
-1121671
-1121921
-1121851
-1121954
-1122321
-1122758
-1123066
-1123131
-1123282
-1123623
-1123901
-1123898
-1123844
-1123818
-1124019
-1124200
-1124308
-1124428
-1124439
-1124856
-1125029
-1124983
-1125023
-1125611
-1125739
-1125825
-1126134
-1126488
-1126643
-1126484
-1126509
-1126850
-1127222
-1127311
-1127271
-1127416
-1127848
-1128076
-1128271
-1128195
-1128203
-1128500
-1128770
-1129103
-1129073
-1129193
-1129315
-1129745
-1130394
-1129687
-1129463
-1129734
-1129924
-1129975
-1129955
-1129912
-1130181
-1130536
-1130554
-1130356
-1130204
-1130375
-1130545
-1130732
-1130726
-1131004
-1131321
-1131367
-1131190
-1131149
-1131397
-1131797
-1131877
-1132833
-1132219
-1132322
-1132443
-1132469
-1132397
-1132216
-1132426
-1132660
-1132789
-1132922
-1132963
-1133435
-1133803
-1133780
-1133807
-1133681
-1134069
-1134563
-1134683
-1134815
-1135229
-1135462
-1135577
-1135407
-1135570
-1135950
-1136220
-1136579
-1136627
-1136610
-1136896
-1137378
-1137343
-1137269
-1137084
-1137397
-1137651
-1137791
-1137838
-1138030
-1138273
-1138615
-1138730
-1138581
-1138436
-1138846
-1139062
-1139209
-1139177
-1139217
-1139678
-1139909
-1139895
-1139781
-1139768
-1139871
-1140169
-1140333
-1140385
-1140489
-1140839
-1141239
-1141767
-1141929
-1142076
-1142474
-1142670
-1142806
-1142534
-1142772
-1143345
-1143830
-1143883
-1143778
-1144458
-1144279
-1144337
-1144464
-1144496
-1144614
-1145139
-1145630
-1145587
-1145481
-1145275
-1145763
-1146307
-1146512
-1146471
-1146586
-1147075
-1147570
-1147646
-1148463
-1147740
