PPG
-1449496
-1449415
-1449283
-1449228
-1448940
-1449233
-1450206
-1449372
-1449209
-1449076
-1448941
-1449022
-1448987
-1448920
-1448871
-1449094
-1448975
-1448966
-1449001
-1448971
-1448922
-1448920
-1448896
-1448900
-1448874
-1448759
-1448839
-1448688
-1448654
-1448652
-1448645
-1448447
-1448457
-1448362
-1448448
-1448290
-1448120
-1448244
-1448074
-1448084
-1448051
-1447971
-1447751
-1447576
-1447539
-1447408
-1447292
-1447253
-1447042
-1447017
-1446981
-1446989
-1446966
-1447749
-1447202
-1446895
-1446683
-1446560
-1446545
-1446572
-1446603
-1446351
-1446401
-1446443
-1446415
-1446499
-1446349
-1447339
-1446707
-1446380
-1446390
-1446279
-1446393
-1446276
-1446322
-1446386
-1446224
-1446323
-1446373
-1446429
-1446445
-1446635
-1446654
-1446630
-1446756
-1446759
-1446475
-1446627
-1446905
-1447010
-1447029
-1447113
-1447040
-1447139
-1447179
-1447272
-1447276
-1447438
-1447504
-1447512
-1447638
-1447626
-1447664
-1447932
-1447931
-1447798
-1448095
-1447930
-1447986
-1448187
-1448142
-1448368
-1448253
-1448418
-1448488
-1448463
-1448597
-1448558
-1448566
-1448601
-1448603
-1448900
-1448948
-1448956
-1449058
-1448976
-1449169
-1449314
-1449259
-1449412
-1449523
-1449437
-1449486
-1449634
-1449644
-1449654
-1449777
-1449834
-1449946
-1451349
-1450319
-1450418
-1450577
-1450518
-1450718
-1450663
-1450799
-1450901
-1450462
-1450798
-1451080
-1451235
-1451133
-1451291
-1451332
-1451190
-1451431
-1451327
-1451382
-1451432
-1451543
-1451651
-1451538
-1451737
-1451684
-1451703
-1451739
-1451853
-1451919
-1451972
-1451783
-1451798
-1451934
-1451837
-1451819
-1451883
-1452039
-1451973
-1452146
-1452217
-1452162
-1452135
-1452149
-1452323
-1452179
-1452175
-1452179
-1452173
-1452303
-1452318
-1452269
-1452337
-1452413
-1452578
-1452669
-1452743
-1452651
-1452698
-1452761
-1453385
-1453253
-1453090
-1453013
-1453268
-1453108
-1453117
-1453185
-1453285
-1453466
-1453479
-1453572
-1453676
-1453734
-1453814
-1453779
-1453918
-1453931
-1453932
-1454033
-1454175
-1454301
-1454430
-1454471
-1454524
-1454591
-1454630
-1454829
-1454974
-1454861
-1455019
-1455067
-1455025
-1455074
-1455333
-1455209
-1455266
-1455480
-1455510
-1455495
-1455596
-1455506
-1455400
-1455262
-1455141
-1455055
-1454744
-1454670
-1454514
-1454154
-1453765
-1453397
-1453107
-1452685
-1452224
-1451776
-1451125
-1450776
-1450087
-1449601
-1449066
-1448650
-1448014
-1447524
-1446987
-1446498
-1446172
-1445159
-1445063
-1444679
-1444351
-1443850
-1443531
-1443068
-1442918
-1443103
-1442475
-1441926
-1441737
-1441500
-1441361
-1441232
-1441075
-1441024
-1440891
-1440872
-1440792
-1440656
-1441347
-1440876
-1440801
-1440639
-1440629
-1440542
-1440698
-1440764
-1440947
-1440954
-1440959
-1441004
-1441325
-1441432
-1441414
-1441594
-1441656
-1441913
-1442122
-1442079
-1442160
-1442488
-1442576
-1442773
-1442898
-1443081
-1443033
-1443278
-1443303
-1443431
-1443594
-1443724
-1443831
-1443993
-1444110
-1444300
-1444347
-1444531
-1444498
-1444674
-1444707
-1445683
-1445177
-1445057
-1445081
-1445300
-1445215
-1445319
-1445530
-1445527
-1445633
-1445695
-1445846
-1445857
-1446052
-1446215
-1446441
-1446349
-1446416
-1446452
-1446392
-1446322
-1446265
-1446491
-1446341
-1446399
-1446491
-1446377
-1446375
-1446341
-1446347
-1446469
-1446360
-1446504
-1446499
-1446654
-1446636
-1446527
-1446645
-1446437
-1446565
-1446499
-1446698
-1446692
-1446740
-1446842
-1446990
-1447075
-1447139
-1447356
-1447338
-1447610
-1447554
-1447656
-1447828
-1447473
-1447797
-1448079
-1448050
-1448150
-1448084
-1448206
-1448385
-1448294
-1448358
-1448384
-1448331
-1448137
-1448376
-1448342
-1448453
-1448546
-1448557
-1448494
-1448357
-1448550
-1448505
-1448497
-1448339
-1448234
-1448326
-1448280
-1448257
-1448158
-1448200
-1448244
-1448196
-1448168
-1448240
-1447826
-1448134
-1448155
-1448021
-1448181
-1448172
-1448174
-1447934
-1447969
-1447890
-1447825
-1447838
-1447894
-1447890
-1447805
-1447799
-1447893
-1447824
-1447728
-1447690
-1447710
-1447842
-1447742
-1447839
-1447770
-1447719
-1447767
-1447825
-1447874
-1447792
-1447708
-1447813
-1447710
-1447838
-1447917
-1447788
-1447937
-1448005
-1448176
-1448004
-1448165
-1448086
-1449022
-1448522
-1448243
-1448172
-1448392
-1448265
-1448292
-1448061
-1448580
-1448652
-1448859
-1448832
-1448835
-1448992
-1448870
-1450056
-1449165
-1449135
-1448995
-1449209
-1449164
-1449343
-1449391
-1449267
-1449255
-1449409
-1449515
-1449488
-1449616
-1449617
-1449466
-1449609
-1449659
-1449643
-1449673
-1449818
-1449946
-1449818
-1449925
-1449910
-1450012
-1450171
-1450194
-1450216
-1450344
-1450206
-1450295
-1450244
-1450257
-1450485
-1450592
-1450609
-1450687
-1450713
-1450749
-1450695
-1450868
-1450961
-1450829
-1450913
-1451000
-1451012
-1451255
-1451160
-1451255
-1451223
-1451340
-1451538
-1451641
-1451720
-1451671
-1451780
-1451918
-1451844
-1452016
-1451921
-1452142
-1452231
-1452157
-1452246
-1452265
-1452381
-1452504
-1452594
-1452544
-1452738
-1452826
-1452732
-1452810
-1452677
-1452809
-1452865
-1453006
-1453026
-1453194
-1453218
-1453209
-1453326
-1453337
-1453322
-1453422
-1453406
-1453417
-1453579
-1453647
-1453750
-1453574
-1453556
-1453753
-1454853
-1454204
-1453959
-1453883
-1453874
-1453748
-1453474
-1453709
-1453793
-1453942
-1453929
-1453914
-1453960
-1453759
-1453550
-1453602
-1453434
-1453293
-1453171
-1453031
-1452740
-1452547
-1452319
-1451944
-1451605
-1451063
-1450623
-1450315
-1449777
-1449263
-1448854
-1448237
-1447810
-1447205
-1446655
-1446339
-1445550
-1444934
-1444467
-1443820
-1443500
-1442882
-1442526
-1442112
-1441715
-1441049
-1440492
-1440341
-1439939
-1439502
-1439204
-1438875
-1438717
-1438366
-1438090
-1437980
-1437845
-1437743
-1437457
-1437382
-1437369
-1437193
-1437044
-1437160
-1437084
-1436943
-1437084
-1437101
-1437022
-1437087
-1437091
-1437301
-1437266
-1437403
-1437569
-1437656
-1437781
-1437701
-1437733
-1437998
-1438132
-1438151
-1437786
-1438232
-1438440
-1438717
-1438865
-1438957
-1439139
-1439305
-1439502
-1439439
-1439639
-1439583
-1439586
-1439779
-1439815
-1440019
-1440112
-1440313
-1439893
-1440429
-1440492
-1440589
-1440706
-1440908
-1440811
-1441001
-1440684
-1440908
-1441019
-1441075
-1441190
-1441313
-1441227
-1441238
-1441229
-1441213
-1441351
-1441482
-1441359
-1441485
-1441332
-1441367
-1441326
-1441470
-1441379
-1441458
-1441495
-1441480
-1441443
-1441328
-1441388
-1441556
-1441564
-1441373
-1441568
-1441430
-1441489
-1441448
-1441475
-1441453
-1441622
-1441540
-1441589
-1441670
-1441704
-1441577
-1441662
-1441510
-1441467
-1441670
-1441646
-1441696
-1441687
-1441616
-1441559
-1441586
-1441406
-1441365
-1441341
-1441369
-1441265
-1441274
-1441163
-1441144
-1441047
-1441132
-1441004
-1441037
-1440639
-1440760
-1440860
-1440849
-1440767
-1440627
-1440426
-1440493
-1440333
-1440390
-1440218
-1440299
-1440025
-1439907
-1439924
-1439965
-1439839
-1439714
-1439644
-1439611
-1439511
-1439433
-1439453
-1439513
-1439498
-1439356
-1439358
-1439401
-1439294
-1439212
-1439383
-1439213
-1439353
-1439296
-1439330
-1439407
-1439250
-1439292
-1439437
-1439443
-1439518
-1439516
-1439499
-1439578
-1439424
-1439675
-1439468
-1439768
-1440007
-1439898
-1440031
-1440203
-1440186
-1440337
-1440302
-1440569
-1440612
-1440719
-1440684
-1440697
-1440938
-1440989
-1441140
-1441188
-1441210
-1441440
-1441561
-1441738
-1441787
-1441413
-1441638
-1441833
-1441847
-1441915
-1441997
-1442115
-1442023
-1442146
-1442310
-1442415
-1442382
-1442442
-1442585
-1442672
-1442605
-1442707
-1442776
-1442824
-1442781
-1442932
-1442843
-1442984
-1442927
-1442954
-1443127
-1443227
-1443594
-1443182
-1443099
-1443208
-1443191
-1443150
-1443244
-1443333
-1443211
-1443380
-1443249
-1443300
-1443223
-1443267
-1443314
-1443364
-1443242
-1443224
-1443416
-1443442
-1443428
-1443391
-1443434
-1443471
-1443589
-1443551
-1443679
-1443655
-1443768
-1443987
-1443835
-1443870
-1443566
-1443977
-1444054
-1444146
-1443856
-1444248
-1444377
-1444512
-1444616
-1444425
-1444547
-1444661
-1444746
-1444857
-1444757
-1444955
-1444915
-1444973
-1445206
-1445373
-1445357
-1445285
-1445233
-1445316
-1445417
-1445476
-1445489
-1445571
-1445744
-1445915
-1445919
-1445815
-1445851
-1445936
-1446038
-1446061
-1447109
-1446277
-1447180
-1446446
-1446253
-1446075
-1446189
-1446055
-1446039
-1445954
-1445988
-1445884
-1445819
-1445829
-1445656
-1445423
-1445187
-1445098
-1444836
-1444563
-1444231
-1443800
-1443506
-1443038
-1442567
-1442000
-1441666
-1441281
-1440569
-1439950
-1439530
-1439095
-1438499
-1437712
-1437229
-1436487
-1435982
-1435357
-1434672
-1434151
-1433496
-1433067
-1432454
-1432142
-1431587
-1431045
-1430731
-1429831
-1429761
-1429395
-1429169
-1428700
-1428303
-1428077
-1427758
-1427631
-1427385
-1427219
-1427093
-1426839
-1426583
-1426452
-1426325
-1425875
-1426273
-1426302
-1426300
-1426295
-1426207
-1426302
-1426383
-1426375
-1426403
-1426614
-1426550
-1426754
-1426896
-1426882
-1426997
-1426920
-1427139
-1427169
-1427329
-1427380
-1427623
-1427651
-1427730
-1427983
-1428282
-1429421
-1429084
-1428922
-1429050
-1429247
-1429607
-1429691
-1429891
-1430029
-1430185
-1430384
-1430498
-1430478
-1430531
-1430663
-1430709
-1430861
-1431083
-1431004
-1430963
-1431019
-1431149
-1431163
-1431172
-1431049
-1431260
-1431262
-1431195
-1431210
-1431181
-1431040
-1430946
-1430994
-1431017
-1430915
-1430674
-1430558
-1430694
-1430639
-1430406
-1430397
-1430341
-1430214
-1430128
-1430073
-1430084
-1430039
-1429742
-1429746
-1429675
-1429715
-1429703
-1429455
-1429373
-1429360
-1429393
-1429536
-1429359
-1429218
-1429391
-1429336
-1429463
-1429381
-1429336
-1429494
-1429390
-1429384
-1429540
-1429532
-1429423
-1429306
-1429526
-1429469
-1429519
-1429525
-1429209
-1430273
-1429672
-1429538
-1429459
-1429474
-1429429
-1429485
-1429194
-1429338
-1430363
-1429733
-1429301
-1429091
-1429026
-1429160
-1429109
-1428989
-1428832
-1428827
-1428938
-1428940
-1428792
-1428682
-1428721
-1428748
-1428534
-1428568
-1428580
-1428350
-1428331
-1428502
-1428384
-1428277
-1428205
-1428322
-1428280
-1428197
-1428090
-1428131
-1428086
-1428161
-1428003
-1428011
-1427954
-1428120
-1427974
-1427955
-1428102
-1428159
-1428095
-1428177
-1428179
-1428104
-1428089
-1428237
-1428305
-1428435
-1428700
-1428951
-1429162
-1429318
-1429443
-1429714
-1429911
-1430065
-1429829
-1429881
-1429828
-1429979
-1429931
-1429964
-1430071
-1430180
-1430123
-1430384
-1430353
-1430332
-1430293
-1430556
-1430559
-1430705
-1430720
-1430923
-1430967
-1431007
-1431035
-1431207
-1431289
-1431432
-1431385
-1431573
-1431618
-1431804
-1431669
-1431712
-1431761
-1431819
-1431852
-1432057
-1432101
-1432106
-1432218
-1433289
-1432559
-1432418
-1432211
-1432262
-1432295
-1432396
-1432289
-1432127
-1432279
-1432335
-1432233
-1432309
-1432289
-1432349
-1432231
-1432172
-1432258
-1432251
-1432256
-1432307
-1432342
-1432155
-1432120
-1432329
-1432339
-1432320
-1432389
-1432365
-1432131
-1432339
-1432277
-1432402
-1432359
-1432488
-1432359
-1432526
-1432591
-1432593
-1432704
-1432681
-1432563
-1432691
-1432743
-1432803
-1432696
-1432808
-1433014
-1433125
-1432965
-1433138
-1433192
-1433260
-1433173
-1433250
-1433378
-1433294
-1433378
-1433488
-1433344
-1433412
-1433486
-1433620
-1433565
-1433597
-1433809
-1433818
-1433839
-1433820
-1433949
-1433891
-1433860
-1433791
-1433952
-1434126
-1433893
-1433957
-1433904
-1434080
-1434029
-1434035
-1434064
-1433940
-1434044
-1433922
-1433746
-1433621
-1433614
-1433515
-1433179
-1433026
-1432808
-1432576
-1432241
-1431791
-1431412
-1430969
-1430384
-1429907
-1429381
-1428938
-1428128
-1427727
-1426721
-1426351
-1425992
-1425421
-1424758
-1424355
-1423638
-1423053
-1422386
-1421914
-1421434
-1420911
-1420344
-1419902
-1419381
-1419042
-1418680
-1418177
-1417852
-1417479
-1417140
-1416699
-1416369
-1417229
-1416277
-1415765
-1415670
-1415471
-1415329
-1415150
-1415074
-1414901
-1414860
-1414908
-1415032
-1414898
-1414926
-1414990
-1414974
-1414942
-1414891
-1414641
-1415116
-1415295
-1415371
-1415492
-1415696
-1415595
-1415876
-1415888
-1415926
-1416048
-1416291
-1416457
-1416580
-1416678
-1416776
-1416756
-1416932
-1416987
-1417165
-1417291
-1417464
-1417518
-1417625
-1417707
-1417792
-1417785
-1417793
-1417701
-1417656
-1417570
-1417770
-1417754
-1417654
-1417591
-1417606
-1417465
-1417539
-1417454
-1417412
-1417471
-1417407
-1417351
-1417158
-1417143
-1417258
-1417358
-1417255
-1417300
-1417192
-1417071
-1417047
-1416753
-1416621
-1416758
-1416579
-1416612
-1416622
-1416470
-1416287
-1416309
-1416482
-1416368
-1416319
-1416355
-1416195
-1416132
-1416150
-1416171
-1416242
-1416234
-1416366
-1416450
-1416324
-1416289
-1416377
-1416438
-1416429
-1416432
-1416456
-1416537
-1416650
-1416760
-1416603
-1416673
-1416754
-1416720
-1416739
-1416659
-1416686
-1416838
-1416724
-1416884
-1416862
-1416691
-1416753
-1416731
-1416586
-1416706
-1416553
-1416583
-1416464
-1416515
-1416511
-1416437
-1416223
-1416266
-1416318
-1416302
-1416112
-1416172
-1415925
-1415885
-1415719
-1415738
-1415660
-1415515
-1415590
-1415370
-1415386
-1415366
-1415331
-1415112
-1415124
-1415052
-1414961
-1415050
-1414903
-1414809
-1414744
-1414848
-1414796
-1414694
-1414603
-1414619
-1414666
-1414630
-1414550
-1414534
-1414620
-1414643
-1414558
-1414508
-1414543
-1414608
-1414737
-1414720
-1414195
-1414590
-1414715
-1414738
-1414679
-1414723
-1414911
-1414970
-1414856
-1414918
-1415069
-1415155
-1415194
-1415190
-1415371
-1415163
-1415352
-1415458
-1415456
-1415470
-1415624
-1415592
-1415573
-1415718
-1415677
-1415817
-1415815
-1415957
-1415955
-1415876
-1415729
-1416136
-1416285
-1416355
-1416373
-1416426
-1416572
-1416586
-1416562
-1416531
-1416644
-1416705
-1416873
-1416922
-1416992
-1416981
-1417091
-1417100
-1417061
-1417099
-1417079
-1417148
-1417183
-1417319
-1417292
-1417428
-1417510
-1417487
-1417461
-1417521
-1417487
-1417491
-1417646
-1417786
-1417285
-1417502
-1417669
-1417714
-1417825
-1417932
-1417784
-1417974
-1417850
-1418020
-1417920
-1417910
-1417985
-1417918
-1418027
-1417953
-1418004
-1418067
-1418062
-1418014
-1418135
-1418039
-1418065
-1418059
-1418013
-1417676
-1417994
-1418457
-1418424
-1418349
-1418398
-1418514
-1418567
-1418459
-1418584
-1418452
-1418444
-1418552
-1418647
-1418691
-1418816
-1418812
-1418944
-1418923
-1418824
-1418811
-1418990
-1419042
-1419157
-1419002
-1419159
-1418819
-1419177
-1419322
-1419407
-1419316
-1419501
-1419475
-1419500
-1419512
-1419494
-1419639
-1419600
-1419745
-1419760
-1419855
-1419740
-1419907
-1420043
-1419904
-1419878
-1419989
-1420195
-1420224
-1420268
-1420122
-1420235
-1420439
-1420425
-1420394
-1420287
-1420357
-1420414
-1420324
-1420438
-1420445
-1420422
-1420370
-1420309
-1420153
-1420007
-1419765
-1419452
-1419324
-1418813
-1418516
-1418180
-1417794
-1417386
-1417008
-1416556
-1415969
-1415467
-1414794
-1414056
-1413479
-1412881
-1412414
-1411854
-1411227
-1410568
-1409825
-1409228
-1408733
-1408125
-1407480
-1406970
-1406414
-1406708
-1405711
-1405051
-1404465
-1404260
-1403813
-1403394
-1403081
-1402708
-1402482
-1402258
-1402044
-1401724
-1401697
-1401564
-1401431
-1401267
-1401202
-1401157
-1400999
-1400979
-1400991
-1400895
-1400998
-1401049
-1401028
-1400948
-1401006
-1401141
-1401104
-1401132
-1401258
-1401278
-1401409
-1401693
-1401847
-1401858
-1401988
-1402099
-1402059
-1402253
-1402222
-1402015
-1402435
-1402565
-1402688
-1402768
-1402937
-1403123
-1402889
-1403152
-1403407
-1403388
-1403409
-1403535
-1403385
-1403425
-1403586
-1403407
-1403438
-1403672
-1403565
-1403726
-1403680
-1403579
-1403583
-1403692
-1403588
-1403553
-1403281
-1403312
-1403333
-1403280
-1403229
-1403128
-1403188
-1403194
-1403074
-1403015
-1402851
-1402785
-1402781
-1402504
-1402609
-1402501
-1402539
-1402430
-1402296
-1402186
-1402134
-1402117
-1401991
-1402028
-1402118
-1402044
-1401961
-1401950
-1402054
-1402163
-1402152
-1402138
-1402213
-1402068
-1402151
-1402289
-1402235
-1402274
-1402292
-1402231
-1402319
-1402496
-1402315
-1402361
-1402311
-1402487
-1402520
-1402585
-1402500
-1402465
-1402401
-1402472
-1402549
-1402534
-1402406
-1402447
-1402547
-1402342
-1402516
-1402325
-1403211
-1402660
-1402347
-1402188
-1402216
-1402154
-1402191
-1402100
-1402081
-1402028
-1401708
-1401784
-1401946
-1401860
-1401656
-1401701
-1401562
-1401442
-1401579
-1401684
-1401434
-1401365
-1401305
-1401202
-1401284
-1401135
-1401182
-1401032
-1400955
-1401036
-1400944
-1400938
-1401012
-1401053
-1401050
-1400873
-1401070
-1401100
-1400969
-1401010
-1400971
-1400968
-1401178
-1401267
-1401378
-1401138
-1401136
-1401283
-1401288
-1401408
-1401370
-1401377
-1401449
-1401552
-1401401
-1401614
-1401644
-1401893
-1401887
-1401846
-1401901
-1401989
-1402225
-1402319
-1402293
-1402260
-1402359
-1402648
-1402613
-1402582
-1402513
-1402726
-1402851
-1402926
-1403113
-1403145
-1403318
-1403195
-1403385
-1403367
-1403487
-1403505
-1403528
-1403699
-1403834
-1403858
-1403921
-1403927
-1404030
-1404093
-1404132
-1404095
-1404151
-1404244
-1404374
-1404323
-1404408
-1404455
-1404457
-1404655
-1404626
-1404614
-1404732
-1404761
-1404975
-1404997
-1404964
-1405065
-1405152
-1405093
-1405100
-1405142
-1405337
-1405392
-1405490
-1405400
-1405387
-1405432
-1405532
-1405631
-1405613
-1405520
-1405722
-1405619
-1405559
-1405621
-1405816
-1405891
-1405902
-1405883
-1405873
-1405865
-1405944
-1405981
-1405964
-1406015
-1406138
-1406087
-1406188
-1406133
-1406334
-1406320
-1406298
-1406389
-1406486
-1406452
-1406518
-1406400
-1406448
-1406653
-1406774
-1406885
-1406673
-1406867
-1406803
-1406858
-1406882
-1406839
-1406907
-1407057
-1407094
-1407209
-1407246
-1407252
-1407256
-1407376
-1407394
-1407441
-1407378
-1407355
-1407523
-1407615
-1407681
-1407698
-1407707
-1407615
-1407798
-1407773
-1407780
-1407929
-1407921
-1408028
-1407990
-1408109
-1408121
-1408057
-1408231
-1408287
-1408392
-1408362
-1408446
-1408393
-1408263
-1408504
-1408656
-1408714
-1408775
-1408944
-1408854
-1408848
-1408932
-1409029
-1409134
-1409183
-1409189
-1409199
-1409304
-1409430
-1409471
-1409610
-1409537
-1409618
-1409571
-1409695
-1409662
-1409778
-1409826
-1409895
-1410060
-1410182
-1410243
-1410246
-1410222
-1410508
-1410657
-1410672
-1410577
-1410718
-1410715
-1410766
-1410849
-1410848
-1411072
-1411028
-1411248
-1411365
-1411363
-1411378
-1411354
-1411420
-1411491
-1411532
-1411520
-1411531
-1411653
-1411646
-1411650
-1411599
-1411564
-1411430
-1411335
-1411141
-1410927
-1410679
-1411749
-1410605
-1409837
-1409579
-1408909
-1408622
-1408067
-1407658
-1406988
-1406482
-1405824
-1405267
-1404596
-1404029
-1403358
-1402791
-1402236
-1401484
-1400863
-1400388
-1399836
-1399281
-1398572
-1398172
-1397717
-1397173
-1396655
-1396266
-1395960
-1395408
-1395083
-1394782
-1394437
-1394204
-1393941
-1393640
-1393528
-1393213
-1393019
-1392908
-1392775
-1392682
-1392600
-1392581
-1392699
-1392769
-1392661
-1392738
-1392772
-1392760
-1392737
-1392813
-1392974
-1393164
-1393323
-1393198
-1393350
-1393453
-1393535
-1393697
-1393843
-1394132
-1394157
-1394411
-1394225
-1394475
-1394870
-1394972
-1395197
-1395246
-1395263
-1395340
-1395437
-1395597
-1395753
-1395978
-1396072
-1396102
-1396152
-1396218
-1396446
-1396372
-1396524
-1396528
-1396732
-1396724
-1396833
-1396774
-1396909
-1397036
-1396964
-1396834
-1396860
-1396874
-1396884
-1396818
-1396815
-1396774
-1396647
-1396628
-1396526
-1396521
-1396574
-1396535
-1396478
-1396491
-1396329
-1396324
-1396271
-1396302
-1396294
-1396146
-1396234
-1396088
-1396145
-1396185
-1396089
-1396161
-1396258
-1396293
-1396109
-1396174
-1396193
-1396285
-1396351
-1396424
-1396431
-1396475
-1396507
-1396453
-1396568
-1396641
-1396600
-1396689
-1396590
-1396722
-1396702
-1396884
-1396860
-1396853
-1396762
-1396936
-1396869
-1396858
-1396509
-1396600
-1396655
-1396778
-1396823
-1396677
-1396589
-1396534
-1396579
-1396504
-1396487
-1396575
-1396477
-1396434
-1396441
-1396529
-1396266
-1396198
-1396315
-1396334
-1396224
-1396160
-1396179
-1396125
-1395910
-1395889
-1395763
-1395725
-1395682
-1395602
-1395536
-1395687
-1395601
-1395528
-1395656
-1395536
-1395699
-1395539
-1395601
-1395598
-1395714
-1395790
-1395816
-1395747
-1395919
-1396006
-1395968
-1395985
-1397406
-1396466
-1396280
-1396355
-1396316
-1396505
-1396443
-1396630
-1396572
-1396692
-1396736
-1396550
-1396755
-1397028
-1397140
-1397156
-1397235
-1397418
-1397561
-1397668
-1397746
-1397765
-1397985
-1398113
-1398080
-1398104
-1398260
-1398338
-1398447
-1398524
-1398540
-1398791
-1398883
-1398951
-1398946
-1399091
-1399184
-1399349
-1399434
-1399413
-1399591
-1399592
-1399770
-1399788
-1399898
-1400027
-1399932
-1400041
-1400220
-1400278
-1400226
-1400325
-1400401
-1400546
-1400484
-1400630
-1400717
-1400838
-1400859
-1400999
-1401008
-1401117
-1401129
-1401208
-1401280
-1401166
-1401345
-1401329
-1401428
-1401483
-1401408
-1401662
-1401688
-1401302
-1401706
-1401817
-1401992
-1401892
-1401982
-1402098
-1401997
-1402224
-1402193
-1402340
-1402247
-1402317
-1402363
-1402481
-1402538
-1402511
-1402566
-1402683
-1402689
-1402773
-1402629
-1402784
-1402762
-1402772
-1402256
-1402781
-1402919
-1403005
-1403097
-1403147
-1403295
-1403268
-1403333
-1403392
-1403293
-1403460
-1403467
-1403088
-1403419
-1403477
-1403563
-1403502
-1403624
-1403800
-1404794
-1404046
-1403847
-1403968
-1403811
-1404031
-1404150
-1404082
-1404235
-1404323
-1404331
-1404409
-1404530
-1404587
-1404563
-1404628
-1404768
-1404793
-1404693
-1404867
-1404897
-1404918
-1404879
-1405058
-1405115
-1405185
-1405178
-1405240
-1405348
-1405571
-1405574
-1405593
-1405704
-1405728
-1405731
-1405794
-1405906
-1406086
-1406155
-1406190
-1406241
-1406281
-1406431
-1406434
-1406674
-1406704
-1406812
-1406906
-1406950
-1406991
-1407089
-1406953
-1407195
-1407330
-1407269
-1407407
-1407305
-1407303
-1407291
-1407272
-1407202
-1407315
-1407200
-1406995
-1406915
-1406668
-1406626
-1406235
-1405853
-1405538
-1405170
-1404935
-1404412
-1403872
-1403558
-1403057
-1402580
-1401959
-1401418
-1400741
-1400322
-1399569
-1398931
-1398545
-1398017
-1397379
-1396740
-1396147
-1395653
-1395248
-1394839
-1394224
-1393914
-1393446
-1393027
-1392631
-1392428
-1391964
-1391852
-1391496
-1391174
-1391100
-1390793
-1390650
-1390559
-1390323
-1390308
-1390167
-1390280
-1390288
-1390296
-1390085
-1390078
-1390306
-1390320
-1390277
-1390373
-1390328
-1390528
-1390738
-1390779
-1390820
-1390919
-1391111
-1391255
-1391012
-1391423
-1391593
-1391873
-1392135
-1392216
-1392315
-1392430
-1392643
-1392907
-1393097
-1393084
-1393193
-1393270
-1393363
-1393521
-1393695
-1393864
-1393965
-1394030
-1394252
-1394368
-1394502
-1396132
-1395173
-1394716
-1394709
-1394692
-1394863
-1394947
-1395045
-1394920
-1394918
-1394968
-1395098
-1395034
-1395215
-1395151
-1395081
-1395170
-1395180
-1395095
-1395172
-1395157
-1395109
-1395014
-1395001
-1394987
-1394850
-1394809
-1394899
-1394793
-1394739
-1394820
-1394680
-1394749
-1394737
-1394820
-1394842
-1394879
-1394906
-1394804
-1394776
-1394836
-1395004
-1395133
-1395122
-1395231
-1395272
-1395399
-1395318
-1395468
-1395525
-1395588
-1395596
-1395533
-1395735
-1395798
-1395856
-1395763
-1395794
-1395831
-1395968
-1395845
-1396041
-1395974
-1396046
-1395913
-1395902
-1396055
-1396068
-1395917
-1395946
-1395973
-1395897
-1395774
-1395772
-1395791
-1395945
-1395956
-1395747
-1395681
-1395668
-1395823
-1395659
-1395599
-1395627
-1395537
-1395600
-1395416
-1395517
-1395618
-1395579
-1395411
-1395349
-1395453
-1395388
-1395405
-1395444
-1395483
-1395324
-1395318
-1395529
-1395476
-1395412
-1395398
-1395495
-1395600
-1395699
-1395722
-1395702
-1395827
-1395960
-1395839
-1395921
-1395873
-1396014
-1396047
-1396098
-1396319
-1396432
-1396174
-1396504
-1396565
-1396608
-1396834
-1396823
-1396895
-1397098
-1397221
-1397271
-1397378
-1397494
-1397523
-1397700
-1397701
-1397923
-1398062
-1398257
-1398181
-1398231
-1398566
-1398676
-1398861
-1398858
-1398852
-1398960
-1399109
-1399348
-1399374
-1399447
-1399510
-1399548
-1399859
-1399860
-1400107
-1400102
-1400197
-1400258
-1400404
-1400439
-1400532
-1400720
-1400683
-1400863
-1400942
-1400928
-1401195
-1401129
-1401320
-1401426
-1401414
-1401585
-1401681
-1401575
-1401740
-1401943
-1401900
-1402095
-1402046
-1401994
-1402239
-1402220
-1402289
-1402277
-1402431
-1402363
-1402562
-1402516
-1402658
-1402756
-1402678
-1402906
-1402859
-1402995
-1403041
-1403095
-1403233
-1403243
-1403373
-1403400
-1403442
-1403448
-1403365
-1403597
-1403661
-1403626
-1403808
-1403756
-1403798
-1403728
-1403864
-1403829
-1403955
-1403936
-1403885
-1403983
-1404090
-1404223
-1404189
-1404196
-1404303
-1404477
-1405905
-1404933
-1404711
-1404692
-1404605
-1404663
-1404886
-1404901
-1404967
-1405068
-1404974
-1405009
-1405028
-1405101
-1405316
-1405394
-1405465
-1405452
-1405578
-1405672
-1405643
-1405721
-1405708
-1405789
-1405746
-1405726
-1405803
-1406032
-1405953
-1406020
-1406090
-1406089
-1406206
-1406354
-1406329
-1406528
-1406684
-1406613
-1406602
-1406784
-1406902
-1406881
-1406914
-1407069
-1407034
-1407051
-1407204
-1407353
-1407376
-1407494
-1407489
-1407765
-1407732
-1407919
-1408023
-1408037
-1407986
-1408052
-1408234
-1408366
-1408397
-1408486
-1408481
-1408541
-1408601
-1408813
-1408751
-1408852
-1409025
-1409103
-1409087
-1409127
-1409366
-1409484
-1409468
-1409556
-1409679
-1409783
-1409725
-1409728
-1409970
-1410216
-1410340
-1410308
-1410300
-1410181
-1410136
-1409843
-1409798
-1409679
-1409391
-1409121
-1408780
-1408314
-1407977
-1407436
-1407093
-1406620
-1406047
-1405559
-1404793
-1404360
-1403746
-1403198
-1402568
-1402037
-1401426
-1400818
-1400193
-1399225
-1399080
-1398542
-1397953
-1397487
-1396983
-1396580
-1396107
-1395705
-1395450
-1395026
-1394673
-1394486
-1394170
-1393911
-1393709
-1393477
-1393133
-1392921
-1392863
-1392752
-1392663
-1392709
-1392717
-1392703
-1392811
-1392698
-1392619
-1392822
-1392885
-1392908
-1392924
-1393130
-1393357
-1393240
-1393375
-1393635
-1393774
-1393966
-1394118
-1394200
-1394519
-1394735
-1394823
-1394954
-1395327
-1395362
-1395478
-1395769
-1395912
-1396008
-1396255
-1396497
-1396587
-1396746
-1397033
-1397342
-1397413
-1397484
-1397726
-1397803
-1397947
-1397867
-1398026
-1398205
-1398355
-1398357
-1398477
-1398483
-1398067
-1398487
-1398690
-1398655
-1398801
-1398909
-1398749
-1398716
-1398649
-1398803
-1398867
-1398811
-1398787
-1398620
-1398679
-1398608
-1398638
-1398398
-1398416
-1398404
-1398416
-1398242
-1398276
-1398228
-1398164
-1398121
-1398214
-1398148
-1398056
-1398060
-1397977
-1397965
-1398075
-1397984
-1398076
-1398251
-1398265
-1398297
-1398265
-1398383
-1398476
-1398688
-1398467
-1398478
-1398505
-1398819
-1398806
-1398871
-1398898
-1399074
-1399043
-1399250
-1399371
-1399300
-1399374
-1398937
-1399395
-1399470
-1399581
-1399604
-1399659
-1399745
-1399839
-1399819
-1399749
-1399728
-1399701
-1399646
-1399580
-1399727
-1399742
-1399861
-1399769
-1399779
-1400783
-1400016
-1399621
-1399760
-1399566
-1399549
-1399555
-1399512
-1399585
-1399380
-1399512
-1400401
-1399748
-1399648
-1399602
-1399518
-1399421
-1399594
-1399671
-1399415
-1399573
-1399634
-1399679
-1399651
-1399595
-1399680
-1399637
-1399754
-1399752
-1399709
-1399890
-1399494
-1399831
-1400017
-1400007
-1400166
-1400187
-1400183
-1400306
-1400423
-1400616
-1400670
-1400718
-1400667
-1400931
-1400889
-1401054
-1401176
-1401318
-1401500
-1401575
-1401718
-1401763
-1401896
-1401994
-1401997
-1402214
-1402309
-1402423
-1402375
-1402624
-1402564
-1402756
-1402800
-1403092
-1403064
-1403183
-1403171
-1403521
-1403597
-1403685
-1403759
-1404026
-1404084
-1404027
-1404238
-1404327
-1404540
-1404626
-1404588
-1404775
-1404892
-1404888
-1404998
-1405226
-1405268
-1405243
-1405284
-1405425
-1405577
-1405656
-1405613
-1405804
-1405659
-1405854
-1406070
-1406123
-1406207
-1406210
-1406228
-1406286
-1406416
-1406309
-1406500
-1406418
-1406617
-1406683
-1406810
-1406854
-1406803
-1406783
-1406876
-1406872
-1406939
-1406926
-1407190
-1407299
-1407323
-1407461
-1407434
-1407474
-1407508
-1407564
-1407462
-1407571
-1407656
-1407790
-1407880
-1407925
-1407952
-1408035
-1408160
-1408203
-1408073
-1408332
-1408367
-1408293
-1408212
-1408312
-1408567
-1408529
-1408489
-1408647
-1408637
-1408819
-1408756
-1408938
-1408836
-1408853
-1408991
-1409017
-1409153
-1409249
-1409160
-1409319
-1409311
-1409339
-1409522
-1409577
-1409635
-1409659
-1409861
-1409870
-1409828
-1409947
-1409939
-1410136
-1410235
-1410209
-1410221
-1410531
-1410519
-1410069
-1410494
-1410830
-1410772
-1410924
-1410975
-1410940
-1411063
-1411202
-1411338
-1411304
-1411490
-1411527
-1411576
-1411632
-1411689
-1411710
-1411961
-1411968
-1412175
-1412276
-1412287
-1412361
-1412451
-1412494
-1412546
-1412709
-1412609
-1412887
-1413026
-1413039
-1412957
-1412962
-1413093
-1413228
-1413164
-1413057
-1412987
-1412973
-1412966
-1412883
-1412732
-1412625
-1412467
-1412373
-1412141
-1411773
-1411336
-1410713
-1410644
-1410186
-1409758
-1409352
-1408822
-1408312
-1407735
-1407231
-1406469
-1406031
-1405441
-1404775
-1404201
-1403688
-1402203
-1402369
-1401909
-1401610
-1400997
-1400624
-1400043
-1399809
-1399350
-1399024
-1398586
-1396920
-1396730
-1396522
-1396391
-1396306
-1396319
-1396163
-1396089
-1396239
-1396225
-1397077
-1396435
-1396406
-1396328
-1396436
-1396457
-1396715
-1396761
-1396855
-1396970
-1397207
-1397353
-1397450
-1397593
-1397802
-1397937
-1396485
-1397700
-1398276
-1398415
-1398618
-1398788
-1398993
-1399162
-1399307
-1399457
-1399816
-1399968
-1400167
-1400177
-1400358
-1400651
-1400612
-1400673
-1400810
-1400902
-1401115
-1401181
-1401224
-1401375
-1401539
-1401513
-1401625
-1401594
-1401502
-1401608
-1401838
-1401746
-1401918
-1401993
-1401852
-1401983
-1402013
-1401938
-1401898
-1401873
-1401861
-1401809
-1401807
-1401754
-1401752
-1401769
-1401723
-1401748
-1401582
-1401588
-1401543
-1401533
-1401659
-1401583
-1401487
-1401549
-1401638
-1401682
-1401586
-1401711
-1401725
-1401633
-1401651
-1401805
-1401860
-1401955
-1401970
-1402152
-1402172
-1402357
-1402328
-1402391
-1402563
-1402579
-1402660
-1402630
-1402598
-1402767
-1402726
-1402919
-1402990
-1403118
-1402990
-1403107
-1403112
-1403177
-1403094
-1403185
-1403266
-1403211
-1403433
-1404653
-1403615
-1403262
-1403345
-1403232
-1403143
-1403187
-1403292
-1403176
-1403123
-1403054
-1403088
-1403230
-1403153
-1403036
-1403176
-1403051
-1402971
-1402990
-1403115
-1403002
-1402876
-1403092
-1403018
-1403103
-1403018
-1403070
-1403121
-1403034
-1403132
-1403360
-1403247
-1403256
-1403313
-1403516
-1403597
-1403632
-1403561
-1403683
-1403738
-1403888
-1403947
-1403792
-1404070
-1404071
-1404177
-1404205
-1404313
-1404414
-1404454
-1404505
-1404704
-1404732
-1404841
-1404898
-1405125
-1405220
-1405142
-1405190
-1405340
-1405536
-1405630
-1405517
-1405834
-1405833
-1405918
-1406076
-1406163
-1406435
-1406517
-1406625
-1406747
-1406865
-1406866
-1406952
-1407093
-1407121
-1407207
-1407422
-1407324
-1407190
-1407603
-1407795
-1407889
-1407943
-1407924
-1408179
-1408140
-1408326
-1408516
-1408550
-1408709
-1408699
-1408735
-1408768
-1408877
-1408918
-1408919
-1408962
-1409048
-1409151
-1409289
-1409400
-1409413
-1409562
-1409700
-1409664
-1409709
-1409445
-1409906
-1410013
-1410179
-1410151
-1409990
-1410117
-1410399
-1410290
-1410365
-1410370
-1410496
-1410631
-1410695
-1410670
-1410748
-1410846
-1410849
-1410885
-1411109
-1410968
-1411028
-1411077
-1411134
-1411310
-1411301
-1411242
-1411334
-1411339
-1411364
-1411427
-1411468
-1411654
-1412303
-1412008
-1411834
-1411805
-1411904
-1411840
-1412013
-1412113
-1412110
-1412298
-1412342
-1412293
-1412309
-1412484
-1412534
-1412630
-1412572
-1412596
-1413650
-1413134
-1412895
-1412864
-1412939
-1413062
-1413182
-1413252
-1413130
-1413203
-1413396
-1413535
-1413531
-1413758
-1413752
-1413829
-1413838
-1413943
-1413953
-1414187
-1414115
-1414203
-1414298
-1414333
-1414401
-1414635
-1414290
-1414717
-1414733
-1414926
-1415054
-1415726
-1415256
-1415273
-1415389
-1415458
-1415524
-1415632
-1415729
-1415784
-1415654
-1415667
-1415741
-1415712
-1415771
-1415952
-1415788
-1416061
-1415902
-1415962
-1415995
-1415815
-1415770
-1415645
-1415416
-1415159
-1414962
-1414657
-1414273
-1413889
-1413511
-1412923
-1412559
-1412013
-1411403
-1410702
-1410298
-1409799
-1409282
-1408712
-1408053
-1407422
-1406898
-1406423
-1405815
-1405296
-1404664
-1404092
-1403746
-1403275
-1402662
-1402460
-1402022
-1401501
-1401214
-1400835
-1400519
-1400280
-1400146
-1399902
-1399762
-1399430
-1399122
-1399082
-1398914
-1398901
-1398858
-1398817
-1398730
-1398857
-1399006
-1398974
-1398998
-1399162
-1399279
-1399351
-1399410
-1399495
-1399734
-1399764
-1399884
-1400005
-1400189
-1400375
-1400635
-1400728
-1400823
-1401037
-1401214
-1401451
-1401588
-1401616
-1401855
-1402045
-1402287
-1402310
-1402353
-1402293
-1402121
-1402670
-1403055
-1403228
-1403333
-1403245
-1403490
-1403674
-1403869
-1403848
-1403778
-1403886
-1404146
-1404074
-1404236
-1404333
-1404271
-1404176
-1404201
-1404315
-1404280
-1404303
-1404344
-1404390
-1404427
-1404300
-1404425
-1404193
-1404278
-1404330
-1404204
-1404239
-1404254
-1404202
-1404120
-1404102
-1403936
-1404019
-1403922
-1403801
-1403772
-1403751
-1403911
-1403726
-1403768
-1403699
-1403701
-1403761
-1403936
-1404002
-1404032
-1403941
-1404150
-1404002
-1404043
-1404141
-1404369
-1404380
-1404416
-1404419
-1404508
-1404660
-1404758
-1404802
-1404726
-1404967
-1405110
-1405054
-1405126
-1405170
-1405225
-1405289
-1405257
-1405242
-1405384
-1405243
-1405176
-1405169
-1405209
-1405218
-1404831
-1405178
-1404991
-1405140
-1405204
-1405208
-1405225
-1405242
-1405080
-1405048
-1405008
-1405119
-1405104
-1405085
-1404949
-1405051
-1405072
-1405054
-1404841
-1404779
-1404655
-1404853
-1404835
-1404719
-1404806
-1404862
-1404751
-1404843
-1404838
-1404718
-1404920
-1404825
-1404808
-1404759
-1404978
-1405092
-1405048
-1405173
-1405220
-1405081
-1405110
-1405202
-1405397
-1405478
-1405383
-1405533
-1405617
-1405668
-1405760
-1405873
-1406006
-1405997
-1406095
-1406244
-1406240
-1406220
-1406271
-1406336
-1406473
-1406601
-1406766
-1406762
-1406926
-1407016
-1407014
-1407088
-1407338
-1407393
-1407486
-1407525
-1407612
-1407785
-1407907
-1407960
-1407944
-1408207
-1408329
-1408393
-1408510
-1408557
-1408590
-1408689
-1408808
-1408973
-1408978
-1409158
-1409237
-1409141
-1409157
-1409375
-1409506
-1409594
-1409546
-1409783
-1409901
-1409784
-1409767
-1409835
-1410136
-1410093
-1410159
-1410335
-1410503
-1410541
-1410517
-1410668
-1410741
-1410791
-1410717
-1410917
-1410977
-1411083
-1411062
-1411239
-1411095
-1411316
-1411459
-1411507
-1411461
-1411601
-1411698
-1411833
-1411863
-1411966
-1411877
-1412009
-1412025
-1411976
-1412121
-1412003
-1412206
-1412181
-1412314
-1412310
-1412389
-1412595
-1412611
-1412594
-1412571
-1412513
-1412659
-1412818
-1412762
-1412790
-1412786
-1412959
-1413016
-1413000
-1412953
-1413023
-1413233
-1413192
-1413212
-1413262
-1413463
-1413414
-1413462
-1413630
-1413565
-1413559
-1413858
-1413769
-1413897
-1413992
-1413964
-1414099
-1414110
-1414136
-1414247
-1414196
-1414337
-1414288
-1414515
-1414607
-1414622
-1414485
-1415034
-1415092
-1415198
-1415199
-1415217
-1415410
-1415540
-1415613
-1415529
-1415672
-1415311
-1415583
-1415757
-1415854
-1415909
-1415852
-1416035
-1415983
-1416187
-1416226
-1416376
-1416496
-1416575
-1416528
-1416717
-1416718
-1416741
-1416973
-1416904
-1417135
-1417189
-1417040
-1417318
-1417463
-1417465
-1417373
-1417640
-1417748
-1417702
-1417811
-1418108
-1418191
-1418286
-1418327
-1418396
-1418488
-1418600
-1418520
-1418590
-1418684
-1418758
-1418926
-1418930
-1419078
-1419116
-1419126
-1419307
-1419236
-1419356
-1419515
-1419348
-1419444
-1419398
-1419414
-1419304
-1419150
-1418843
-1418705
-1418492
-1418264
-1418000
-1417361
-1416938
-1416612
-1416160
-1415666
-1415056
-1414400
-1413779
-1413390
-1412629
-1412082
-1411479
-1410923
-1410321
-1409187
-1406193
-1405285
-1405038
-1404794
-1404319
-1404099
-1403581
-1403348
-1403163
-1402633
-1402407
-1402098
-1401969
-1401798
-1401727
-1401479
-1401284
-1401289
-1401369
-1401392
-1401259
-1401198
-1401043
-1401374
-1401400
-1401420
-1401401
-1401591
-1401829
-1401901
-1402050
-1402125
-1402145
-1402360
-1402499
-1402645
-1402788
-1403084
-1403076
-1403416
-1403476
-1403672
-1403721
-1403923
-1404204
-1404360
-1404548
-1404651
-1404779
-1404897
-1405188
-1405406
-1405524
-1405515
-1405614
-1405938
-1405945
-1406053
-1406118
-1406240
-1406333
-1406362
-1406685
-1406846
-1406781
-1406815
-1406933
-1406995
-1406931
-1406939
-1407130
-1406947
-1406881
-1406957
-1407128
-1406889
-1407125
-1406988
-1406892
-1406980
-1406885
-1406846
-1406765
-1406799
-1406679
-1406540
-1406499
-1406480
-1406436
-1406386
-1406489
-1406556
-1406413
-1406564
-1406544
-1406491
-1406604
-1407426
-1406551
-1406647
-1406562
-1406555
-1406362
-1406608
-1406816
-1406865
-1406925
-1407033
-1406893
-1406826
-1406891
-1407133
-1407128
-1407111
-1407291
-1407242
-1407411
-1407385
-1407276
-1407317
-1407411
-1407352
-1407350
-1407315
-1407286
-1407270
-1407335
-1407386
-1407316
-1407308
-1407209
-1407172
-1407291
-1407376
-1407238
-1407155
-1407157
-1407117
-1406990
-1406833
-1406873
-1406867
-1406888
-1406983
-1406901
-1406676
-1406705
-1406672
-1406582
-1406671
-1406592
-1407724
-1407008
-1406604
-1406520
-1406360
-1406401
-1406521
-1406606
-1406457
-1406481
-1406533
-1406574
-1406566
-1406705
-1406894
-1406880
-1406917
-1406773
-1406964
-1407004
-1407213
-1407178
-1407352
-1407286
-1407338
-1407581
-1407527
-1407548
-1407869
-1407863
-1407988
-1407953
-1407970
-1408185
-1408206
-1408312
-1408347
-1408587
-1408571
-1408756
-1408876
-1408840
-1409110
-1409143
-1409068
-1409231
-1409387
-1409554
-1409228
-1409696
-1409679
-1409749
-1410089
-1410147
-1410135
-1410308
-1410294
-1410305
-1410526
-1410617
-1410655
-1410769
-1410761
-1412080
-1411066
-1411108
-1411131
-1411294
-1411322
-1411442
-1411361
-1411427
-1411655
-1411564
-1411624
-1411707
-1411919
-1412070
-1412099
-1412133
-1412294
-1412321
-1412410
-1412303
-1412321
-1412373
-1412461
-1412667
-1412548
-1412685
-1412866
-1412959
-1412827
-1412948
-1412884
-1412896
-1413065
-1413086
-1413172
-1413182
-1413365
-1413394
-1413535
-1413577
-1413557
-1413662
-1413707
-1413760
-1413674
-1413836
-1413986
-1413924
-1413905
-1413822
-1413943
-1414024
-1413996
-1414091
-1414167
-1414318
-1414247
-1414194
-1414266
-1414325
-1414293
-1414418
-1414499
-1414491
-1414574
-1414547
-1414319
-1415135
-1414847
-1414780
-1414813
-1414933
-1414977
-1414874
-1414885
-1414999
-1414986
-1414967
-1415031
-1415176
-1415309
-1415280
-1415247
-1415490
-1415489
-1415566
-1415591
-1415568
-1415736
-1415652
-1415849
-1415937
-1416034
-1416066
-1416178
-1416207
-1416341
-1416368
-1416407
-1416521
-1416528
-1416453
-1416621
-1416549
-1416658
-1416673
-1416873
-1416809
-1416864
-1417053
-1416975
-1417235
-1417148
-1417317
-1417323
-1417304
-1417519
-1417630
-1417700
-1417783
-1417834
-1417920
-1417903
-1418036
-1418210
-1418253
-1418195
-1418245
-1418454
-1418397
-1418621
-1418700
-1418774
-1418884
-1419003
-1418992
-1418944
-1419007
-1418997
-1418919
-1418978
-1418731
-1418625
-1418759
-1418682
-1418264
-1418032
-1417791
-1417515
-1417357
-1416948
-1416415
-1415980
-1415601
-1414979
-1414430
-1414054
-1413493
-1412883
-1412336
-1411541
-1411116
-1410588
-1410029
-1409358
-1408855
-1408279
-1407801
-1407259
-1406835
-1406127
-1405626
-1405302
-1404704
-1404522
-1403894
-1403758
-1403528
-1403318
-1402994
-1402902
-1402737
-1402515
-1402288
-1402090
-1402091
-1401899
-1401747
-1401773
-1401875
-1401928
-1401808
-1401870
-1401897
-1401955
-1401928
-1402190
-1402155
-1402283
-1402304
-1402671
-1402821
-1402797
-1402916
-1403073
-1403265
-1403370
-1403741
-1403886
-1403997
-1404036
-1404226
-1404060
-1404501
-1404813
-1405004
-1405246
-1405373
-1405629
-1405762
-1405742
-1406008
-1406083
-1406303
-1406354
-1406528
-1406603
-1406865
-1407030
-1407056
-1406627
-1407136
-1407208
-1407317
-1407461
-1407605
-1407712
-1407658
-1407673
-1407686
-1407781
-1407664
-1407870
-1407916
-1407748
-1407851
-1407857
-1407875
-1407895
-1407789
-1407741
-1407653
-1407784
-1407823
-1407659
-1407654
-1407721
-1407713
-1407652
-1407545
-1407543
-1407571
-1407712
-1407684
-1407714
-1407835
-1407840
-1407746
-1407699
-1407847
-1407957
-1407953
-1407895
-1407930
-1408052
-1408108
-1408096
-1408194
-1408108
-1409093
-1408411
-1408225
-1408233
-1408186
-1408262
-1408230
-1408146
-1408113
-1408287
-1408200
-1408181
-1408284
-1408183
-1408233
-1407969
-1408049
-1407932
-1407988
-1407933
-1407823
-1407627
-1407523
-1407590
-1407570
-1407639
-1407559
-1407443
-1407402
-1407349
-1407229
-1407247
-1406978
-1406975
-1406964
-1406866
-1406822
-1406843
-1406691
-1406641
-1406622
-1406714
-1406541
-1406686
-1406627
-1406509
-1406646
-1406626
-1406576
-1406478
-1406592
-1406609
-1406510
-1406514
-1406570
-1406680
-1406730
-1406873
-1406689
-1406910
-1406854
-1406978
-1407038
-1407053
-1407223
-1407123
-1407276
-1407425
-1407438
-1407364
-1407490
-1407597
-1407658
-1407759
-1407742
-1407792
-1408059
-1408182
-1408159
-1408370
-1408329
-1408375
-1408489
-1408880
-1408731
-1408818
-1408968
-1409070
-1409215
-1409491
-1409686
-1409844
-1410008
-1410123
-1410259
-1410313
-1410213
-1410216
-1410365
-1410563
-1410595
-1411769
-1411024
-1410991
-1410830
-1411013
-1411107
-1410971
-1411063
-1411290
-1411263
-1411452
-1411398
-1411439
-1411473
-1411515
-1411653
-1411732
-1411922
-1411970
-1411848
-1411875
-1412002
-1411991
-1412004
-1412022
-1412130
-1412221
-1412324
-1412391
-1412546
-1412443
-1412625
-1412709
-1412643
-1412681
-1412667
-1412780
-1412797
-1412946
-1413028
-1412983
-1413021
-1413155
-1413125
-1413043
-1413338
-1413329
-1413307
-1413432
-1413273
-1413288
-1413010
-1413261
-1413389
-1413539
-1413566
-1413550
-1413568
-1413707
-1413615
-1413636
-1413901
-1413895
-1413988
-1413903
-1414502
-1414051
-1413939
-1414885
-1414285
-1414259
-1414373
-1414269
-1414359
-1414361
-1414461
-1414498
-1414457
-1414584
-1414551
-1414661
-1414595
-1414614
-1414669
-1414657
-1414799
-1414738
-1414945
-1415105
-1414718
-1415022
-1415155
-1415098
-1415235
-1415330
-1415366
-1415245
-1415286
-1415447
-1415411
-1415576
-1415479
-1415706
-1415770
-1415822
-1415898
-1415809
-1415968
-1415827
-1415943
-1416026
-1416097
-1416238
-1416222
-1416141
-1416283
-1416313
-1416371
-1416451
-1416546
-1416743
-1416809
-1416865
-1416974
-1416993
-1417095
-1417203
-1417189
-1417191
-1417318
-1417455
-1417522
-1417614
-1417486
-1417513
-1417520
-1417662
-1417906
-1418056
-1417952
-1418213
-1418269
-1418388
-1418365
-1418467
-1418617
-1418585
-1418689
-1418740
-1418884
-1418811
-1418765
-1418884
-1418980
-1419098
-1419179
-1418850
-1419060
-1419082
-1419166
-1419244
-1419105
-1419269
-1419218
-1419193
-1418929
-1418946
-1418799
-1418508
-1418184
-1417944
-1416780
-1416865
-1416536
-1416094
-1415713
-1415134
-1414560
-1414024
-1413408
-1413498
-1412430
-1411446
-1410693
-1410145
-1409457
-1409001
-1408383
-1407696
-1406877
-1406486
-1405868
-1405423
-1404790
-1404349
-1403709
-1403430
-1403041
-1402601
-1402269
-1401879
-1401459
-1401179
-1400860
-1400537
-1400281
-1400072
-1399884
-1399945
-1399849
-1399633
-1399572
-1399412
-1399413
-1399502
-1399404
-1399523
-1399446
-1399630
-1399542
-1399588
-1399805
-1399889
-1399993
-1400004
-1400085
-1400214
-1400351
-1400602
-1400719
-1400906
-1400998
-1401214
-1401321
-1401467
-1401523
-1401693
-1401861
-1402153
-1402333
-1402346
-1402529
-1402607
-1402674
-1402901
-1402927
-1402961
-1403081
-1402891
-1403193
-1403462
-1403407
-1403505
-1403550
-1403635
-1403708
-1403938
-1403923
-1403949
-1403978
-1403870
-1403839
-1404009
-1404012
-1403961
-1403831
-1403916
-1403706
-1403633
-1403674
-1403522
-1403392
-1403362
-1403489
-1403323
-1403214
-1403092
-1403130
-1403017
-1402971
-1402865
-1402768
-1402736
-1402596
-1402723
-1402750
-1402674
-1402756
-1402637
-1402617
-1402531
-1402363
-1402418
-1402422
-1402371
-1402454
-1402453
-1402569
-1402582
-1402627
-1402823
-1402801
-1402828
-1402956
-1403677
-1403147
-1402939
-1403060
-1403002
-1403013
-1403131
-1403063
-1403286
-1403328
-1403327
-1403011
-1403115
-1403314
-1403271
-1403207
-1403260
-1403318
-1403358
-1403234
-1403424
-1403345
-1403428
-1403350
-1403247
-1403210
-1403308
-1403191
-1403214
-1403249
-1403281
-1402988
-1403173
-1403017
-1402861
-1403028
-1402968
-1402817
-1402861
-1402847
-1402961
-1402882
-1402815
-1402754
-1402725
-1402793
-1402719
-1402666
-1402646
-1402613
-1402696
-1402609
-1402735
-1402810
-1402720
-1402709
-1402800
-1402796
-1402749
-1402745
-1402702
-1402800
-1402872
-1402908
-1403000
-1403158
-1403204
-1403145
-1403328
-1403259
-1403371
-1403608
-1403536
-1403547
-1403829
-1403812
-1403988
-1403982
-1403877
-1404032
-1403985
-1404117
-1404245
-1404500
-1404456
-1404662
-1404730
-1404797
-1404667
-1404797
-1406243
-1405299
-1405091
-1405304
-1405220
-1405326
-1405536
-1405537
-1405530
-1405659
-1405840
-1405828
-1406041
-1406162
-1406088
-1406236
-1406219
-1406257
-1406407
-1406449
-1406539
-1406619
-1406730
-1406861
-1407000
-1407008
-1407185
-1407324
-1407182
-1407175
-1407421
-1407463
-1407503
-1407567
-1407549
-1407677
-1407665
-1407786
-1407526
-1407804
-1407873
-1407929
-1408104
-1408282
-1408278
-1408207
-1408384
-1408394
-1408450
-1408530
-1408080
-1408433
-1408585
-1408769
-1408804
-1408965
-1408784
-1408772
-1408921
-1409022
-1409997
-1409208
-1409194
-1409165
-1409262
-1409309
-1409196
-1409254
-1409243
-1409252
-1409309
-1409409
-1409540
-1409551
-1409547
-1409648
-1409755
-1409676
-1409769
-1409902
-1409840
-1409918
-1410133
-1410063
-1410229
-1410002
-1410203
-1410110
-1410185
-1410330
-1410227
-1410418
-1410382
-1410332
-1410549
-1410423
-1410537
-1410558
-1410554
-1410188
-1410646
-1410771
-1410748
-1410806
-1410793
-1410832
-1411012
-1411028
-1411073
-1411117
-1411210
-1411301
-1411245
-1411362
-1411449
-1411358
-1411497
-1411567
-1411632
-1411604
-1411639
-1411781
-1411873
-1411929
-1411829
-1411941
-1412000
-1412017
-1412031
-1412340
-1412455
-1412522
-1412595
-1412597
-1412665
-1412750
-1412849
-1412792
-1412833
-1412908
-1413068
-1412976
-1413040
-1413099
-1413332
-1413298
-1413539
-1413501
-1413588
-1413443
-1413583
-1413752
-1413924
-1413936
-1414023
-1414062
-1414160
-1414216
-1414272
-1414332
-1414574
-1414564
-1414731
-1414808
-1414806
-1414915
-1414893
-1415188
-1415040
-1415194
-1415178
-1415246
-1415295
-1415527
-1415566
-1415624
-1415750
-1415717
-1415701
-1415671
-1415593
-1415608
-1415590
-1415409
-1415364
-1414993
-1414798
-1414477
-1414032
-1413860
-1413483
-1413111
-1412574
-1412033
-1411430
-1410852
-1410236
-1409607
-1409036
-1407308
-1406086
-1404021
-1403430
-1402950
-1402279
-1401789
-1401352
-1400737
-1400303
-1400001
-1400326
-1399214
-1398811
-1398307
-1398002
-1397709
-1397513
-1397347
-1397013
-1396960
-1396709
-1396703
-1396442
-1396533
-1396373
-1396407
-1396402
-1396356
-1396341
-1396340
-1396475
-1396483
-1396533
-1396760
-1396857
-1396819
-1396956
-1397068
-1397244
-1397347
-1397456
-1397595
-1397684
-1397943
-1398029
-1398186
-1398408
-1398533
-1398752
-1399001
-1399009
-1399116
-1399413
-1399648
-1399812
-1399961
-1400034
-1400153
-1400206
-1400333
-1400486
-1400485
-1400733
-1400848
-1400884
-1401021
-1400953
-1401084
-1401234
-1401126
-1401149
-1401291
-1401194
-1401374
-1401352
-1401293
-1401275
-1401241
-1401254
-1401313
-1401288
-1401292
-1401324
-1401297
-1401204
-1401212
-1401184
-1401135
-1401122
-1401054
-1401011
-1400964
-1400938
-1400714
-1400792
-1400829
-1400859
-1400691
-1400696
-1401869
-1401061
-1400755
-1400635
-1400752
-1400846
-1400713
-1400689
-1400857
-1400405
-1400785
-1400505
-1400743
-1400972
-1401088
-1401048
-1401186
-1401138
-1401117
-1401349
-1401215
-1400995
-1401315
-1401305
-1401362
-1401424
-1401497
-1401556
-1401517
-1401411
-1401183
-1401413
-1401549
-1401448
-1401406
-1401488
-1401621
-1401431
-1401572
-1401556
-1401469
-1401547
-1401473
-1400935
-1401262
-1401338
-1401260
-1401274
-1401279
-1401231
-1401084
-1401133
-1400782
-1400957
-1401018
-1400842
-1400775
-1400914
-1400909
-1400799
-1400858
-1400751
-1400639
-1400666
-1400372
-1400617
-1400756
-1400730
-1400748
-1400893
-1400939
-1400651
-1400873
-1400984
-1400889
-1400908
-1400879
-1400991
-1401112
-1401145
-1401219
-1401186
-1401298
-1401443
-1401526
-1401564
-1401633
-1401613
-1401919
-1401917
-1402069
-1402096
-1402165
-1402302
-1402376
-1402483
-1402623
-1402720
-1402821
-1402987
-1403025
-1402932
-1403079
-1403203
-1403155
-1403199
-1403493
-1403500
-1403701
-1403851
-1404572
-1404217
-1404047
-1404103
-1404321
-1404524
-1404482
-1404483
-1404792
-1404880
-1405003
-1404988
-1404990
-1405324
-1405387
-1405293
-1405319
-1405574
-1405563
-1405580
-1405758
-1405893
-1405875
-1405903
-1405958
-1406194
-1405835
-1406349
-1406457
-1406511
-1406651
-1406823
-1406839
-1406736
-1406946
-1406950
-1406999
-1407158
-1407226
-1407324
-1407405
-1407468
-1407422
-1407574
-1407671
-1407605
-1407620
-1407697
-1407688
-1407798
-1407957
-1407915
-1407903
-1408156
-1408135
-1408110
-1408211
-1408299
-1408263
-1408318
-1408418
-1408383
-1408484
-1408589
-1408492
-1408648
-1408665
-1408833
-1408915
-1408858
-1408865
-1408907
-1408980
-1409113
-1409030
-1409077
-1409337
-1409252
-1409432
-1409504
-1409513
-1409377
-1409523
-1409597
-1409489
-1409577
-1409557
-1409648
-1409825
-1409908
-1409823
-1409922
-1410150
-1410254
-1410237
-1410216
-1410273
-1410352
-1410258
-1410454
-1410408
-1410413
-1410610
-1410582
-1410650
-1410765
-1410873
-1410900
-1410926
-1410781
-1410923
-1411025
-1411174
-1411280
-1411378
-1411449
-1411531
-1411442
-1411669
-1411417
-1411674
-1411724
-1411795
-1411808
-1411940
-1412112
-1412301
-1412369
-1412391
-1412474
-1412609
-1412613
-1412665
-1412707
-1412626
-1412718
-1412830
-1413647
-1413152
-1413147
-1413227
-1413226
-1413269
-1413489
-1413468
-1413611
-1413799
-1413767
-1413994
-1414049
-1414007
-1414180
-1414282
-1414433
-1414397
-1414500
-1414637
-1414714
-1414834
-1414883
-1414928
-1414937
-1415146
-1415203
-1415115
-1415208
-1415341
-1416157
-1415667
-1415642
-1415692
-1415889
-1415871
-1415804
-1415920
-1416143
-1416230
-1416274
-1416140
-1416167
-1416175
-1416205
-1416134
-1416141
-1416102
-1416095
-1415871
-1415643
-1415565
-1415290
-1415159
-1414648
-1414122
-1413731
-1414206
-1412909
-1412375
-1411940
-1411254
-1410737
-1410218
-1409506
-1409066
-1408323
-1407787
-1407079
-1406214
-1405935
-1405550
-1404886
-1404423
-1403780
-1403371
-1402905
-1402545
-1402105
-1401790
-1401439
-1401121
-1400543
-1400372
-1399998
-1399856
-1399498
-1399268
-1399040
-1399016
-1399017
-1398974
-1398923
-1398809
-1398831
-1398800
-1398720
-1398753
-1398856
-1398845
-1399131
-1399120
-1399363
-1399393
-1399581
-1399613
-1399866
-1399978
-1400161
-1400368
-1400425
-1400580
-1400685
-1401056
-1401254
-1401514
-1401661
-1401743
-1401966
-1402303
-1402393
-1402500
-1402842
-1402882
-1403162
-1403232
-1403411
-1403565
-1403903
-1403885
-1404033
-1404210
-1404264
-1404585
-1404642
-1404755
-1404841
-1404928
-1405167
-1405255
-1405304
-1405333
-1405389
-1405470
-1405681
-1405579
-1405530
-1405596
-1405578
-1405732
-1405720
-1405734
-1405711
-1405765
-1405472
-1405690
-1405583
-1405629
-1405716
-1405677
-1405780
-1405637
-1405593
-1405534
-1405520
-1405587
-1405734
-1405764
-1405668
-1405847
-1405709
-1405853
-1405857
-1405848
-1405932
-1407025
-1406275
-1406175
-1406093
-1406203
-1406163
-1406145
-1406301
-1406279
-1406397
-1406351
-1406387
-1407789
-1406995
-1406783
-1406634
-1406710
-1406606
-1406654
-1406764
-1406732
-1406676
-1406547
-1406605
-1406590
-1406725
-1406683
-1406455
-1406526
-1406703
-1406459
-1406348
-1406352
-1406351
-1406407
-1406264
-1406173
-1406172
-1406174
-1406309
-1406144
-1406058
-1406228
-1406203
-1406151
-1406073
-1406142
-1406225
-1406037
-1405997
-1406190
-1406082
-1406043
-1406142
-1406252
-1406062
-1406257
-1406165
-1406337
-1406262
-1406445
-1406410
-1406598
-1406670
-1406587
-1406710
-1406862
-1406787
-1406756
-1406971
-1406744
-1407045
-1407080
-1407292
-1407295
-1407459
-1407550
-1407810
-1407924
-1407496
-1407886
-1408045
-1408263
-1408390
-1408469
-1408639
-1408752
-1408888
-1408910
-1409126
-1409260
-1409082
-1409364
-1409332
-1409501
-1409585
-1409734
-1409951
-1409911
-1409679
-1409965
-1410319
-1410274
-1410459
-1410665
-1410796
-1410704
-1410953
-1411005
-1410988
-1411315
-1411262
-1411319
-1411367
-1411470
-1411516
-1411726
-1411830
-1411900
-1412117
-1412097
-1412148
-1412423
-1412382
-1412357
-1412479
-1412593
-1412761
-1412919
-1413008
-1413642
-1413216
-1413072
-1412956
-1413171
-1413386
-1413499
-1413623
-1414488
-1414049
-1413850
-1413944
-1414017
-1414113
-1414086
-1414194
-1414141
-1414198
-1414230
-1414305
-1414550
-1414459
-1414580
-1414634
-1414670
-1414879
-1414783
-1414876
-1415108
-1415136
-1415105
-1415233
-1415205
-1415209
-1415458
-1415438
-1415556
-1415684
-1415511
-1415581
-1415703
-1415762
-1415639
-1415740
-1415839
-1415950
-1416036
-1416181
-1416286
-1416077
-1416215
-1416242
-1416426
-1416460
-1416478
-1416497
-1416638
-1416656
-1416763
-1416857
-1416761
-1416961
-1416790
-1417082
-1417030
-1417218
-1417158
-1417263
-1417342
-1417536
-1417476
-1417516
-1417548
-1417626
-1417839
-1417864
-1418011
-1418041
-1418156
-1418261
-1418269
-1418323
-1418347
-1418433
-1418593
-1418706
-1418457
-1418869
-1419005
-1419010
-1419215
-1419139
-1419237
-1419730
-1419544
-1419577
-1419480
-1419719
-1419626
-1419705
-1419861
-1419942
-1420142
-1420277
-1420216
-1420245
-1420254
-1420334
-1420573
-1420688
-1420621
-1420863
-1420770
-1420902
-1420865
-1420774
-1420903
-1420887
-1420820
-1420812
-1420615
-1420470
-1420109
-1420017
-1419774
-1419379
-1419055
-1418679
-1418207
-1417829
-1417290
-1416822
-1416434
-1415781
-1415326
-1414686
-1414221
-1413699
-1413022
-1412507
-1411961
-1411527
-1410938
-1410423
-1410015
-1409595
-1409075
-1408615
-1408237
-1407983
-1407679
-1407397
-1407053
-1406781
-1406572
-1406178
-1405952
-1405885
-1405723
-1405646
-1405564
-1405446
-1405388
-1405247
-1405245
-1405381
-1405270
-1405365
-1405504
-1405618
-1405583
-1405834
-1405865
-1406291
-1406381
-1406450
-1406668
-1406800
-1407102
-1407293
-1407327
-1407529
-1407896
-1407997
-1408107
-1408257
-1408504
-1408674
-1408850
-1409188
-1409333
-1409581
-1409779
-1409965
-1410199
-1410359
-1410505
-1410731
-1410884
-1411072
-1411246
-1411404
-1411398
-1411461
-1411556
-1411904
-1412044
-1412034
-1412110
-1412147
-1412248
-1412284
-1412436
-1412574
-1412583
-1412577
-1412516
-1412677
-1412762
-1412933
-1413008
-1412880
-1412803
-1412902
-1412805
-1412857
-1412778
-1412819
-1412940
-1412797
-1412928
-1413013
-1413001
-1412940
-1412960
-1412935
-1413150
-1413013
-1413138
-1413385
-1413273
-1413411
-1413340
-1413377
-1413480
-1413465
-1413629
-1413604
-1413697
-1413657
-1413722
-1413752
-1413992
-1414049
-1413987
-1413958
-1414083
-1414177
-1414293
-1414348
-1414260
-1414478
-1414280
-1414250
-1414214
-1414320
-1414197
-1414176
-1414194
-1414158
-1414180
-1414177
-1414166
-1414176
-1414297
-1414196
-1414182
-1414123
-1414290
-1414253
-1414020
-1413922
-1414084
-1414012
-1413878
-1414034
-1414011
-1413908
-1413964
-1413859
-1413777
-1413813
-1414697
-1414210
-1413879
-1413843
-1413933
-1413963
-1413950
-1414059
-1414111
-1414151
-1414064
-1414179
-1414091
-1414103
-1414170
-1414281
-1414385
-1414351
-1414373
-1414545
-1414651
-1414673
-1414766
-1414743
-1414798
-1415114
-1415035
-1415242
-1415225
-1415437
-1415429
-1415613
-1415763
-1415712
-1415892
-1415888
-1416006
-1416216
-1416388
-1416515
-1416375
-1416588
-1416659
-1416931
-1416991
-1417226
-1417379
-1417522
-1417655
-1417701
-1417770
-1417747
-1417848
-1418115
-1418264
-1418426
-1418542
-1418460
-1418719
-1418851
-1418973
-1419119
-1419098
-1419305
-1419243
-1419442
-1419576
-1419658
-1419750
-1419907
-1419937
-1420024
-1420080
-1420048
-1420354
-1420432
-1420589
-1420610
-1420613
-1420687
-1420913
-1420991
-1420995
-1421124
-1421150
-1421392
-1421503
-1421476
-1421532
-1421692
-1421792
-1421818
-1421806
-1422009
-1422155
-1422179
-1422348
-1422338
-1422411
-1422459
-1422403
-1422600
-1422531
-1422720
-1422729
-1422884
-1423049
-1422608
-1423053
-1423219
-1423229
-1423187
-1423307
-1423454
-1423393
-1423544
-1423756
-1423785
-1423606
-1423776
-1423947
-1423895
-1423960
-1423880
-1424034
-1424293
-1424365
-1424327
-1424484
-1424386
-1424552
-1424587
-1424592
-1424640
-1424767
-1424804
-1424982
-1425141
-1424749
-1425013
-1425210
-1425301
-1425342
-1426467
-1425816
-1425804
-1425556
-1425592
-1425827
-1425853
-1425927
-1425889
-1425935
-1426131
-1426129
-1426153
-1426211
-1426279
-1426398
-1426392
-1426563
-1426689
-1426773
-1426812
-1426775
-1426928
-1426869
-1426942
-1427093
-1427076
-1427156
-1427376
-1427301
-1427322
-1427632
-1427599
-1427718
-1427835
-1427725
-1427769
-1428070
-1427811
-1427990
-1428280
-1428353
-1428387
-1428541
-1428506
-1428637
-1428671
-1428849
-1428933
-1428986
-1428777
-1429107
-1429192
-1429309
-1429403
-1429344
-1429271
-1429376
-1429588
-1429313
-1429575
-1429790
-1429657
-1429435
-1429655
-1429603
-1429551
-1429367
-1429249
-1429139
-1428731
-1428491
-1428135
-1427832
-1427521
-1427051
-1426642
-1425991
-1425490
-1424875
-1424363
-1423848
-1423368
-1422844
-1422132
-1421534
-1421073
-1420541
-1419860
-1419441
-1418921
-1418418
-1417894
-1417589
-1417010
-1416850
-1416462
-1415948
-1415677
-1415483
-1415057
-1414884
-1414612
-1414550
-1414331
-1413924
-1413855
-1413801
-1413615
-1413720
-1413628
-1413590
-1413587
-1413705
-1413720
-1413835
-1413962
-1413923
-1413989
-1414027
-1414269
-1414427
-1414693
-1414894
-1414893
-1415171
-1415244
-1415434
-1415482
-1415889
-1416087
-1416304
-1416464
-1416559
-1416713
-1417041
-1417238
-1417246
-1417489
-1417797
-1417929
-1418105
-1418316
-1418501
-1418755
-1418858
-1418980
-1418923
-1419263
-1419559
-1419574
-1419750
-1419709
-1419767
-1419796
-1420074
-1420065
-1420190
-1420327
-1420322
-1420437
-1420510
-1420497
-1420386
-1420415
-1420443
-1420499
-1420494
-1420448
-1420599
-1420460
-1420602
-1421093
-1420735
-1420411
-1420023
-1420205
-1420390
-1420398
-1420126
-1420149
-1420022
-1420129
-1420171
-1420283
-1420258
-1420239
-1420199
-1420270
-1420414
-1420334
-1420453
-1420557
-1420711
-1420796
-1420790
-1420942
-1421006
-1421159
-1421060
-1421268
-1421374
-1421444
-1421523
-1421644
-1421682
-1421706
-1421798
-1421711
-1421681
-1421720
-1421976
-1421996
-1422067
-1422186
-1422152
-1422151
-1422253
-1422190
-1422314
-1422269
-1422317
-1422364
-1422257
-1422292
-1422327
-1422386
-1422284
-1422202
-1422247
-1422366
-1422203
-1422342
-1422369
-1422321
-1422251
-1422216
-1422219
-1422201
-1422374
-1422360
-1422174
-1422267
-1422298
-1422190
-1422322
-1422341
-1422247
-1422416
-1422276
-1422507
-1422515
-1422632
-1422685
-1422799
-1422776
-1422901
-1422889
-1422883
-1423205
-1423368
-1423388
-1423447
-1423623
-1423725
-1423732
-1423795
-1424056
-1424197
-1424336
-1424395
-1424501
-1424661
-1424743
-1424830
-1424904
-1424914
-1424968
-1425173
-1425196
-1425358
-1425388
-1425608
-1425661
-1425709
-1425818
-1426149
-1426290
-1426213
-1426397
-1426400
-1426629
-1426595
-1426807
-1426838
-1427039
-1427186
-1427319
-1427454
-1427451
-1427462
-1427603
-1427767
-1427956
-1428030
-1428028
-1428193
-1428187
-1428351
-1428515
-1428469
-1428247
-1428660
-1428810
-1428740
-1428972
-1429069
-1429228
-1429278
-1429237
-1429378
-1429456
-1429527
-1429674
-1429805
-1429839
-1429879
-1429987
-1429761
-1430069
-1430216
-1430289
-1430402
-1430481
-1430410
-1430554
-1430532
-1430636
-1430707
-1430749
-1430863
-1430949
-1430935
-1431020
-1430968
-1431071
-1431233
-1431214
-1431351
-1431357
-1431466
-1431638
-1431617
-1431511
-1431681
-1431793
-1431732
-1431837
-1431836
-1431882
-1431979
-1432180
-1432043
-1432281
-1432298
-1432190
-1432281
-1432360
-1432576
-1432500
-1432578
-1433687
-1432996
-1432925
-1432930
-1432913
-1432988
-1432818
-1432832
-1433158
-1433042
-1433133
-1433116
-1433206
-1433378
-1433546
-1433414
-1433495
-1433509
-1433703
-1433786
-1433905
-1433786
-1433919
-1433944
-1434923
-1434278
-1434303
-1434424
-1434456
-1434415
-1434381
-1434590
-1434691
-1434766
-1434708
-1434868
-1434824
-1434946
-1434956
-1435055
-1435284
-1435166
-1435265
-1435483
-1435451
-1435572
-1435617
-1435716
-1435861
-1436012
-1435883
-1435976
-1436222
-1436162
-1436350
-1436264
-1436415
-1436461
-1436645
-1436715
-1436826
-1436927
-1436889
-1437114
-1437164
-1437263
-1437301
-1437336
-1437350
-1437470
-1437545
-1437571
-1437807
-1437892
-1437984
-1437881
-1437932
-1438122
-1438170
-1438067
-1438054
-1438051
-1438061
-1438127
-1438023
-1437903
-1438015
-1437865
-1437640
-1437484
-1437128
-1436854
-1436425
-1436075
-1435565
-1435258
-1434754
-1434209
-1433623
-1433082
-1432463
-1431936
-1430991
-1430668
-1429821
-1429586
-1429116
-1428416
-1427915
-1427304
-1426898
-1426311
-1425813
-1425493
-1424958
-1424658
-1424176
-1423985
-1423538
-1423340
-1423118
-1422883
-1422379
-1422327
-1422185
-1421717
-1421797
-1421798
-1421896
-1421915
-1421905
-1421787
-1421708
-1421809
-1421855
-1421954
-1422189
-1422271
-1422398
-1422539
-1422686
-1422855
-1423059
-1423212
-1423265
-1423463
-1423494
-1423875
-1423992
-1424197
-1424333
-1424469
-1424807
-1425045
-1425104
-1425370
-1425627
-1425726
-1425927
-1426235
-1426318
-1426464
-1426775
-1426764
-1426949
-1427201
-1427383
-1427544
-1427576
-1427577
-1427758
-1427927
-1428052
-1428184
-1428134
-1428186
-1428433
-1428523
-1428480
-1428563
-1428473
-1428592
-1428596
-1428616
-1428665
-1428619
-1428518
-1428702
-1428534
-1428503
-1428360
-1428551
-1428331
-1428413
-1428255
-1428310
-1428239
-1428286
-1428115
-1428227
-1428097
-1428151
-1428118
-1428069
-1428987
-1428370
-1428188
-1428084
-1428132
-1428116
-1428102
-1428170
-1428339
-1428254
-1428243
-1428387
-1428336
-1428468
-1428383
-1428544
-1428630
-1428641
-1428284
-1428629
-1428733
-1428891
-1428837
-1428978
-1429049
-1429016
-1429150
-1429272
-1429277
-1429191
-1429178
-1429281
-1429396
-1429428
-1429261
-1429259
-1429336
-1429314
-1429357
-1429181
-1429283
-1429209
-1429353
-1429326
-1429424
-1429507
-1429317
-1429187
-1429359
-1429463
-1429253
-1429261
-1429418
-1429425
-1429414
-1429289
-1429178
-1429237
-1429383
-1429445
-1429460
-1429401
-1429479
-1429399
-1429382
-1429511
-1429414
-1429492
-1429663
-1429739
-1429794
-1429684
-1429860
-1429837
-1429803
-1429922
-1429948
-1430064
-1430087
-1430281
-1430205
-1430183
-1430268
-1430500
-1430657
-1430842
-1430856
-1430750
-1431019
-1431182
-1430976
-1431176
-1431301
-1431575
-1431543
-1431567
-1431626
-1431765
-1431831
-1431991
-1432233
-1432345
-1432513
-1432467
-1432656
-1432643
-1432817
-1433048
-1433155
-1433223
-1433192
-1433110
-1433101
-1433093
-1433547
-1433776
-1433839
-1433908
-1434028
-1434196
-1434337
-1434404
-1434518
-1434605
-1434727
-1434711
-1434853
-1434967
-1435128
-1435152
-1435206
-1435207
-1435315
-1435324
-1435512
-1435571
-1435670
-1435599
-1435695
-1435738
-1435933
-1435968
-1436127
-1436232
-1436138
-1436164
-1436385
-1436398
-1436498
-1436585
-1436541
-1436700
-1436624
-1436682
-1436887
-1436789
-1436974
-1436878
-1437134
-1437057
-1437231
-1437237
-1437424
-1437508
-1437608
-1437594
-1437652
-1437560
-1437711
-1437785
-1437649
-1437847
-1437780
-1437869
-1437839
-1437796
-1438116
-1438160
-1438185
-1438277
-1437947
-1438371
-1438335
-1438444
-1438442
-1438518
-1438507
-1438722
-1438782
-1438871
-1438945
-1438866
-1438784
-1438863
-1438904
-1439108
-1439146
-1439294
-1439364
-1439330
-1439312
-1439473
-1439568
-1439505
-1439615
-1439496
-1439534
-1439784
-1439877
-1439910
-1440021
-1440180
-1440251
-1440409
-1440521
-1440567
-1440409
-1440495
-1440736
-1440750
-1440708
-1440924
-1441064
-1441145
-1441082
-1441151
-1441276
-1441423
-1441442
-1441543
-1441534
-1441428
-1441489
-1441696
-1441839
-1441745
-1441788
-1441852
-1441939
-1441573
-1442167
-1442101
-1442283
-1442380
-1442366
-1442553
-1442520
-1442647
-1442795
-1442843
-1442844
-1443045
-1442968
-1443097
-1443174
-1443275
-1443052
-1443237
-1443514
-1443707
-1443608
-1443747
-1443724
-1443734
-1443987
-1444041
-1444121
-1444310
-1444312
-1444449
-1444567
-1444696
-1444811
-1444689
-1444872
-1444883
-1444998
-1445012
-1445057
-1445085
-1445296
-1445332
-1445358
-1445569
-1445715
-1445814
-1445840
-1445970
-1446451
-1446194
-1446108
-1446193
-1446917
-1446545
-1446373
-1446342
-1446547
-1446366
-1446391
-1446326
-1446355
-1446447
-1446507
-1446323
-1446113
-1445748
-1445922
-1445634
-1445451
-1445127
-1444756
-1444425
-1443860
-1443395
-1442999
-1442417
-1441823
-1441169
-1440565
-1439772
-1439199
-1438684
-1438012
-1437481
-1436694
-1436152
-1435565
-1434981
-1434288
-1433872
-1433412
-1432973
-1432443
-1431962
-1431537
-1431231
-1430925
-1430494
-1430096
-1429810
-1429775
-1429562
-1429443
-1429140
-1428963
-1428814
-1428920
-1428957
-1428924
-1428810
-1428940
-1429028
-1428900
-1428957
-1429160
-1429269
-1429192
-1429514
-1429558
-1429834
-1429889
-1430064
-1430359
-1430515
-1430724
-1430709
-1431015
-1431256
-1431487
-1431584
-1431837
-1432016
-1432041
-1432455
-1432694
-1432940
-1432967
-1433084
-1433352
-1433565
-1433739
-1433987
-1434020
-1434147
-1434175
-1434470
-1434586
-1434729
-1434848
-1434974
-1435084
-1435352
-1435231
-1435302
-1435389
-1435459
-1435406
-1435531
-1435400
-1435471
-1435550
-1435537
-1435641
-1435509
-1435422
-1435486
-1435543
-1435497
-1435380
-1435534
-1435331
-1435369
-1435494
-1435396
-1435424
-1435336
-1435309
-1435264
-1435209
-1435032
-1434994
-1435131
-1435101
-1435168
-1435145
-1435032
-1435039
-1435041
-1435182
-1435276
-1435284
-1435240
-1435210
-1435407
-1435446
-1435784
-1435683
-1435716
-1435851
-1435919
-1436046
-1436024
-1436008
-1436174
-1436189
-1436298
-1436450
-1436595
-1436496
-1436639
-1436312
-1436539
-1436483
-1436699
-1436788
-1436841
-1436782
-1436836
-1436753
-1436742
-1436867
-1437015
-1436983
-1437043
-1436989
-1436790
-1436754
-1436850
-1437001
-1437066
-1436924
-1436953
-1436873
-1436701
-1436827
-1436528
-1436511
-1436802
-1436827
-1436632
-1436629
-1436541
-1436808
-1436846
-1436825
-1436681
-1436825
-1436833
-1436267
-1436528
-1436793
-1436916
-1436874
-1436792
-1436789
-1436762
-1436809
-1436889
-1436860
-1437068
-1437245
-1437252
-1437296
-1437349
-1437409
-1437438
-1437547
-1437484
-1437682
-1437844
-1437903
-1437910
-1438021
-1438149
-1438257
-1438149
-1438247
-1438485
-1438607
-1438582
-1438615
-1438735
-1438957
-1439060
-1439164
-1439149
-1439234
-1439294
-1439457
-1439473
-1439292
-1439697
-1439780
-1439946
-1440145
-1440094
-1440201
-1440297
-1440336
-1440345
-1440489
-1440651
-1440649
-1440904
-1440887
-1441094
-1441161
-1441224
-1441155
-1441192
-1441327
-1441531
-1441556
-1441641
-1441781
-1441820
-1441807
-1442020
-1441941
-1442061
-1442165
-1442260
-1442241
-1442209
-1442450
-1442384
-1443141
-1442692
-1442670
-1442802
-1442841
-1442903
-1442936
-1442896
-1443015
-1443034
-1444282
-1443606
-1443360
-1443254
-1443280
-1443439
-1443521
-1443471
-1443570
-1443686
-1443601
-1443808
-1443854
-1443754
-1443894
-1443609
-1443814
-1443969
-1444056
-1444076
-1444191
-1444084
-1444159
-1444246
-1444404
-1444477
-1444353
-1444354
-1444425
-1444554
-1444682
-1444795
-1444787
-1444796
-1444937
-1444856
-1444998
-1445117
-1445033
-1445003
-1444994
-1445263
-1445406
-1445279
-1445437
-1445366
-1445507
-1445494
-1445166
-1445426
-1445500
-1445316
-1445770
-1445758
-1445833
-1445955
-1446014
-1445972
-1446137
-1446092
-1446098
-1446093
-1446283
-1447338
-1446735
-1446528
-1446588
-1446638
-1446695
-1446617
-1446712
-1446681
-1446837
-1446951
-1447014
-1446743
-1446974
-1446840
-1447070
-1447296
-1447334
-1447286
-1447451
-1447450
-1447593
-1448498
-1447935
-1447626
-1447622
-1447716
-1447739
-1447696
-1447824
-1447999
-1448107
-1448046
-1448177
-1448183
-1448294
-1448020
-1448310
-1448157
-1448443
-1448556
-1448462
-1448436
-1448596
-1448675
-1448829
-1448764
-1448766
-1448986
-1448967
-1449163
-1449205
-1449333
-1449392
-1449447
-1449396
-1449395
-1449610
-1449700
-1449889
-1451041
-1450193
-1450127
-1450007
-1450162
-1450063
-1450186
-1450404
-1450365
-1450512
-1450650
-1450617
-1450743
-1450805
-1450896
-1450767
-1450907
-1450897
-1450945
-1451044
-1451114
-1451326
-1452433
-1451713
-1451623
-1451210
-1451431
-1451699
-1451780
-1451827
-1451959
-1452132
-1452020
-1451954
-1452223
-1452231
-1452334
-1452383
-1452213
-1452442
-1452299
-1452320
-1452367
-1452315
-1452158
-1452138
-1451977
-1451432
-1451333
-1451102
-1450819
-1450488
-1450104
-1449614
-1449153
-1448604
-1448214
-1447675
-1447100
-1446434
-1445839
-1445254
-1444563
-1443882
-1443055
-1442581
-1441903
-1441342
-1440811
-1440403
-1439764
-1439161
-1438549
-1438082
-1437630
-1437371
-1436913
-1436637
-1436216
-1436067
-1435814
-1435496
-1435153
-1435078
-1434597
-1434458
-1434768
-1434693
-1434715
-1434687
-1434580
-1434728
-1434675
-1434661
-1434810
-1434862
-1435009
-1435185
-1435155
-1435485
-1435604
-1435785
-1436016
-1436144
-1436323
-1436509
-1436546
-1436873
-1437058
-1437232
-1437481
-1437700
-1437843
-1438086
-1438223
-1438370
-1438593
-1438695
-1439110
-1439270
-1439584
-1439581
-1439702
-1439977
-1440101
-1440385
-1440670
-1440682
-1440676
-1440879
-1441018
-1441218
-1441332
-1441415
-1441625
-1441630
-1441583
-1441663
-1441765
-1441850
-1441759
-1441891
-1441832
-1441960
-1441869
-1441800
-1441779
-1441964
-1441807
-1441832
-1441927
-1441921
-1441928
-1441512
-1441642
-1441599
-1441703
-1441760
-1441378
-1441514
-1441565
-1441423
-1441447
-1441494
-1441568
-1441547
-1441453
-1441786
-1441834
-1441883
-1441897
-1441972
-1441928
-1442089
-1442166
-1442188
-1442273
-1442192
-1442290
-1442402
-1442487
-1442339
-1442497
-1442567
-1442535
-1442696
-1442781
-1442866
-1442690
-1442899
-1443005
-1442823
-1442893
-1442996
-1442986
-1442847
-1442989
-1442938
-1443034
-1442920
-1442977
-1442902
-1442954
-1442990
-1442774
-1442491
-1442742
-1442874
-1442749
-1442798
-1442760
-1442319
-1442656
-1442602
-1442594
-1442646
-1442517
-1442558
-1442554
-1442455
-1442517
-1442508
-1442475
-1442459
-1442550
-1442492
-1442363
-1442503
-1442543
-1442754
-1442655
-1442597
-1442712
-1442773
-1442797
-1442892
-1442809
-1442828
-1443047
-1443127
-1443104
-1443123
-1443262
-1443405
-1443404
-1443506
-1443446
-1443667
-1443777
-1443850
-1443942
-1443931
-1444107
-1444045
-1444148
-1444416
-1444400
-1444496
-1444216
-1444555
-1444791
-1444960
-1445004
-1445234
-1445264
-1445402
-1445442
-1445443
-1445610
-1445627
-1445783
-1445898
-1445915
-1446136
-1446180
-1446444
-1446330
-1446561
-1446623
-1446607
-1446751
-1446870
-1446880
-1446955
-1447046
-1447186
-1447221
-1447298
-1447494
-1447408
-1447518
-1447711
-1447815
-1447730
-1447963
-1448027
-1448099
-1448188
-1448109
-1448180
-1448203
-1448266
-1448439
-1448547
-1448615
-1448733
-1448600
-1448791
-1448711
-1448716
-1448880
-1449062
-1449218
-1449177
-1449145
-1449289
-1449150
-1449235
-1449402
-1449547
-1449389
-1449635
-1449740
-1449673
-1449657
-1449722
-1449848
-1449837
-1450033
-1449977
-1450036
-1450134
-1450029
-1450236
-1450156
-1450139
-1450266
-1450334
-1450350
-1450517
-1450433
-1450476
-1450543
-1450656
-1450608
-1450663
-1450681
-1450837
-1450924
-1450935
-1451063
-1451067
-1450971
-1450946
-1451029
-1451223
-1451332
-1451169
-1451392
-1451408
-1451545
-1451562
-1451573
-1451675
-1451649
-1451703
-1452560
-1451988
-1451735
-1451785
-1451866
-1452049
-1452020
-1451993
-1452176
-1452197
-1452082
-1452098
-1452129
-1452352
-1452445
-1452404
-1452507
-1452615
-1452594
-1452514
-1452634
-1452758
-1452772
-1452758
-1452779
-1452890
-1452966
-1453054
-1453080
-1453168
-1453132
-1453164
-1453261
-1453240
-1453283
-1453383
-1453469
-1453630
-1453682
-1453779
-1453599
-1453786
-1453925
-1453992
-1453954
-1453966
-1453922
-1454128
-1454174
-1454204
-1454313
-1454370
-1454462
-1454479
-1454720
-1454600
-1454793
-1454711
-1454731
-1454874
-1454995
-1455129
-1455083
-1455219
-1455227
-1455308
-1454922
-1455247
-1455428
-1455519
-1455777
-1455690
-1455895
-1455968
-1456089
-1456138
-1456286
-1456118
-1456367
-1456487
-1456472
-1456508
-1456525
-1456673
-1456783
-1456716
-1456951
-1456921
-1456894
-1456988
-1457107
-1457098
-1457089
-1457234
-1457300
-1457101
-1457149
-1457215
-1457104
-1456845
-1456917
-1456756
-1456515
-1456336
-1456007
-1455640
-1455092
-1454791
-1454227
-1453814
-1453289
-1452424
-1452078
-1451600
-1451110
-1450368
-1449870
-1449103
-1448581
-1448113
-1447573
-1446906
-1446507
-1445748
-1445302
-1444812
-1444350
-1443825
-1443599
-1443095
-1442789
-1442426
-1442143
-1441837
-1441638
-1441295
-1441127
-1440943
-1440888
-1440707
-1440577
-1440524
-1440630
-1440601
-1440632
-1440651
-1440746
-1440752
-1440884
-1440882
-1441075
-1441003
-1441340
-1441434
-1441494
-1441691
-1441941
-1442191
-1442199
-1442320
-1442763
-1442825
-1443154
-1443365
-1443428
-1443662
-1443990
-1444088
-1444315
-1444611
-1444703
-1444913
-1445232
-1445280
-1445640
-1445869
-1445966
-1446213
-1446094
-1446474
-1446719
-1446953
-1447033
-1447000
-1447105
-1447217
-1447336
-1447676
-1447746
-1448045
-1448104
-1448095
-1448334
-1448330
-1448430
-1448268
-1448233
-1448239
-1448379
-1448406
-1448302
-1448343
-1448277
-1448304
-1448280
-1448305
-1448208
-1448209
-1448210
-1448297
-1448239
-1448271
-1448242
-1448190
-1448211
-1448318
-1448206
-1448398
-1448524
-1448518
-1448546
-1448491
-1448650
-1448492
-1448610
-1448751
-1448824
-1448828
-1448913
-1448970
-1449121
-1449184
-1449207
-1449061
-1449152
-1449112
-1449246
-1449277
-1449258
-1449397
-1449372
-1449418
-1449438
-1449303
-1449227
-1449318
-1449365
-1449405
-1449426
-1449343
-1449420
-1449298
-1449416
-1449207
-1449340
-1449325
-1449313
-1449307
-1449284
-1449085
-1449044
-1449214
-1449021
-1449079
-1449135
-1449051
-1448992
-1448934
-1448923
-1449039
-1448886
-1448853
-1448845
-1448991
-1448989
-1448901
-1449023
-1448923
-1449033
-1448907
-1449051
-1449249
-1449061
-1449243
-1449276
-1448804
-1449080
-1449351
-1449433
-1449154
-1449537
-1449451
-1449626
-1449248
-1449642
-1449933
-1449975
-1449963
-1449923
-1450068
-1450283
-1450013
-1450341
-1450568
-1451463
-1450935
-1451064
-1450890
-1450939
-1451024
-1451257
-1451141
-1451313
-1451383
-1451502
-1451597
-1451639
-1451887
-1451930
-1453033
-1452561
-1452384
-1452415
-1452385
-1452579
-1452329
-1452595
-1452855
-1452981
-1453006
-1453146
-1453073
-1453237
-1453201
-1453448
-1453634
-1453699
-1453789
-1453903
-1453993
-1454075
-1454159
-1454170
-1454324
-1454404
-1454509
-1454514
-1454634
-1454471
-1454707
-1454794
-1454839
-1454825
-1454868
-1455033
-1455043
-1455224
-1455143
-1455268
-1455387
-1455316
-1455496
-1455676
-1455627
-1455752
-1455722
-1455848
-1455953
-1456075
-1456059
-1456036
-1456074
-1456143
-1456277
-1456312
-1456298
-1456399
-1456362
-1456512
-1456399
-1456557
-1456528
-1456661
-1456764
-1456705
-1456920
-1456884
-1456961
-1457084
-1456936
-1457148
-1457098
-1457209
-1457305
-1457266
-1457481
-1457485
-1457377
-1457028
-1457394
-1457604
-1457693
-1457740
-1457843
-1457897
-1457968
-1458027
-1458017
-1457919
-1457997
-1457995
-1458035
-1458142
-1458172
-1458226
-1458375
-1458424
-1458442
-1458425
-1458589
-1458659
-1458668
-1458694
-1458790
-1458787
-1458394
-1458646
-1458688
-1459084
-1458858
-1458935
-1459042
-1459127
-1459233
-1459192
-1459288
-1459397
-1459396
-1459451
-1459538
-1459592
-1459513
-1459632
-1459653
-1459816
-1459859
-1459882
-1460036
-1459930
-1459928
-1459979
-1460256
-1460277
-1460257
-1460413
-1460554
-1460551
-1460553
-1460656
-1460869
-1460868
-1460748
-1460824
-1460956
-1460939
-1461164
-1462139
-1460989
-1462061
-1461244
-1461219
-1461387
-1461473
-1461302
-1461557
-1461766
-1462727
-1463409
-1463139
-1461926
-1462024
-1462057
-1462172
-1462203
-1462382
-1462373
-1462635
-1462673
-1462710
-1462558
-1462744
-1462841
-1462679
-1462593
-1462638
-1462575
-1462591
-1462499
-1462261
-1462028
-1461849
-1461685
-1461229
-1460797
-1460422
-1460019
-1458930
-1458576
-1457941
-1457270
-1456769
-1455981
-1455558
-1454993
-1454192
-1453703
-1452932
-1452392
-1451803
-1451224
-1450630
-1450062
-1449654
-1449158
-1448795
-1448392
-1447987
-1447447
-1447226
-1446945
-1446648
-1446442
-1446053
-1445928
-1445803
-1445564
-1445492
-1445454
-1445474
-1445415
-1445318
-1445453
-1445422
-1445327
-1445053
-1445503
-1445714
-1445745
-1445887
-1445973
-1446013
-1446184
-1446234
-1446518
-1446673
-1446989
-1447140
-1447397
-1447588
-1447654
-1447945
-1448176
-1448404
-1448421
-1448782
-1448995
-1449297
-1449348
-1449592
-1449863
-1450007
-1450153
-1450264
-1450335
-1450645
-1450696
-1450779
-1451109
-1451193
-1451397
-1451372
-1451588
-1451639
-1451834
-1451924
-1452044
-1452006
-1452268
-1452328
-1452228
-1452267
-1452479
-1452513
-1452436
-1452542
-1452474
-1452608
-1452582
-1452670
-1452696
-1452635
-1452689
-1452587
-1452489
-1452492
-1452480
-1452504
-1452319
-1452409
-1452357
-1452261
-1452245
-1452304
-1452174
-1452138
-1452167
-1452109
-1452219
-1452053
-1452158
-1452055
-1452207
-1452245
-1452214
-1452326
-1452330
-1452432
-1452337
-1452409
-1452502
-1452555
-1452370
-1452724
-1452743
-1452921
-1452930
-1452916
-1453190
-1453262
-1453153
-1453367
-1453354
-1453384
-1453445
-1453372
-1453507
-1453618
-1453566
-1453713
-1453652
-1453708
-1453764
-1453592
-1453759
-1453595
-1453750
-1453715
-1453647
-1453812
-1453622
-1453517
-1453785
-1453545
-1453228
-1453452
-1453572
-1453530
-1453702
-1453556
-1453547
-1453442
-1453554
-1453606
-1453557
-1453475
-1453597
-1453568
-1453557
-1453398
-1453528
-1453445
-1453489
-1453465
-1453597
-1453580
-1453574
-1453480
-1453486
-1453413
-1453547
-1453743
-1453597
-1453699
-1453698
-1453825
-1453767
-1453837
-1453893
-1453917
-1454051
-1454142
-1454089
-1454674
-1454530
-1454409
-1454473
-1454653
-1454641
-1454751
-1454738
-1454896
-1455008
-1455153
-1455170
-1455182
-1455297
-1455370
-1455375
-1455521
-1455624
-1455699
-1455782
-1455974
-1456013
-1456121
-1456195
-1456188
-1456425
-1456650
-1456731
-1456806
-1456772
-1456926
-1457081
-1457250
-1457278
-1457377
-1457292
-1457480
-1457476
-1457526
-1457586
-1457503
-1457778
-1457872
-1458028
-1458178
-1458252
-1458270
-1458244
-1458362
-1458398
-1458521
-1458493
-1458483
-1458674
-1458696
-1458810
-1458956
-1458854
-1458926
-1459084
-1459141
-1459178
-1459302
-1459441
-1459376
-1459511
-1459473
-1459643
-1459715
-1459821
-1459754
-1459956
-1459859
-1459837
-1459937
-1460162
-1460177
-1460278
-1460163
-1460301
-1460381
-1460397
-1460518
-1460516
-1460449
-1460538
-1460610
-1460622
-1460696
-1460636
-1460831
-1460777
-1460706
-1460734
-1461005
-1460850
-1460849
-1460850
-1461071
-1461166
-1461083
-1461073
-1461195
-1461332
-1461236
-1461341
-1461401
-1461475
-1461424
-1461473
-1461551
-1461647
-1461716
-1461603
-1461733
-1461690
-1461881
-1461906
-1461899
-1461806
-1461694
-1461848
-1461900
-1461873
-1461953
-1461988
-1462189
-1462120
-1462237
-1462322
-1462312
-1462335
-1462549
-1462585
-1462577
-1462580
-1462713
-1462741
-1462850
-1462675
-1462810
-1462862
-1462765
-1462926
-1463022
-1462983
-1463049
-1463170
-1463336
-1463297
-1463269
-1463402
-1463540
-1463681
-1463709
-1463731
-1463850
-1463928
-1463968
-1463875
-1463977
-1463607
-1463952
-1464186
-1464361
-1464419
-1464427
-1464521
-1464671
-1464715
-1464821
-1464799
-1464936
-1464927
-1464995
-1465033
-1465156
-1465302
-1465140
-1465319
-1465420
-1465532
-1465328
-1465493
-1465545
-1465635
-1465544
-1465448
-1465421
-1465356
-1465286
-1465143
-1464800
-1464809
-1464675
-1464448
-1464111
-1463653
-1463165
-1462677
-1462327
-1461729
-1461285
-1460798
-1460290
-1459686
-1458986
-1458462
-1457945
-1457216
-1456557
-1456153
-1455584
-1454975
-1454520
-1454061
-1453555
-1453116
-1451395
-1451018
-1450829
-1450432
-1450241
-1450008
-1449875
-1449840
-1449735
-1449512
-1449494
-1449317
-1449318
-1449364
-1449387
-1449324
-1449432
-1449409
-1449438
-1449579
-1449677
-1449701
-1450014
-1450182
-1450168
-1450367
-1450606
-1450813
-1450849
-1451071
-1451272
-1451433
-1451695
-1451919
-1452069
-1452319
-1452380
-1452638
-1452950
-1453016
-1453254
-1453220
-1453440
-1453688
-1454064
-1454265
-1454436
-1454667
-1454765
-1454832
-1454831
-1455122
-1455313
-1455356
-1455529
-1455761
-1455891
-1456028
-1456024
-1456017
-1456028
-1456119
-1456104
-1456288
-1456377
-1456481
-1456510
-1456535
-1456592
-1456529
-1456452
-1456637
-1456593
-1456603
-1456427
-1456504
-1456365
-1456284
-1456209
-1456210
-1456148
-1456353
-1456371
-1456432
-1456296
-1456237
-1456108
-1456167
-1456392
-1456233
-1456298
-1456531
-1456582
-1456472
-1456518
-1456693
-1456674
-1456637
-1456886
-1457014
-1457044
-1456998
-1457133
-1457157
-1457278
-1457229
-1457219
-1457241
-1457451
-1457423
-1457493
-1457527
-1457465
-1457666
-1457652
-1457627
-1457734
-1457709
-1457639
-1457523
-1457679
-1457561
-1457495
-1457433
-1457573
-1457539
-1457655
-1457516
-1457343
-1457478
-1457422
-1457489
-1457337
-1457393
-1457333
-1457210
-1457161
-1457072
-1457112
-1457003
-1457211
-1457117
-1457081
-1457092
-1456977
-1457078
-1457093
-1456905
-1457026
-1457042
-1457079
-1457028
-1457156
-1457225
-1457166
-1457234
-1457270
-1457304
-1457164
-1457173
-1457357
-1457488
-1457380
-1457510
-1457499
-1457641
-1457839
-1457724
-1457794
-1458011
-1457916
-1457984
-1458140
-1458199
-1458180
-1458244
-1458475
-1458534
-1458677
-1458758
-1458575
-1458797
-1458881
-1459131
-1459239
-1459232
-1459365
-1459424
-1459534
-1459605
-1459860
-1459981
-1460086
-1459824
-1460162
-1460399
-1460450
-1460587
-1460612
-1460554
-1460698
-1460802
-1460881
-1461081
-1461242
-1461345
-1461273
-1461461
-1461424
-1461477
-1461594
-1461730
-1461747
-1461825
-1461886
-1461742
-1462061
-1462107
-1462274
-1462205
-1462404
-1462439
-1462618
-1462640
-1462836
-1462777
-1462941
-1462981
-1462918
-1463026
-1463054
-1463169
-1463259
-1463209
-1463213
-1463420
-1463448
-1463520
-1463632
-1463631
-1463544
-1463657
-1463840
-1463898
-1463770
-1463947
-1463878
-1464033
-1464068
-1464013
-1464185
-1464113
-1464128
-1464131
-1464233
-1464279
-1464300
-1464295
-1464426
-1464475
-1464515
-1464551
-1464570
-1464461
-1464639
-1464683
-1464652
-1464568
-1464611
-1464768
-1464852
-1464946
-1464799
-1464842
-1465077
-1464937
-1465489
-1465094
-1465009
-1465017
-1465100
-1465274
-1465281
-1465273
-1465281
-1465440
-1465458
-1465438
-1465562
-1465452
-1465491
-1465530
-1465544
-1465639
-1465711
-1465738
-1465846
-1465843
-1466001
-1466114
-1466086
-1466023
-1466225
-1466159
-1466324
-1466237
-1466265
-1466547
-1466545
-1466475
-1466463
-1466704
-1466757
-1466728
-1466944
-1466729
-1466863
-1466792
-1466900
-1467042
-1467190
-1467207
-1467138
-1467326
-1467520
-1467388
-1467541
-1467689
-1467577
-1467703
-1467772
-1467860
-1467876
-1468010
-1467956
-1468036
-1467651
-1467974
-1468113
-1468190
-1468243
-1468291
-1468393
-1468541
-1469045
-1468885
-1467673
-1468399
-1468732
-1468949
-1469064
-1469180
-1469096
-1469154
-1469217
-1469441
-1469542
-1469505
-1469619
-1469667
-1469702
-1469604
-1469726
-1469580
-1469107
-1469431
-1469391
-1469251
-1469209
-1469070
-1468962
-1468740
-1468281
-1468028
-1467659
-1467121
-1466566
-1466042
-1465536
-1465124
-1464581
-1463869
-1463276
-1462736
-1462073
-1461377
-1460679
-1460046
-1459206
-1458867
-1458388
-1457786
-1457127
-1456673
-1456241
-1455796
-1455436
-1454832
-1454497
-1454032
-1453912
-1453613
-1453381
-1452895
-1452773
-1452617
-1452228
-1452057
-1451904
-1452036
-1451806
-1451899
-1451946
-1451914
-1451870
-1451886
-1451893
-1451916
-1452109
-1452132
-1452274
-1452311
-1452504
-1452801
-1452935
-1453131
-1453282
-1453440
-1453731
-1453755
-1454067
-1454213
-1454499
-1454643
-1454797
-1454854
-1455244
-1455471
-1455650
-1455647
-1455819
-1456111
-1456278
-1456489
-1456676
-1456817
-1456987
-1457253
-1457364
-1457466
-1457572
-1457643
-1457669
-1457899
-1457885
-1457969
-1458021
-1458195
-1458164
-1458189
-1458345
-1458354
-1458271
-1458312
-1458609
-1458455
-1458408
-1458410
-1458504
-1458444
-1458479
-1458122
-1458434
-1458302
-1458300
-1458168
-1458235
-1458322
-1458116
-1458085
-1458198
-1457959
-1457820
-1457789
-1457877
-1457742
-1457710
-1457746
-1457609
-1457718
-1457706
-1457826
-1457788
-1457692
-1457903
-1457951
-1457906
-1458059
-1457926
-1457937
-1458076
-1458082
-1458156
-1458358
-1458447
-1458533
-1458562
-1458466
-1458443
-1458466
-1458564
-1458598
-1458606
-1458686
-1458891
-1458895
-1458843
-1458782
-1458891
-1459072
-1459071
-1458950
-1458921
-1458935
-1459027
-1459007
-1459101
-1459107
-1459096
-1459075
-1458974
-1459086
-1459104
-1458901
-1458948
-1458843
-1458902
-1458939
-1458936
-1458972
-1458916
-1458792
-1458704
-1458721
-1458852
-1458667
-1458844
-1458684
-1458748
-1458739
-1458755
-1458881
-1458656
-1458664
-1458738
-1458801
-1458429
-1458578
-1458767
-1458909
-1458815
-1458872
-1458932
-1459008
-1458998
-1459142
-1459027
-1459085
-1459118
-1459340
-1459297
-1459339
-1459499
-1459528
-1459483
-1459797
-1459786
-1459919
-1459969
-1460070
-1459957
-1460162
-1460274
-1460388
-1460541
-1460574
-1460639
-1460645
-1460870
-1460809
-1460868
-1461104
-1461199
-1461346
-1461264
-1461378
-1461387
-1461545
-1461685
-1461836
-1461957
-1461997
-1462064
-1462166
-1462189
-1462208
-1462404
-1462313
-1462544
-1462566
-1462600
-1462648
-1462824
-1462942
-1462927
-1462973
-1463018
-1463215
-1463177
-1463315
-1463401
-1463405
-1463455
-1463661
-1463645
-1463516
-1463707
-1463892
-1463737
-1463715
-1463877
-1463895
-1463903
-1464179
-1464301
-1464231
-1464318
-1464210
-1464445
-1464556
-1464545
-1464551
-1464484
-1464637
-1464610
-1464666
-1464734
-1464733
-1464818
-1464881
-1464788
-1464843
-1464960
-1465081
-1465096
-1465201
-1465116
-1465113
-1465267
-1465257
-1465214
-1465218
-1465235
-1465307
-1465363
-1465262
-1465459
-1465312
-1465503
-1465490
-1465636
-1465666
-1465624
-1465505
-1465540
-1465553
-1465688
-1465713
-1465827
-1465794
-1465808
-1465880
-1466006
-1466078
-1466171
-1465995
-1466158
-1466150
-1466252
-1466293
-1466294
-1466373
-1466376
-1466405
-1466240
-1466246
-1466473
-1466436
-1466567
-1466460
-1466471
-1466729
-1466576
-1466720
-1466745
-1466774
-1466870
-1466953
-1467041
-1467104
-1467082
-1467141
-1467058
-1467102
-1467162
-1467359
-1467397
-1467346
-1467315
-1467394
-1467330
-1467480
-1467513
-1467588
-1467602
-1467725
-1467762
-1467709
-1467896
-1467844
-1467866
-1468016
-1468008
-1468165
-1468225
-1468150
-1468343
-1468350
-1468373
-1468460
-1468557
-1468577
-1468643
-1468794
-1468808
-1468859
-1468742
-1469013
-1468903
-1468992
-1469123
-1469272
-1469332
-1469217
-1469377
-1469293
-1469308
-1469443
-1469664
-1469751
-1469793
-1469900
-1469840
-1470029
-1470128
-1470269
-1470203
-1470072
-1470146
-1470420
-1470385
-1470414
-1470613
-1470575
-1470670
-1470722
-1470608
-1470705
-1470722
-1470613
-1470690
-1470572
-1470365
-1470188
-1469968
-1469838
-1469665
-1469347
-1468985
-1468427
-1468018
-1467460
-1466714
-1466242
-1465750
-1465248
-1464617
-1463864
-1463363
-1462761
-1461966
-1461270
-1460762
-1460227
-1459332
-1458839
-1458295
-1457893
-1457363
-1456772
-1456327
-1455971
-1455522
-1454975
-1454767
-1454478
-1453897
-1453846
-1453535
-1453301
-1453117
-1453103
-1452987
-1452842
-1452866
-1452682
-1452669
-1452657
-1452724
-1452650
-1452594
-1452800
-1452743
-1452890
-1453008
-1453217
-1453344
-1453480
-1453610
-1453654
-1453766
-1453934
-1454186
-1454463
-1454603
-1454811
-1455007
-1455229
-1455371
-1455619
-1455591
-1455878
-1455958
-1456206
-1456363
-1456537
-1457201
-1457462
-1457579
-1457846
-1458013
-1458090
-1458193
-1458218
-1458226
-1458488
-1458605
-1458558
-1458537
-1458782
-1458702
-1458627
-1458915
-1458933
-1458900
-1459041
-1458986
-1458827
-1458871
-1458792
-1458894
-1458759
-1458817
-1458306
-1458428
-1458550
-1458610
-1458455
-1458391
-1458237
-1458219
-1458266
-1458187
-1458125
-1458026
-1458038
-1458096
-1458078
-1458048
-1457925
-1458035
-1457926
-1457905
-1457882
-1458102
-1458021
-1458065
-1458236
-1458201
-1458159
-1458355
-1458413
-1458418
-1458379
-1458463
-1458419
-1458487
-1458523
-1458659
-1458686
-1458707
-1458710
-1458760
-1458845
-1458681
-1458709
-1458616
-1458684
-1458823
-1458777
-1458804
-1458853
-1458831
-1458767
-1458634
-1458745
-1458727
-1458613
-1458624
-1458524
-1458636
-1458437
-1458345
-1458219
-1458183
-1458240
-1458135
-1458094
-1458233
-1458259
-1458157
-1458219
-1458089
-1457993
-1457795
-1457802
-1457726
-1457785
-1457824
-1457825
-1457666
-1457775
-1457782
-1457787
-1457809
-1457647
-1457608
-1457686
-1457728
-1457846
-1457708
-1457927
-1457897
-1457903
-1457912
-1457901
-1457990
-1457948
-1457957
-1458020
-1458042
-1458158
-1458338
-1458390
-1458488
-1458520
-1458671
-1458561
-1458611
-1458748
-1458995
-1459015
-1458978
-1459023
-1459092
-1459324
-1459214
-1459281
-1459462
-1459438
-1459654
-1459723
-1459854
-1460070
-1460133
-1460087
-1460159
-1460248
-1460152
-1460365
-1460270
-1460301
-1460438
-1460582
-1460689
-1460761
-1460868
-1460915
-1460979
-1461078
-1461107
-1461190
-1461478
-1461516
-1461488
-1461579
-1461844
-1461748
-1462010
-1461905
-1461960
-1462064
-1461997
-1462253
-1462327
-1462236
-1462367
-1462382
-1462536
-1462648
-1462720
-1462595
-1462724
-1462800
-1462747
-1462822
-1462846
-1462856
-1462839
-1462845
-1463012
-1463003
-1463183
-1463067
-1463064
-1463186
-1463110
-1463162
-1463195
-1463340
-1463503
-1463526
-1463519
-1463434
-1463549
-1463404
-1463606
-1463521
-1463648
-1463778
-1463812
-1463716
-1463749
-1463796
-1463808
-1463899
-1463909
-1463766
-1463884
-1463848
-1463969
-1463898
-1463867
-1464074
-1463973
-1464064
-1464094
-1464103
-1464118
-1464099
-1464024
-1464189
-1464281
-1464275
-1464366
-1464325
-1464255
-1464287
-1464283
-1464497
-1464410
-1464589
-1464580
-1464525
-1464715
-1464857
-1464838
-1464957
-1464796
-1464952
-1464888
-1465035
-1465116
-1465154
-1465060
-1465184
-1465219
-1465368
-1465472
-1465345
-1465295
-1465518
-1465387
-1465559
-1465594
-1465623
-1465626
-1465716
-1465738
-1465850
-1465773
-1465810
-1465794
-1465915
-1466022
-1466156
-1466291
-1466152
-1466283
-1466372
-1466516
-1466481
-1466458
-1466527
-1466625
-1466652
-1467345
-1466878
-1466562
-1466426
-1466409
-1466332
-1466201
-1466240
-1465835
-1465677
-1465391
-1465300
-1464957
-1464696
-1464043
-1463763
-1463377
-1462729
-1461998
-1461646
-1460972
-1460547
-1459942
-1459324
-1458853
-1458259
-1457672
-1457092
-1456461
-1456033
-1455537
-1455094
-1454595
-1453989
-1453656
-1453279
-1452916
-1452504
-1452043
-1451824
-1451397
-1451087
-1450926
-1450863
-1450685
-1450370
-1450147
-1450008
-1450080
-1449941
-1449880
-1449945
-1449803
-1449839
-1449864
-1450052
-1449932
-1450156
-1450130
-1450156
-1450457
-1450528
-1450616
-1450678
-1450918
-1451073
-1451078
-1451176
-1451356
-1451630
-1451716
-1451845
-1452133
-1452167
-1452492
-1452658
-1452745
-1452930
-1453005
-1453083
-1453329
-1453520
-1453694
-1453725
-1453772
-1453982
-1453983
-1454038
-1454259
-1454399
-1454521
-1454360
-1454428
-1454637
-1454579
-1454687
-1454705
-1454718
-1454906
-1454960
-1454998
-1455010
-1455062
-1455002
-1454956
-1454793
-1454768
-1454664
-1454625
-1454602
-1454758
-1454646
-1454591
-1454830
-1454506
-1454475
-1454303
-1454134
-1454142
-1454154
-1454211
-1454073
-1453872
-1453803
-1453780
-1453744
-1453627
-1453695
-1453710
-1453796
-1453834
-1453746
-1453431
-1453705
-1453915
-1453961
-1453861
-1453986
-1454062
-1453985
-1454057
-1454149
-1454080
-1454224
-1454345
-1454436
-1454314
-1454458
-1454588
-1454609
-1454473
-1454570
-1454453
-1454610
-1454686
-1454742
-1454688
-1454765
-1454768
-1454671
-1454636
-1454644
-1454757
-1454665
-1454467
-1454572
-1454573
-1454605
-1454557
-1454530
-1454349
-1454326
-1454364
-1454214
-1454227
-1454286
-1454306
-1454127
-1453932
-1453936
-1453836
-1453882
-1453651
-1453780
-1453763
-1453681
-1453782
-1453895
-1453865
-1453893
-1453774
-1453567
-1453688
-1453687
-1453685
-1453660
-1453610
-1453585
-1453598
-1453835
-1453815
-1453784
-1453857
-1453875
-1453601
-1453597
-1453845
-1453961
-1454256
-1454313
-1454352
-1454268
-1454380
-1454545
-1454477
-1454516
-1454597
-1454635
-1454849
-1454766
-1454988
-1455167
-1455193
-1455228
-1455322
-1455273
-1455460
-1455521
-1455581
-1455514
-1455745
-1455854
-1455956
-1456018
-1456182
-1456261
-1456271
-1456333
-1456382
-1456381
-1456492
-1456662
-1456721
-1456762
-1456910
-1457004
-1457086
-1457160
-1456995
-1457148
-1457284
-1457261
-1457247
-1457294
-1457536
-1457607
-1457547
-1457711
-1457747
-1457396
-1457605
-1457760
-1457739
-1457895
-1457915
-1458107
-1458185
-1458206
-1458339
-1458389
-1458411
-1458504
-1458362
-1458390
-1458629
-1458599
-1458561
-1460077
-1459258
-1458848
-1458802
-1458957
-1458940
-1459004
-1458976
-1459110
-1458932
-1458943
-1459007
-1459072
-1459152
-1459131
-1459063
-1459264
-1459156
-1459146
-1459336
-1459352
-1459247
-1459059
-1459421
-1459495
-1459486
-1459410
-1459409
-1459555
-1459580
-1459612
-1459543
-1459724
-1459765
-1459640
-1459777
-1459872
-1459942
-1459909
-1459783
-1459851
-1459899
-1459901
-1459971
-1460059
-1460147
-1460244
-1460169
-1460157
-1460210
-1460314
-1460390
-1460345
-1460438
-1460482
-1460400
-1460435
-1460496
-1460498
-1460637
-1460633
-1460788
-1460847
-1460819
-1460783
-1460812
-1460831
-1460911
-1460931
-1461021
-1461140
-1461310
-1461208
-1461394
-1461313
-1461493
-1461525
-1461604
-1461564
-1461779
-1461656
-1461695
-1461873
-1461968
-1462044
-1462078
-1462236
-1462155
-1462275
-1462282
-1462188
-1462345
-1462428
-1462574
-1462543
-1462559
-1462047
-1462297
-1462386
-1462411
-1462352
-1462100
-1462010
-1461696
-1461440
-1461174
-1460946
-1460734
-1460298
-1459925
-1459475
-1458906
-1458457
-1457895
-1457339
-1456725
-1456005
-1455588
-1454961
-1454325
-1453698
-1453093
-1452554
-1452185
-1451643
-1451222
-1450507
-1450077
-1449524
-1449190
-1448669
-1448301
-1447971
-1447712
-1447307
-1447090
-1446659
-1446526
-1446219
-1446187
-1445978
-1445671
-1445708
-1445663
-1445567
-1445471
-1445429
-1445316
-1445442
-1445341
-1445586
-1445355
-1445543
-1445677
-1445869
-1445898
-1445868
-1446078
-1446232
-1446253
-1446486
-1446681
-1446844
-1446953
-1447027
-1447143
-1447340
-1447357
-1447667
-1447771
-1447839
-1448087
-1448267
-1448443
-1448568
-1448591
-1448732
-1448875
-1449051
-1449119
-1449093
-1449250
-1449380
-1449473
-1449457
-1449525
-1449741
-1449820
-1449923
-1449882
-1449838
-1449826
-1449819
-1449972
-1450095
-1450127
-1450074
-1450071
-1449951
-1449840
-1449923
-1449827
-1449889
-1449796
-1449693
-1449523
-1449576
-1449496
-1449337
-1449367
-1449342
-1449266
-1449230
-1449072
-1449054
-1449022
-1448957
-1448876
-1448891
-1448818
-1448700
-1448812
-1448712
-1448711
-1448813
-1448698
-1448840
-1448713
-1448893
-1448791
-1448891
-1448917
-1448903
-1449074
-1449127
-1449177
-1449240
-1449335
-1449470
-1449311
-1449359
-1449516
-1449521
-1449704
-1449585
-1449662
-1449702
-1449687
-1449825
-1449817
-1449766
-1449777
-1449794
-1449894
-1449935
-1449832
-1449852
-1449770
-1449802
-1449741
-1449761
-1449908
-1449933
-1449866
-1450007
-1449964
-1449830
-1449778
-1449780
-1449802
-1449582
-1449661
-1449554
-1449493
-1449367
-1449368
-1449327
-1449532
-1449297
-1450177
-1449466
-1449180
-1449147
-1449226
-1449147
-1449305
-1449367
-1449261
-1449228
-1449213
-1449286
-1449125
-1449246
-1449303
-1449224
-1449337
-1449312
-1449456
-1449401
-1449459
-1449306
-1448977
-1449426
-1449623
-1449498
-1449759
-1449705
-1449707
-1449778
-1449839
-1449950
-1450073
-1450104
-1450292
-1450365
-1450449
-1450476
-1450581
-1450642
-1450777
-1450825
-1450906
-1450859
-1450836
-1450905
-1450990
-1451095
-1451390
-1451408
-1451419
-1451368
-1451491
-1451543
-1451525
-1451794
-1451850
-1451737
-1452030
-1452140
-1452207
-1452100
-1452152
-1452387
-1452397
-1452470
-1452061
-1452386
-1452560
-1452761
-1452765
-1452837
-1452793
-1453046
-1453100
-1453086
-1453231
-1453392
-1453443
-1453435
-1453469
-1453430
-1453544
-1453455
-1453555
-1453669
-1453783
-1453854
-1453926
-1453808
-1454004
-1454010
-1453985
-1454173
-1454023
-1454008
-1454298
-1454357
-1454209
-1454340
-1454415
-1454320
-1454363
-1454329
-1454415
-1454603
-1454698
-1454694
-1454534
-1454623
-1454706
-1454703
-1454757
-1454716
-1454761
-1454797
-1454672
-1454812
-1454896
-1454948
-1455000
-1454972
-1454960
-1455029
-1454956
-1454983
-1455179
-1455228
-1455282
-1455144
-1455294
-1455224
-1455316
-1455377
-1455489
-1455525
-1455482
-1455476
-1455506
-1455591
-1455723
-1455759
-1455544
-1455531
-1455748
-1455668
-1455485
-1455824
-1455877
-1455483
-1455709
-1455931
-1455994
-1456191
-1455991
-1456168
-1456254
-1456378
-1456372
-1456257
-1456255
-1456384
-1456484
-1456417
-1456563
-1456636
-1456781
-1456669
-1456741
-1456693
-1456632
-1457625
-1456992
-1457109
-1456988
-1457113
-1457054
-1457048
-1457158
-1457140
-1457281
-1457241
-1457476
-1457590
-1457712
-1457828
-1457720
-1457712
-1457827
-1457942
-1457949
-1458044
-1458105
-1458180
-1458217
-1458356
-1458473
-1458371
-1458383
-1458541
-1458543
-1458606
-1458599
-1458807
-1458800
-1458968
-1459077
-1458904
-1459011
-1459190
-1459179
-1459245
-1459263
-1459142
-1459300
-1459378
-1459278
-1459210
-1459372
-1459241
-1459157
-1459114
-1458937
-1458469
-1458457
-1458088
-1457775
-1457468
-1456972
-1456521
-1456197
-1455685
-1455109
-1454438
-1453926
-1453503
-1452681
-1452311
-1451782
-1451048
-1450450
-1449792
-1449311
-1448674
-1448133
-1447579
-1447194
-1446576
-1446217
-1445682
-1445334
-1444831
-1444455
-1444172
-1443923
-1443668
-1443337
-1442946
-1442774
-1442652
-1442348
-1442236
-1442183
-1442042
-1441881
-1441855
-1441937
-1441783
-1441894
-1442001
-1441494
-1441742
-1442022
-1442088
-1442274
-1442273
-1442514
-1442490
-1442677
-1442698
-1442817
-1442987
-1443320
-1443439
-1443279
-1443480
-1443854
-1444039
-1444179
-1444395
-1444575
-1444554
-1444259
-1444813
-1445063
-1445160
-1445384
-1445359
-1445513
-1445434
-1445689
-1445783
-1445893
-1445972
-1445980
-1446168
-1446132
-1446283
-1446379
-1446242
-1446379
-1446454
-1446491
-1446374
-1446454
-1446469
-1446428
-1446462
-1446496
-1446292
-1446296
-1446285
-1446189
-1446147
-1446127
-1446007
-1445939
-1445815
-1445780
-1445632
-1445599
-1445505
-1445402
-1445457
-1445221
-1445417
-1445092
-1445231
-1445139
-1444990
-1444926
-1445103
-1444962
-1444942
-1445048
-1445025
-1445131
-1445074
-1444790
-1445150
-1445102
-1445286
-1445317
-1445399
-1445343
-1445450
-1445446
-1445561
-1445575
-1445603
-1445615
-1445762
-1445885
-1445782
-1445969
-1446111
-1446003
-1445937
-1446025
-1445938
-1445932
-1446074
-1446185
-1446192
-1446261
-1446208
-1446124
-1446133
-1446068
-1446122
-1446201
-1445733
-1446019
-1445965
-1446075
-1446111
-1446118
-1446066
-1445673
-1445951
-1445614
-1445817
-1445800
-1445781
-1445886
-1445864
-1445939
-1445834
-1445322
-1445598
-1445548
-1446415
-1445891
-1445720
-1445571
-1445595
-1445599
-1445495
-1445432
-1445443
-1445389
-1445573
-1445674
-1445497
-1445520
-1445710
-1445613
-1445546
-1445740
-1445652
-1445788
-1445780
-1445890
-1445930
-1446014
-1446038
-1446091
-1446145
-1446109
-1446242
-1446313
-1446367
-1446320
-1446471
-1446399
-1446551
-1446692
-1446794
-1446931
-1446955
-1446999
-1447009
-1447231
-1447319
-1447362
-1447482
-1447458
-1447495
-1447502
-1447563
-1447751
-1447778
-1447998
-1448146
-1448208
-1448173
-1448294
-1448377
-1448320
-1448474
-1448583
-1448701
-1448715
-1448826
-1448855
-1448904
-1449041
-1448905
-1448903
-1449108
-1449139
-1449119
-1449307
-1449294
-1449307
-1449478
-1449511
-1449620
-1449728
-1449815
-1449849
-1449772
-1449794
-1449830
-1449997
-1450120
-1450040
-1450071
-1450181
-1450188
-1450250
-1450426
-1450459
-1450380
-1450446
-1450442
-1450439
-1450324
-1450458
-1450644
-1450786
-1450830
-1450684
-1450768
-1450966
-1450910
-1451047
-1450954
-1450897
-1451077
-1451101
-1451108
-1451109
-1451190
-1451191
-1451300
-1451416
-1451402
-1451229
-1451423
-1451580
-1451503
-1451558
-1451628
-1451638
-1451583
-1452900
-1452146
-1451894
-1451730
-1451802
-1451917
-1451790
-1451985
-1451927
-1451930
-1451862
-1451934
-1452087
-1452185
-1452156
-1452221
-1452143
-1452309
-1452237
-1452350
-1452420
-1452372
-1452419
-1452347
-1452538
-1452572
-1453567
-1452815
-1452642
-1452635
-1452718
-1452890
-1452959
-1452931
-1452924
-1452934
-1453033
-1452968
-1452920
-1453107
-1453084
-1453167
-1453317
-1453261
-1453402
-1453460
-1453520
-1453139
-1453524
-1453494
-1453794
-1453768
-1453844
-1454780
-1454237
-1453971
-1453961
-1453918
-1453989
-1453897
-1454003
-1454164
-1454129
-1454263
-1454409
-1454314
-1454343
-1454413
-1454649
-1454687
-1454519
-1454759
-1454624
-1454805
-1454738
-1454937
-1455066
-1455111
-1455144
-1455102
-1455236
-1455338
-1455291
-1455284
-1455283
-1455401
-1455480
-1455645
-1455671
-1455620
-1455847
-1455977
-1455958
-1456187
-1456233
-1456255
-1456336
-1456459
-1456508
-1456597
-1456492
-1456738
-1456791
-1456860
-1456904
-1457070
-1457024
-1457146
-1457197
-1457266
-1457297
-1457362
-1457491
-1457551
-1457512
-1457490
-1458250
-1457778
-1457848
-1457798
-1457749
-1457874
-1457908
-1457907
-1457849
-1457814
-1457761
-1457736
-1457461
-1457465
-1457240
-1457099
-1456792
-1456490
-1456087
-1455589
-1455204
-1454765
-1454112
-1453671
-1453032
-1452562
-1451937
-1451191
-1450545
-1450109
-1449401
-1448768
-1448241
-1447727
-1447207
-1446700
-1446004
-1445493
-1445021
-1444418
-1444122
-1443051
-1443023
-1442833
-1442576
-1442202
-1441888
-1441504
-1441230
-1440982
-1440775
-1442169
-1441154
-1440666
-1440515
-1440373
-1440175
-1440066
-1440158
-1440171
-1440190
-1440322
-1440433
-1440550
-1440467
-1440598
-1441160
-1440920
-1441004
-1441126
-1441119
-1441362
-1441328
-1441607
-1441816
-1442016
-1442026
-1442249
-1442361
-1442465
-1442818
-1442932
-1442960
-1443122
-1443226
-1443336
-1443453
-1443602
-1443400
-1443892
-1444040
-1444290
-1444380
-1444463
-1444562
-1444506
-1444748
-1444852
-1444963
-1444797
-1444769
-1444833
-1444989
-1444891
-1445117
-1445147
-1445068
-1445097
-1444930
-1444892
-1444832
-1444942
-1444815
-1444786
-1444788
-1444775
-1444594
-1444438
-1444400
-1444335
-1444456
-1444210
-1444172
-1444204
-1444034
-1444113
-1443653
-1443678
-1443872
-1443757
-1443755
-1443697
-1443746
-1443756
-1443702
-1443647
-1443612
-1443797
-1443688
-1443774
-1443724
-1443677
-1443879
-1444019
-1443937
-1443944
-1444009
-1444266
-1444208
-1444155
-1444388
-1444402
-1444375
-1444469
-1444545
-1444659
-1444727
-1444808
-1444866
-1444833
-1444945
-1444906
-1444973
-1444990
-1445023
-1444912
-1444983
-1444935
-1444960
-1445074
-1445117
-1444934
-1444986
-1444957
-1444958
-1444804
-1444910
-1444844
-1444709
-1444616
-1444632
-1444631
-1444696
-1444555
-1444528
-1444447
-1444361
-1444360
-1444484
-1444312
-1444319
-1444182
-1444157
-1444281
-1444310
-1444341
-1444304
-1444159
-1444161
-1444247
-1444250
-1444121
-1444269
-1444153
-1444174
-1444075
-1444187
-1444210
-1444325
-1444206
-1444177
-1444290
-1445369
-1444831
-1444696
-1444472
-1444511
-1444619
-1444917
-1445012
-1445062
-1445086
-1445269
-1445094
-1445205
-1445439
-1445514
-1445639
-1445567
-1445590
-1445830
-1445748
-1445996
-1445987
-1446138
-1446133
-1446175
-1446213
-1446419
-1446451
-1446587
-1447525
-1446897
-1446661
-1446755
-1446866
-1446977
-1447159
-1447121
-1447100
-1447358
-1446932
-1447243
-1448313
-1447804
-1447597
-1447563
-1447762
-1447437
-1448652
-1448136
-1448064
-1448062
-1448018
-1448075
-1448240
-1448220
-1448362
-1448450
-1448488
-1448402
-1448437
-1448552
-1448584
-1448734
-1448655
-1448798
-1448859
-1448853
-1448930
-1449834
-1449337
-1449076
-1449022
-1449196
-1449335
-1449272
-1449282
-1449284
-1448967
-1449197
-1449240
-1449478
-1449447
-1449341
-1449551
-1449527
-1449654
-1449578
-1449739
-1449653
-1449810
-1449722
-1449815
-1449937
-1449898
-1449792
-1450008
-1450024
-1449961
-1449985
-1449946
-1450019
-1450067
-1450061
-1450144
-1450197
-1450371
-1450375
-1450489
-1450376
-1450273
-1450494
-1450552
-1450715
-1450732
-1451653
-1451025
-1450900
-1451652
-1451192
-1451018
-1451059
-1450847
-1450998
-1450911
-1450944
-1451031
-1451161
-1451070
-1451052
-1451262
-1451252
-1451295
-1451361
-1451315
-1451469
-1451641
-1451558
-1451493
-1451421
-1451491
-1451461
-1451427
-1451549
-1451612
-1451747
-1451919
-1451970
-1451928
-1451841
-1451929
-1451927
-1452172
-1452615
-1452225
-1452402
-1452241
-1453044
-1452694
-1452656
-1452465
-1452528
-1452547
-1452636
-1452658
-1452871
-1452743
-1452861
-1452874
-1452987
-1453093
-1453035
-1453013
-1453107
-1453330
-1453188
-1453383
-1453443
-1453441
-1453569
-1453469
-1453505
-1454848
-1454158
-1453874
-1454025
-1453876
-1454008
-1454027
-1454054
-1454013
-1454132
-1454247
-1454299
-1454459
-1454528
-1454675
-1454588
-1454630
-1454775
-1454908
-1454989
-1455047
-1454958
-1455156
-1455126
-1455295
-1455075
-1455224
-1455373
-1455607
-1455554
-1455535
-1455758
-1455937
-1455982
-1456058
-1455526
-1455892
-1456117
-1456130
-1456289
-1456299
-1456414
-1456297
-1456349
-1456466
-1456537
-1456330
-1456192
-1456302
-1456221
-1456038
-1455860
-1455717
-1455478
-1455232
-1454839
-1454429
-1453588
-1453409
-1453206
-1452349
-1452862
-1451941
-1451081
-1450591
-1449624
-1449444
-1448979
-1448218
-1447678
-1447098
-1446611
-1446175
-1445649
-1445117
-1444585
-1444070
-1443720
-1443131
-1442768
-1442426
-1442100
-1441796
-1441531
-1441393
-1441175
-1440888
-1440700
-1440559
-1440435
-1440294
-1440241
-1440124
-1440034
-1439952
-1440062
-1439956
-1440037
-1440019
-1440239
-1440266
-1440243
-1440318
-1440443
-1440553
-1440789
-1440827
-1441027
-1441136
-1441272
-1441384
-1441652
-1441877
-1442051
-1442294
-1442314
-1442419
-1442658
-1442773
-1442867
-1443039
-1443377
-1443489
-1443518
-1443684
-1443971
-1444125
-1444261
-1444296
-1444484
-1444594
-1444741
-1444651
-1444822
-1445115
-1445112
-1445099
-1445233
-1445303
-1445274
-1445406
-1445410
-1445417
-1445429
-1445566
-1445603
-1445671
-1445536
-1445580
-1445633
-1445545
-1445500
-1445459
-1445538
-1445491
-1445495
-1445435
-1445324
-1445288
-1445343
-1445291
-1445360
-1445366
-1445198
-1445211
-1445225
-1445155
-1445070
-1445211
-1445061
-1445201
-1445290
-1445304
-1445288
-1445306
-1445372
-1445307
-1445274
-1445447
-1445515
-1445461
-1445413
-1445591
-1445494
-1445648
-1445732
-1445800
-1445794
-1445637
-1445287
-1445531
-1445671
-1445725
-1445756
-1445646
-1445726
-1445705
-1445844
-1445781
-1445688
-1445655
-1445608
-1445713
-1445446
-1445613
-1445524
-1445635
-1445455
-1445506
-1445434
-1445426
-1445478
-1445370
-1445411
-1445417
-1445232
-1445140
-1445128
-1445201
-1445259
-1445245
-1445083
-1444954
-1444943
-1444887
-1445029
-1444883
-1444898
-1444877
-1444973
-1444960
-1444745
-1444974
-1445116
-1444989
-1445121
-1445114
-1445097
-1445178
-1445164
-1445268
-1445302
-1445234
-1445339
-1445254
-1445000
-1445470
-1445430
-1445471
-1445696
-1445812
-1445855
-1445913
-1446111
-1446124
-1446069
-1446195
-1446360
-1446362
-1446508
-1446613
-1446776
-1446843
-1446715
-1446964
-1446842
-1446951
-1447081
-1447315
-1447411
-1447397
-1447630
-1447614
-1447783
-1447692
-1448010
-1447860
-1447995
-1448075
-1448064
-1448202
-1448297
-1448369
-1448670
-1448541
-1448796
-1448753
-1448918
-1448834
-1449088
-1449115
-1449276
-1449415
-1449466
-1449438
-1449532
-1449591
-1449541
-1449702
-1449717
-1449761
-1449857
-1449950
-1449830
-1450031
-1449943
-1450023
-1450124
-1450119
-1451182
-1450711
-1450591
-1450386
-1450387
-1450510
-1450472
-1450539
-1450579
-1450582
-1450816
-1450774
-1450724
-1450961
-1450960
-1451025
-1451184
-1451186
-1451163
-1451251
-1451304
-1451287
-1451258
-1451408
-1451345
-1451365
-1451487
-1452603
-1451950
-1451668
-1451753
-1451714
-1451807
-1451751
-1451897
-1451884
-1451850
-1452047
-1451954
-1452108
-1452254
-1452126
-1452237
-1452242
-1452272
-1452299
-1452351
-1452313
-1452405
-1452394
-1452435
-1452349
-1452383
-1452471
-1452626
-1452551
-1452633
-1452747
-1452711
-1452628
-1452824
-1452820
-1452721
-1452893
-1452850
-1452980
-1452812
-1452868
-1452976
-1453515
-1453294
-1453141
-1453110
-1453094
-1453196
-1453270
-1453323
-1453497
-1453480
-1453556
-1453469
-1453575
-1453595
-1453763
-1453774
-1453943
-1453904
-1453949
-1454013
-1454053
-1454148
-1454132
-1454329
-1454397
-1454456
-1454462
-1454344
-1454484
-1454502
-1454619
-1454712
-1454589
-1454819
-1454568
-1454825
-1455032
-1455061
-1455152
-1455202
-1455227
-1455306
-1455483
-1455465
-1455577
-1455525
-1455551
-1455709
-1455849
-1455958
-1455963
-1455825
-1455975
-1456138
-1456223
-1456210
-1456346
-1456544
-1456274
-1457520
-1456817
-1456756
-1456594
-1456734
-1456848
-1456800
-1457766
-1457053
-1456797
-1456687
-1456684
-1456606
-1456542
-1456416
-1456318
-1455920
-1455689
-1455299
-1454965
-1454541
-1454285
-1453722
-1453292
-1452832
-1452330
-1451842
-1451263
-1450680
-1450151
-1449580
-1448998
-1448415
-1447954
-1447540
-1446869
-1446384
-1445861
-1445309
-1444973
-1444405
-1444161
-1443749
-1443443
