PPG
-1212355
-1212127
-1211700
-1211990
-1211886
-1211913
-1211890
-1212096
-1212137
-1212149
-1212120
-1212248
-1212247
-1212256
-1212516
-1212711
-1212913
-1213097
-1213387
-1213690
-1213966
-1214224
-1214568
-1214960
-1215168
-1215468
-1216039
-1216532
-1216869
-1217380
-1217752
-1218273
-1218623
-1219142
-1219629
-1220069
-1220536
-1221014
-1221595
-1222044
-1222630
-1223245
-1223861
-1224363
-1224654
-1225430
-1226146
-1226723
-1227331
-1227923
-1228540
-1229292
-1229740
-1230499
-1231172
-1231821
-1232288
-1233033
-1233564
-1234075
-1234862
-1235489
-1236137
-1236573
-1237344
-1237822
-1238428
-1239090
-1239622
-1240222
-1240666
-1241222
-1241675
-1242184
-1242602
-1243252
-1243619
-1244154
-1244758
-1245110
-1245611
-1246072
-1246355
-1246481
-1247143
-1247712
-1248193
-1248492
-1248890
-1249260
-1249684
-1249898
-1250376
-1250723
-1250988
-1251255
-1251613
-1251986
-1252305
-1252695
-1252895
-1253274
-1253451
-1253742
-1254082
-1254351
-1254571
-1254913
-1255217
-1255539
-1255664
-1256047
-1256397
-1256688
-1256781
-1257209
-1257349
-1257731
-1258084
-1258241
-1258620
-1258949
-1259055
-1259412
-1259670
-1259866
-1260035
-1260353
-1260599
-1260804
-1261222
-1261476
-1261749
-1261882
-1262217
-1262456
-1262687
-1263185
-1263594
-1263872
-1264305
-1264830
-1265159
-1265645
-1265832
-1266176
-1266470
-1266748
-1267127
-1267430
-1267808
-1268005
-1268428
-1268802
-1269046
-1269486
-1269872
-1270228
-1270259
-1270601
-1272211
-1271707
-1271592
-1271827
-1271984
-1272106
-1272040
-1271924
-1271637
-1271390
-1271081
-1270576
-1269910
-1269264
-1268486
-1267543
-1266243
-1265394
-1264174
-1262894
-1261281
-1260329
-1258929
-1257457
-1255889
-1254449
-1252848
-1251288
-1249770
-1248205
-1246638
-1244994
-1243561
-1242058
-1240651
-1239068
-1237662
-1236044
-1234613
-1233219
-1231747
-1230477
-1229135
-1227808
-1226582
-1225253
-1224055
-1223024
-1221614
-1220775
-1219741
-1218882
-1217884
-1217025
-1216306
-1215574
-1214635
-1213963
-1213305
-1212621
-1211856
-1211275
-1210820
-1210380
-1209796
-1209292
-1208995
-1208687
-1208042
-1207919
-1207663
-1207387
-1207067
-1206946
-1206712
-1206681
-1206473
-1206480
-1206047
-1206242
-1206254
-1206323
-1206377
-1206353
-1206375
-1206524
-1206685
-1206743
-1206803
-1207050
-1207123
-1207206
-1207437
-1207867
-1207981
-1208200
-1208530
-1208840
-1209042
-1209552
-1209767
-1210217
-1210510
-1211033
-1211421
-1211826
-1212325
-1212926
-1213290
-1213458
-1214274
-1214837
-1215346
-1215932
-1216202
-1217123
-1217679
-1218348
-1218963
-1219428
-1220115
-1220634
-1221194
-1221488
-1222374
-1222992
-1223661
-1224190
-1224911
-1225602
-1226114
-1226869
-1227201
-1227921
-1228692
-1229327
-1229810
-1230422
-1230962
-1231578
-1232308
-1232806
-1233311
-1233955
-1234489
-1235025
-1235535
-1236322
-1236819
-1237276
-1237769
-1238306
-1238811
-1239292
-1240035
-1240592
-1240977
-1241528
-1241919
-1242425
-1242961
-1243270
-1243637
-1244139
-1244573
-1244784
-1245287
-1245489
-1245913
-1246277
-1247474
-1247074
-1247154
-1247418
-1247786
-1248096
-1248191
-1248517
-1248691
-1248843
-1249143
-1249390
-1249660
-1249841
-1250113
-1250409
-1250735
-1250945
-1251306
-1251438
-1251729
-1251990
-1252253
-1252516
-1252782
-1253055
-1253292
-1253663
-1253830
-1254157
-1254256
-1254591
-1254738
-1254936
-1255354
-1255646
-1255811
-1255906
-1256239
-1256466
-1256730
-1256950
-1256909
-1257424
-1257672
-1257925
-1258360
-1258523
-1258700
-1258994
-1259234
-1259471
-1260389
-1260160
-1260305
-1260675
-1260941
-1261072
-1261397
-1261636
-1261522
-1262147
-1262539
-1262608
-1262899
-1263164
-1263264
-1263243
-1262952
-1263176
-1263113
-1262815
-1262582
-1262034
-1261464
-1260929
-1260140
-1259168
-1258224
-1257167
-1255978
-1254773
-1253412
-1252093
-1250756
-1249189
-1247718
-1246069
-1244555
-1242947
-1241543
-1239751
-1238243
-1236568
-1234954
-1233398
-1231912
-1230351
-1228805
-1227281
-1225808
-1224342
-1222895
-1221498
-1220156
-1218783
-1217648
-1216397
-1214990
-1213887
-1212741
-1211547
-1210496
-1209443
-1208509
-1207454
-1206544
-1205644
-1204863
-1204129
-1203402
-1202502
-1201861
-1201200
-1200643
-1200003
-1199428
-1198947
-1198376
-1197898
-1197489
-1197233
-1196653
-1196488
-1196185
-1196599
-1195730
-1195316
-1195147
-1194892
-1194613
-1194551
-1194503
-1194484
-1194487
-1194390
-1194447
-1194435
-1194504
-1194538
-1194610
-1194695
-1194727
-1194935
-1194965
-1195325
-1195468
-1195703
-1195983
-1196144
-1196376
-1196772
-1196947
-1197300
-1197700
-1198052
-1198268
-1198651
-1199051
-1199488
-1199963
-1200388
-1200851
-1201117
-1201678
-1202059
-1202708
-1203074
-1203610
-1204136
-1204694
-1205129
-1205636
-1206191
-1206794
-1207289
-1207890
-1208481
-1209126
-1209706
-1210266
-1210930
-1211643
-1212174
-1212875
-1213443
-1214058
-1214821
-1215154
-1215954
-1216515
-1217130
-1217931
-1218613
-1219091
-1219692
-1220398
-1221041
-1221611
-1222293
-1222870
-1223324
-1223833
-1224311
-1224870
-1225405
-1226021
-1226482
-1227080
-1227447
-1227858
-1228335
-1228906
-1229481
-1229815
-1230416
-1230743
-1231141
-1231544
-1231944
-1232402
-1232928
-1233325
-1233603
-1233955
-1234277
-1234683
-1235035
-1235374
-1235744
-1235933
-1236280
-1236575
-1236885
-1238116
-1237804
-1237863
-1238029
-1238315
-1238467
-1238883
-1239018
-1239157
-1239474
-1239677
-1239915
-1240227
-1240533
-1240758
-1240990
-1241188
-1241472
-1241749
-1241888
-1242127
-1242471
-1242624
-1242928
-1243153
-1243497
-1243665
-1243967
-1244180
-1244731
-1244854
-1245150
-1245303
-1245588
-1245907
-1246188
-1246418
-1246748
-1246995
-1247169
-1247525
-1247958
-1248095
-1248391
-1248691
-1249136
-1249175
-1249630
-1249868
-1250296
-1250632
-1250870
-1251026
-1251333
-1251588
-1251799
-1251943
-1252010
-1251910
-1251765
-1251645
-1251267
-1250946
-1250434
-1249710
-1249006
-1248132
-1247094
-1246161
-1245031
-1243825
-1242669
-1241183
-1239702
-1238216
-1236866
-1235371
-1233696
-1232127
-1230554
-1229114
-1227282
-1225823
-1224147
-1222572
-1220927
-1219331
-1217720
-1216391
-1214829
-1213269
-1211871
-1210496
-1209126
-1207814
-1206629
-1205203
-1203942
-1202767
-1201786
-1200661
-1199460
-1198525
-1197409
-1196454
-1195646
-1194671
-1194079
-1193187
-1192419
-1191773
-1191100
-1190368
-1189434
-1189280
-1188727
-1188359
-1187789
-1187421
-1187171
-1186914
-1186408
-1186189
-1185929
-1185582
-1185398
-1185300
-1185203
-1184924
-1184911
-1184860
-1184664
-1184574
-1184507
-1184566
-1184766
-1184598
-1184810
-1184452
-1184814
-1184939
-1185159
-1185236
-1185482
-1186436
-1186111
-1186212
-1186312
-1186502
-1186856
-1187132
-1187367
-1187637
-1188056
-1188463
-1188791
-1189139
-1190309
-1190300
-1190482
-1190536
-1191267
-1191868
-1192424
-1192860
-1193273
-1193911
-1194351
-1194996
-1195425
-1196017
-1196483
-1197167
-1197850
-1198423
-1198955
-1199549
-1200266
-1200819
-1201316
-1202025
-1202502
-1203128
-1203850
-1204568
-1205156
-1205674
-1206358
-1207016
-1207578
-1208154
-1208857
-1209399
-1210007
-1210699
-1211379
-1211890
-1212631
-1213121
-1213749
-1214443
-1214876
-1215624
-1216099
-1216531
-1217269
-1217753
-1218338
-1218866
-1219322
-1219860
-1220294
-1220929
-1221174
-1221589
-1222016
-1222686
-1223160
-1223451
-1223917
-1224288
-1224790
-1225214
-1225437
-1225784
-1226191
-1226472
-1226899
-1226879
-1227412
-1227861
-1228155
-1228559
-1228834
-1229015
-1229276
-1229700
-1229922
-1230245
-1230488
-1230892
-1231132
-1231370
-1231618
-1231880
-1232264
-1232556
-1232844
-1233269
-1233426
-1233767
-1234059
-1234297
-1234587
-1234861
-1235159
-1235389
-1235640
-1236077
-1236289
-1236655
-1236843
-1237055
-1237394
-1237607
-1237939
-1238129
-1238067
-1238468
-1238777
-1239061
-1239366
-1239495
-1239701
-1239963
-1240146
-1240078
-1240625
-1241011
-1241041
-1241605
-1241911
-1242174
-1242532
-1242845
-1243259
-1243390
-1243875
-1244272
-1244568
-1244846
-1245215
-1245538
-1245827
-1246168
-1246435
-1246469
-1246541
-1246437
-1246345
-1246050
-1245794
-1245337
-1244797
-1243354
-1242492
-1241650
-1240386
-1239189
-1238098
-1236746
-1235343
-1233912
-1232420
-1230926
-1229432
-1227766
-1226271
-1224664
-1223089
-1221445
-1220030
-1218310
-1216832
-1215378
-1213840
-1212300
-1210903
-1209479
-1207945
-1206242
-1205017
-1203849
-1202508
-1201158
-1199968
-1198831
-1197676
-1196579
-1195593
-1194836
-1193676
-1192714
-1191912
-1191081
-1190028
-1189538
-1188770
-1188177
-1187498
-1186901
-1186452
-1185793
-1185376
-1184963
-1184385
-1183960
-1183593
-1183267
-1182953
-1182779
-1182539
-1182265
-1182096
-1181868
-1181704
-1181511
-1181597
-1181246
-1182156
-1181684
-1181527
-1181489
-1181578
-1181603
-1181670
-1181910
-1181964
-1182004
-1182145
-1182381
-1182653
-1182668
-1182840
-1183007
-1183396
-1183696
-1183864
-1183997
-1184237
-1184780
-1185189
-1185459
-1185775
-1186193
-1186502
-1187807
-1187563
-1187882
-1188172
-1188734
-1189133
-1189023
-1189939
-1190522
-1191247
-1191779
-1192237
-1192881
-1193409
-1194018
-1194593
-1195177
-1195884
-1196509
-1197076
-1197593
-1198280
-1198781
-1199442
-1200138
-1200688
-1201340
-1202028
-1202770
-1203257
-1203819
-1204489
-1205261
-1205893
-1206520
-1207132
-1207745
-1208585
-1209163
-1209624
-1210431
-1211048
-1211647
-1212234
-1212776
-1213345
-1213992
-1214551
-1215101
-1215557
-1216169
-1216659
-1217222
-1217577
-1218201
-1218580
-1219138
-1219527
-1219965
-1220669
-1221066
-1221529
-1221898
-1222283
-1222803
-1223145
-1223669
-1224089
-1224290
-1224668
-1224899
-1225312
-1225549
-1225883
-1226221
-1226516
-1227625
-1227242
-1227394
-1227742
-1228000
-1228249
-1228496
-1228940
-1229188
-1229472
-1229754
-1229927
-1230169
-1230516
-1230689
-1230871
-1231205
-1231478
-1231707
-1231842
-1232055
-1232276
-1232499
-1232930
-1233015
-1233497
-1233621
-1233997
-1234037
-1234259
-1234529
-1234996
-1235186
-1235512
-1235718
-1235924
-1237293
-1236915
-1237042
-1237123
-1237496
-1237770
-1238123
-1238384
-1238666
-1238801
-1239230
-1239603
-1239835
-1240043
-1240248
-1240708
-1241009
-1241420
-1241661
-1241856
-1242282
-1242659
-1243043
-1243285
-1243477
-1243818
-1244320
-1244512
-1244954
-1245265
-1245405
-1245673
-1245890
-1245968
-1245956
-1245815
-1245593
-1245364
-1244959
-1244558
-1243930
-1243150
-1242296
-1241529
-1240589
-1239409
-1238188
-1237015
-1235660
-1234299
-1232762
-1231242
-1229690
-1228150
-1226631
-1225113
-1223436
-1221994
-1220368
-1218708
-1217155
-1215541
-1214022
-1212466
-1211123
-1209592
-1208242
-1206707
-1205517
-1204241
-1202813
-1201595
-1200279
-1199165
-1197983
-1196725
-1195652
-1194691
-1193754
-1192674
-1191850
-1191002
-1190109
-1189142
-1188254
-1187783
-1186927
-1186334
-1185742
-1185178
-1184761
-1184166
-1183717
-1183160
-1182886
-1182375
-1182096
-1181751
-1181574
-1181373
-1181178
-1180934
-1180781
-1181337
-1180787
-1180375
-1180287
-1180371
-1180378
-1180403
-1180397
-1180421
-1180424
-1180561
-1180731
-1180808
-1180968
-1181051
-1181272
-1181421
-1181676
-1181966
-1182402
-1182719
-1182946
-1183150
-1183596
-1183898
-1184271
-1184559
-1185147
-1185432
-1185792
-1186332
-1186743
-1187229
-1187840
-1188166
-1188666
-1189110
-1189804
-1190486
-1190975
-1191472
-1192229
-1192835
-1193491
-1194149
-1194764
-1195298
-1196003
-1196680
-1197380
-1198045
-1198781
-1199480
-1200253
-1200877
-1201545
-1202343
-1203061
-1203704
-1204469
-1205015
-1205722
-1206345
-1207052
-1207702
-1208187
-1208899
-1209368
-1210123
-1210760
-1211196
-1211843
-1212440
-1213115
-1213632
-1214165
-1214810
-1215227
-1215907
-1216436
-1216907
-1217328
-1217857
-1217928
-1218703
-1219250
-1219663
-1220136
-1220600
-1221081
-1221518
-1221911
-1222228
-1222650
-1222939
-1223129
-1223558
-1223799
-1224190
-1224525
-1224734
-1225147
-1225319
-1225625
-1225930
-1226196
-1226516
-1226756
-1226900
-1227207
-1227510
-1227854
-1228006
-1228322
-1228335
-1228666
-1228954
-1229097
-1229376
-1229467
-1229730
-1229848
-1230107
-1230261
-1230592
-1230784
-1230929
-1231073
-1231414
-1231564
-1231834
-1232139
-1232244
-1232480
-1232672
-1233062
-1233346
-1233476
-1233698
-1233859
-1234108
-1234482
-1234816
-1235067
-1235191
-1235470
-1235711
-1235990
-1236274
-1236601
-1236989
-1237247
-1237462
-1237864
-1238175
-1238485
-1238730
-1239068
-1239292
-1239647
-1239948
-1240194
-1240469
-1240643
-1240964
-1241426
-1241721
-1241946
-1241808
-1242019
-1242144
-1242018
-1241803
-1241580
-1241230
-1240745
-1240166
-1239482
-1238580
-1237776
-1236796
-1235679
-1234497
-1233298
-1231948
-1230554
-1228996
-1227434
-1225899
-1224391
-1222977
-1221324
-1219744
-1218087
-1216528
-1215008
-1213393
-1211829
-1210228
-1208746
-1207264
-1205661
-1204297
-1202800
-1201514
-1200167
-1198729
-1197442
-1196260
-1195023
-1193801
-1192621
-1191610
-1190467
-1189535
-1188666
-1187656
-1186770
-1185912
-1184919
-1184078
-1183359
-1182726
-1182074
-1181548
-1180833
-1180338
-1179820
-1179225
-1178849
-1178385
-1177901
-1177523
-1177280
-1176977
-1176550
-1176404
-1176296
-1176122
-1176040
-1175898
-1175835
-1175613
-1175545
-1175388
-1175487
-1175580
-1175517
-1175499
-1175699
-1175798
-1175825
-1175934
-1176078
-1176237
-1176427
-1176593
-1176778
-1177049
-1177451
-1177742
-1178018
-1178299
-1178497
-1178939
-1179262
-1179627
-1180061
-1180524
-1180707
-1181349
-1181756
-1182367
-1182848
-1183355
-1183796
-1184401
-1184925
-1185473
-1186029
-1186626
-1187309
-1188034
-1188486
-1189227
-1189724
-1190441
-1191138
-1191776
-1192479
-1193204
-1193781
-1194556
-1195200
-1195934
-1196543
-1197180
-1197944
-1198601
-1199258
-1199875
-1200542
-1201270
-1201887
-1202536
-1203076
-1203609
-1204190
-1204854
-1205507
-1206038
-1206691
-1207260
-1207854
-1208232
-1208676
-1209264
-1209792
-1210388
-1210836
-1211202
-1211788
-1212075
-1212660
-1212925
-1213454
-1213823
-1214129
-1214482
-1214950
-1215291
-1215646
-1215875
-1216218
-1216374
-1216726
-1216993
-1217202
-1217592
-1217959
-1218235
-1218372
-1218557
-1218835
-1219215
-1219395
-1219502
-1219867
-1220140
-1220406
-1220812
-1221018
-1221215
-1221549
-1221809
-1222062
-1222311
-1222695
-1222927
-1223204
-1223434
-1223520
-1223964
-1224181
-1224505
-1224792
-1225032
-1225247
-1225707
-1225865
-1226088
-1226329
-1226756
-1227076
-1227209
-1227587
-1227574
-1227944
-1228209
-1228688
-1228980
-1229255
-1229564
-1229804
-1230179
-1230517
-1230775
-1231015
-1231414
-1231705
-1231940
-1232329
-1232674
-1232877
-1233222
-1233483
-1233728
-1234054
-1234488
-1234848
-1235028
-1235293
-1235514
-1235849
-1236082
-1236135
-1236133
-1235980
-1235795
-1235405
-1235024
-1234442
-1233837
-1233223
-1232385
-1231322
-1230382
-1229358
-1228091
-1226747
-1225300
-1224016
-1222439
-1220875
-1219458
-1217875
-1216369
-1214623
-1212945
-1211307
-1209577
-1208046
-1206390
-1204788
-1203136
-1201603
-1200061
-1198368
-1196963
-1195460
-1194110
-1192630
-1191190
-1189725
-1188445
-1187237
-1186028
-1184739
-1183499
-1182390
-1181486
-1180281
-1179336
-1178409
-1177501
-1176617
-1175749
-1174935
-1174079
-1173358
-1172571
-1172110
-1171506
-1170928
-1170413
-1169994
-1169484
-1169056
-1168606
-1168252
-1167823
-1167401
-1167194
-1166885
-1166805
-1166504
-1166312
-1166305
-1166223
-1166115
-1166091
-1165966
-1166038
-1165990
-1166117
-1166208
-1166238
-1166278
-1166365
-1166650
-1166712
-1166950
-1167168
-1167031
-1167559
-1167760
-1168003
-1168354
-1168728
-1168897
-1169227
-1169526
-1169989
-1170423
-1170699
-1171159
-1171603
-1172034
-1172235
-1172870
-1173391
-1173845
-1174400
-1174894
-1175260
-1175941
-1176541
-1176969
-1177581
-1178248
-1178841
-1179503
-1179941
-1180674
-1181263
-1181891
-1182594
-1183206
-1183934
-1184552
-1185223
-1185597
-1186442
-1187184
-1187750
-1188499
-1189153
-1189713
-1190383
-1190959
-1191669
-1192341
-1193007
-1193582
-1194270
-1194859
-1195410
-1196116
-1196600
-1197146
-1197727
-1198354
-1198918
-1199375
-1199908
-1200404
-1201053
-1201555
-1201897
-1202423
-1202886
-1203507
-1203905
-1204092
-1204598
-1204980
-1205456
-1205977
-1206160
-1206683
-1207058
-1207415
-1207786
-1208161
-1208472
-1208717
-1209096
-1209376
-1209697
-1209885
-1210172
-1210578
-1210817
-1211102
-1211098
-1211570
-1211822
-1212110
-1212339
-1212459
-1212795
-1212969
-1213103
-1213396
-1213640
-1214598
-1214401
-1214479
-1214531
-1214680
-1214978
-1215281
-1215440
-1216320
-1216076
-1216818
-1216583
-1216629
-1216861
-1217258
-1217628
-1217747
-1217930
-1218287
-1218477
-1218710
-1219024
-1219297
-1219700
-1219867
-1220297
-1220634
-1220852
-1221187
-1221578
-1221937
-1222246
-1222639
-1222924
-1223325
-1223518
-1223737
-1224146
-1224494
-1224936
-1225071
-1225548
-1225691
-1225858
-1226113
-1226298
-1226403
-1226562
-1226645
-1226560
-1226390
-1226102
-1225703
-1225307
-1224687
-1224048
-1223131
-1222369
-1221432
-1220284
-1219203
-1217820
-1216501
-1215082
-1213699
-1212251
-1210656
-1208932
-1207190
-1205707
-1204087
-1202399
-1200671
-1198988
-1197323
-1195722
-1193969
-1192348
-1190735
-1189184
-1187633
-1186067
-1184764
-1183369
-1181837
-1180541
-1179202
-1178075
-1176759
-1175727
-1174524
-1173347
-1172400
-1171279
-1170311
-1169361
-1168550
-1167863
-1166992
-1166294
-1165575
-1164989
-1164431
-1163829
-1163294
-1162865
-1162413
-1161983
-1161535
-1161164
-1160938
-1160514
-1160169
-1160033
-1159792
-1159748
-1159531
-1159546
-1159459
-1159246
-1159213
-1159294
-1159194
-1159279
-1159289
-1159355
-1159456
-1159468
-1159508
-1159650
-1159777
-1160041
-1160250
-1160435
-1160720
-1161052
-1161237
-1161434
-1161929
-1162112
-1162449
-1162949
-1163432
-1163842
-1164291
-1164630
-1164926
-1165482
-1165975
-1166436
-1166965
-1167436
-1167872
-1168323
-1169020
-1169528
-1170113
-1170799
-1171277
-1171895
-1172503
-1173313
-1173958
-1174519
-1175149
-1175918
-1176586
-1177323
-1178012
-1178657
-1179263
-1179935
-1180606
-1181245
-1182019
-1182572
-1183410
-1184110
-1184723
-1185427
-1186223
-1186894
-1187569
-1188399
-1189159
-1189811
-1190410
-1191084
-1191788
-1192381
-1193116
-1193808
-1194299
-1194998
-1195547
-1196175
-1196902
-1197430
-1198018
-1198608
-1199203
-1199756
-1200189
-1200657
-1201195
-1201753
-1202293
-1202650
-1203295
-1203788
-1204094
-1204377
-1204719
-1205257
-1205664
-1206008
-1206321
-1206643
-1206987
-1207258
-1207552
-1207908
-1208294
-1208544
-1208798
-1209094
-1209270
-1209486
-1209690
-1209995
-1210288
-1210563
-1210700
-1211096
-1211378
-1211530
-1211737
-1212073
-1212293
-1212527
-1212834
-1212930
-1213287
-1213443
-1213799
-1213958
-1214309
-1214403
-1214679
-1214854
-1215129
-1215013
-1215522
-1215741
-1215851
-1215990
-1216254
-1216495
-1216656
-1217615
-1217350
-1217392
-1217623
-1217973
-1218283
-1218442
-1218784
-1219008
-1219347
-1219639
-1219993
-1220441
-1220833
-1221131
-1221358
-1221672
-1222137
-1222559
-1222804
-1223099
-1223502
-1223748
-1224150
-1224559
-1224845
-1225196
-1225515
-1225845
-1226153
-1226497
-1226952
-1227160
-1227324
-1227598
-1227746
-1227775
-1227793
-1227593
-1227274
-1226992
-1226446
-1225876
-1225214
-1224383
-1223563
-1222581
-1221556
-1220301
-1219054
-1217772
-1216327
-1214904
-1213280
-1211646
-1209949
-1208352
-1206870
-1205087
-1203385
-1201515
-1200125
-1198497
-1196864
-1195308
-1193466
-1192028
-1190344
-1188796
-1187404
-1185592
-1184270
-1183007
-1181701
-1180257
-1179005
-1177763
-1176451
-1175320
-1174289
-1173204
-1172050
-1170990
-1170087
-1169301
-1168477
-1167520
-1166697
-1165916
-1165244
-1164698
-1164047
-1163435
-1162814
-1162269
-1161804
-1161481
-1160995
-1160668
-1160247
-1159938
-1159745
-1159399
-1159268
-1159133
-1158967
-1158709
-1158777
-1158655
-1158602
-1158617
-1158545
-1158665
-1158754
-1158691
-1158751
-1158811
-1159072
-1159253
-1159319
-1159636
-1159920
-1160123
-1160273
-1160555
-1160773
-1161185
-1161394
-1161830
-1162200
-1162627
-1162984
-1163360
-1163702
-1164052
-1164471
-1164865
-1165450
-1165959
-1166488
-1166834
-1167211
-1167842
-1168433
-1168913
-1169585
-1170257
-1170877
-1171462
-1172108
-1172753
-1173279
-1173977
-1174745
-1175279
-1176035
-1176740
-1177483
-1178156
-1178804
-1179471
-1180245
-1181028
-1181724
-1182437
-1183242
-1183875
-1184552
-1185196
-1185836
-1186708
-1187267
-1188046
-1188694
-1189314
-1189961
-1190735
-1191294
-1191990
-1192742
-1193239
-1193769
-1194403
-1195026
-1195563
-1196040
-1196582
-1197209
-1197643
-1198198
-1198800
-1199366
-1199719
-1200225
-1200561
-1201242
-1201682
-1202106
-1202532
-1203021
-1203385
-1203764
-1204237
-1204586
-1205015
-1205461
-1205751
-1206134
-1206582
-1206963
-1207200
-1207491
-1207885
-1208137
-1208474
-1208703
-1208576
-1209134
-1209641
-1209896
-1210076
-1210416
-1210648
-1210942
-1211176
-1211416
-1211577
-1211833
-1212235
-1212422
-1212728
-1212940
-1213120
-1213258
-1213505
-1213838
-1214152
-1214419
-1214496
-1214749
-1215081
-1215296
-1215673
-1215868
-1216086
-1216361
-1216545
-1216934
-1217155
-1217272
-1217611
-1217866
-1218217
-1218414
-1218788
-1219166
-1219449
-1219675
-1219914
-1220288
-1220591
-1220876
-1221029
-1221443
-1221635
-1222008
-1222300
-1222624
-1222845
-1223108
-1223505
-1223693
-1223974
-1224426
-1224647
-1225004
-1225305
-1225595
-1225886
-1226025
-1226145
-1226202
-1226084
-1226090
-1225805
-1225672
-1225201
-1224726
-1224071
-1223333
-1222468
-1221308
-1220216
-1219006
-1217847
-1216544
-1215018
-1213544
-1212075
-1210571
-1208933
-1207346
-1205665
-1204011
-1202148
-1200457
-1198879
-1197193
-1195481
-1193826
-1192251
-1190543
-1188994
-1187402
-1185783
-1184391
-1182932
-1181384
-1179943
-1178714
-1177407
-1175987
-1174658
-1173623
-1172400
-1171173
-1170187
-1168996
-1168091
-1167168
-1166292
-1165428
-1164506
-1161452
-1160886
-1160505
-1159936
-1159275
-1158876
-1158336
-1157960
-1157679
-1157344
-1156981
-1156679
-1156380
-1156143
-1156140
-1155897
-1155937
-1155741
-1155672
-1155739
-1155751
-1155691
-1155830
-1155754
-1156021
-1155988
-1156226
-1156053
-1156537
-1156670
-1156998
-1157173
-1157492
-1158598
-1158239
-1158361
-1158756
-1159055
-1159369
-1159830
-1160232
-1160493
-1161011
-1161348
-1161890
-1162457
-1162602
-1163247
-1163773
-1164376
-1164854
-1165529
-1166077
-1166608
-1167276
-1167926
-1168520
-1169095
-1169738
-1170321
-1171072
-1171843
-1172436
-1173034
-1174161
-1174714
-1176317
-1176351
-1176535
-1177248
-1178033
-1178912
-1179331
-1180198
-1180964
-1181688
-1182317
-1182961
-1183464
-1184289
-1185101
-1185846
-1186540
-1187053
-1187813
-1188348
-1189655
-1189790
-1190146
-1190801
-1191356
-1191921
-1192504
-1192556
-1193323
-1193905
-1194381
-1194925
-1194866
-1195631
-1196058
-1196574
-1196884
-1197297
-1197760
-1197762
-1198293
-1198862
-1199205
-1199386
-1199856
-1200204
-1200536
-1200698
-1200847
-1201271
-1201593
-1201976
-1202213
-1202363
-1202567
-1202865
-1203174
-1203593
-1203730
-1203891
-1204281
-1204490
-1204735
-1204818
-1205235
-1205336
-1205574
-1205825
-1205782
-1206090
-1206580
-1206651
-1206893
-1207145
-1207410
-1207576
-1207772
-1207909
-1208121
-1208506
-1208474
-1208935
-1209131
-1209464
-1209718
-1209936
-1210064
-1210424
-1210797
-1212024
-1211540
-1211586
-1211799
-1212106
-1212361
-1212575
-1212827
-1213194
-1214111
-1214018
-1214033
-1214474
-1214720
-1215098
-1215299
-1215615
-1215978
-1216253
-1216183
-1216870
-1217315
-1218188
-1218102
-1218372
-1218666
-1218957
-1218864
-1219322
-1219412
-1219587
-1219498
-1219403
-1219034
-1219071
-1218970
-1218417
-1217994
-1217213
-1216417
-1215522
-1214684
-1213509
-1212377
-1211174
-1209484
-1208014
-1206683
-1204908
-1203665
-1202048
-1200295
-1198848
-1198107
-1195679
-1193375
-1191859
-1190318
-1188449
-1186974
-1185214
-1183564
-1182010
-1180328
-1178902
-1177304
-1176350
-1174554
-1172987
-1171568
-1170105
-1168866
-1167611
-1166244
-1164978
-1163905
-1162833
-1161583
-1160577
-1159581
-1159455
-1158630
-1156897
-1155999
-1155210
-1154479
-1153733
-1153062
-1152460
-1151783
-1151127
-1150617
-1150849
-1149928
-1149248
-1148822
-1148013
-1147892
-1147501
-1147294
-1147276
-1147035
-1147585
-1147011
-1146657
-1146476
-1146438
-1145981
-1146190
-1146271
-1146399
-1146468
-1146535
-1146610
-1147473
-1147016
-1147073
-1147304
-1147482
-1147733
-1147871
-1148150
-1148310
-1148674
-1148929
-1149120
-1149485
-1149900
-1150241
-1150402
-1150958
-1151411
-1151762
-1152138
-1152643
-1153100
-1153365
-1153861
-1154401
-1155042
-1155612
-1156160
-1156646
-1157411
-1157994
-1158651
-1159151
-1160527
-1160633
-1161116
-1161764
-1162355
-1162941
-1163522
-1164348
-1164994
-1165620
-1166397
-1166987
-1167610
-1168337
-1168905
-1170387
-1170373
-1171771
-1171790
-1172385
-1172958
-1173471
-1174176
-1174874
-1175499
-1175951
-1176603
-1177263
-1177803
-1178244
-1178943
-1179525
-1179972
-1180540
-1181163
-1181664
-1182233
-1182732
-1183087
-1183568
-1184159
-1184557
-1184915
-1185456
-1185811
-1186679
-1186879
-1187101
-1187471
-1187861
-1188366
-1188571
-1188954
-1189394
-1189642
-1189899
-1190222
-1190441
-1190766
-1191174
-1191475
-1191784
-1191918
-1192026
-1192374
-1192648
-1192814
-1193000
-1193308
-1193591
-1193686
-1194006
-1194091
-1194286
-1194636
-1194874
-1194850
-1195112
-1195379
-1195527
-1195822
-1195968
-1196166
-1196474
-1196674
-1196893
-1197175
-1197282
-1197603
-1197750
-1198046
-1198227
-1198593
-1198728
-1198894
-1199143
-1199483
-1199683
-1200060
-1200306
-1200529
-1200818
-1201031
-1201311
-1201618
-1202032
-1202208
-1202521
-1202853
-1203165
-1203354
-1203679
-1203914
-1204399
-1204670
-1205068
-1205350
-1205705
-1206005
-1206146
-1206552
-1206828
-1206994
-1207104
-1207176
-1207405
-1207420
-1207347
-1207013
-1206879
-1206382
-1205796
-1205236
-1204512
-1203723
-1202693
-1201611
-1200506
-1199225
-1198002
-1196500
-1195128
-1193560
-1191939
-1190349
-1188618
-1187029
-1185278
-1183424
-1181755
-1180106
-1178378
-1176584
-1175021
-1173257
-1171810
-1170095
-1168641
-1166989
-1165371
-1164017
-1162469
-1161073
-1159565
-1158202
-1157044
-1155725
-1154400
-1153206
-1152258
-1151153
-1150108
-1149103
-1148157
-1147429
-1146619
-1145691
-1144922
-1144242
-1143502
-1142907
-1142085
-1141686
-1141120
-1140598
-1140099
-1139701
-1139239
-1138762
-1138464
-1138130
-1137837
-1137406
-1137191
-1137012
-1136733
-1136611
-1136459
-1136357
-1136271
-1136130
-1136232
-1136262
-1136217
-1136215
-1136316
-1136404
-1136564
-1136658
-1137847
-1138137
-1138311
-1138782
-1138963
-1139271
-1139647
-1139980
-1140418
-1140709
-1141008
-1141556
-1141867
-1142370
-1142770
-1143334
-1143842
-1144288
-1144781
-1145388
-1145931
-1146407
-1147035
-1147632
-1148108
-1148717
-1149426
-1150055
-1150712
-1151247
-1151883
-1152529
-1153089
-1153672
-1154437
-1155037
-1155611
-1156352
-1156892
-1157529
-1158195
-1158741
-1159224
-1159729
-1160389
-1160956
-1161538
-1162119
-1162482
-1163071
-1163583
-1164225
-1164741
-1165225
-1165825
-1166496
-1167055
-1167503
-1168028
-1168548
-1169188
-1169697
-1170147
-1170698
-1171108
-1171712
-1172221
-1172658
-1173268
-1173752
-1174264
-1174739
-1175235
-1175734
-1176220
-1176677
-1177208
-1177659
-1178154
-1178585
-1179018
-1179586
-1179955
-1180278
-1180783
-1181166
-1181526
-1181879
-1182289
-1182595
-1182981
-1183529
-1183932
-1184379
-1184939
-1185303
-1185691
-1186284
-1186677
-1187146
-1187504
-1187979
-1188476
-1188958
-1189404
-1189819
-1190174
-1190597
-1190981
-1191428
-1191804
-1192272
-1192587
-1193116
-1193432
-1193813
-1194205
-1194618
-1194946
-1195432
-1195803
-1196100
-1196494
-1196791
-1197252
-1197555
-1197772
-1198091
-1198418
-1198772
-1199081
-1199619
-1200006
-1200337
-1200688
-1201066
-1201476
-1201839
-1202203
-1202460
-1202798
-1203267
-1203729
-1204095
-1204610
-1204875
-1205280
-1205660
-1206183
-1206506
-1206989
-1207347
-1207990
-1208373
-1208730
-1209263
-1209803
-1210272
-1210712
-1211122
-1211576
-1211814
-1212256
-1212487
-1212751
-1212859
-1213024
-1213000
-1212926
-1212467
-1212018
-1211594
-1210980
-1210205
-1209311
-1208359
-1207260
-1206040
-1204796
-1203310
-1201766
-1200440
-1198821
-1197190
-1195467
-1193763
-1192176
-1190489
-1188792
-1187038
-1185417
-1183790
-1182051
-1180385
-1178578
-1177035
-1175443
-1173854
-1172200
-1170813
-1169213
-1167803
-1166333
-1165090
-1163573
-1162365
-1161186
-1160029
-1158885
-1157647
-1156637
-1155415
-1154539
-1153456
-1152633
-1151855
-1151021
-1150281
-1149495
-1148692
-1148013
-1147249
-1146592
-1146031
-1145414
-1145058
-1144433
-1144028
-1143621
-1143306
-1142835
-1142548
-1142204
-1141903
-1141769
-1141488
-1141293
-1141055
-1140943
-1140919
-1140802
-1140604
-1140713
-1140563
-1140677
-1140665
-1140596
-1140622
-1140789
-1140796
-1141015
-1141031
-1141240
-1141367
-1141555
-1141680
-1141949
-1142172
-1142325
-1142622
-1142922
-1143153
-1143377
-1143551
-1144030
-1144309
-1144666
-1145068
-1145444
-1145791
-1146140
-1146506
-1147046
-1147550
-1147917
-1148538
-1148954
-1149424
-1150090
-1150639
-1151164
-1151745
-1152425
-1152922
-1153565
-1154193
-1154745
-1155448
-1156001
-1156760
-1157294
-1157787
-1158447
-1159000
-1159813
-1160420
-1161185
-1161739
-1162316
-1162930
-1163555
-1164147
-1164575
-1165142
-1165882
-1166371
-1166961
-1167558
-1168052
-1168612
-1169003
-1169630
-1170182
-1170631
-1171114
-1171506
-1171999
-1172699
-1173136
-1173475
-1173780
-1174207
-1174548
-1174982
-1175207
-1175345
-1175780
-1176017
-1176261
-1176773
-1176942
-1177143
-1177486
-1177668
-1177940
-1178085
-1178280
-1178411
-1178647
-1178872
-1179121
-1179264
-1179481
-1179648
-1179796
-1180057
-1180272
-1180425
-1180574
-1180767
-1180968
-1181035
-1181225
-1181385
-1181623
-1181772
-1182007
-1182185
-1182441
-1182705
-1182809
-1183042
-1183302
-1183369
-1183600
-1183734
-1183969
-1184016
-1184405
-1184526
-1184771
-1184991
-1185426
-1185615
-1185840
-1186127
-1186425
-1186668
-1186797
-1186932
-1187346
-1187735
-1188076
-1188391
-1188737
-1189032
-1189158
-1189684
-1189917
-1190169
-1190582
-1190897
-1191154
-1191378
-1191584
-1191820
-1192157
-1192335
-1192573
-1192778
-1193097
-1193303
-1193579
-1193847
-1194129
-1194296
-1194535
-1194765
-1195183
-1195550
-1195941
-1196237
-1196633
-1196859
-1197301
-1197546
-1198012
-1198268
-1198454
-1198815
-1198888
-1199093
-1199144
-1199022
-1199065
-1198775
-1198250
-1197855
-1197413
-1196713
-1196168
-1195184
-1194396
-1193249
-1192247
-1191040
-1189773
-1188597
-1187179
-1185834
-1184325
-1182681
-1181107
-1179644
-1178006
-1176329
-1174741
-1173067
-1171455
-1170012
-1168568
-1167107
-1165631
-1164268
-1162852
-1161574
-1160230
-1158882
-1157542
-1156348
-1155199
-1153991
-1152766
-1151716
-1150565
-1149530
-1148547
-1147515
-1146582
-1145772
-1144949
-1144162
-1143402
-1142851
-1142216
-1141436
-1140757
-1140239
-1139746
-1139187
-1138635
-1138335
-1137898
-1137511
-1137225
-1136949
-1136649
-1136391
-1136126
-1136025
-1135880
-1135663
-1135597
-1135640
-1135621
-1135478
-1135623
-1135687
-1135796
-1135834
-1136015
-1136264
-1136355
-1136507
-1136677
-1136980
-1137124
-1137496
-1137731
-1138056
-1138334
-1138568
-1138812
-1139156
-1139430
-1139838
-1140228
-1140710
-1141077
-1141525
-1141952
-1142525
-1142984
-1143552
-1143974
-1144564
-1145118
-1145570
-1146159
-1146802
-1147275
-1147808
-1148342
-1149047
-1149568
-1150315
-1152261
-1152891
-1153484
-1154045
-1154818
-1155387
-1156189
-1156747
-1157449
-1158074
-1158757
-1159284
-1160131
-1160779
-1161551
-1162175
-1162793
-1163444
-1164138
-1164798
-1165408
-1165962
-1166740
-1167365
-1167909
-1168466
-1169193
-1169705
-1170346
-1170902
-1171562
-1172046
-1172675
-1173210
-1173778
-1174250
-1174775
-1175238
-1175630
-1176145
-1176705
-1177045
-1177439
-1177872
-1178338
-1178612
-1178988
-1179329
-1179747
-1180053
-1180566
-1180846
-1181051
-1181341
-1181584
-1181890
-1182097
-1182270
-1182274
-1182564
-1183315
-1183503
-1183639
-1183769
-1183754
-1183978
-1183997
-1184042
-1184076
-1184150
-1184242
-1184249
-1184236
-1184329
-1184163
-1184202
-1184126
-1184223
-1184344
-1184369
-1184317
-1184373
-1184437
-1184661
-1184752
-1185020
-1185120
-1185067
-1185269
-1185528
-1185861
-1186052
-1186251
-1186520
-1186916
-1187078
-1187171
-1187280
-1187453
-1187695
-1187735
-1187751
-1187934
-1188000
-1188055
-1187974
-1188073
-1188018
-1188195
-1188221
-1188288
-1188492
-1188637
-1188736
-1188795
-1188969
-1189259
-1189395
-1189608
-1189788
-1190004
-1190233
-1190447
-1190531
-1190615
-1190520
-1190450
-1190437
-1190123
-1189833
-1189457
-1189280
-1188934
-1188276
-1187797
-1187218
-1186376
-1185610
-1184835
-1184065
-1183083
-1182058
-1181061
-1179876
-1178646
-1177374
-1176089
-1174795
-1173512
-1171950
-1170542
-1168986
-1167501
-1165765
-1164182
-1162765
-1161421
-1159953
-1158579
-1157145
-1155651
-1154361
-1153081
-1151711
-1150494
-1149206
-1148011
-1146781
-1145622
-1144632
-1143533
-1142383
-1141282
-1140466
-1139543
-1138695
-1137815
-1136868
-1136198
-1135572
-1134991
-1134402
-1133727
-1133185
-1132733
-1132208
-1131828
-1131331
-1130961
-1130479
-1130173
-1129926
-1129783
-1129479
-1129202
-1129089
-1128998
-1128800
-1128782
-1128713
-1128676
-1128510
-1128609
-1128727
-1128759
-1128867
-1128966
-1128983
-1129211
-1129420
-1129462
-1129718
-1129960
-1129995
-1130192
-1130513
-1130762
-1131024
-1131443
-1131810
-1132257
-1132604
-1132706
-1133263
-1133623
-1134206
-1134747
-1135160
-1135417
-1135844
-1136296
-1136708
-1137353
-1137846
-1138394
-1138797
-1139371
-1140089
-1140576
-1141245
-1141754
-1142313
-1143062
-1143733
-1144381
-1145036
-1145786
-1146426
-1147117
-1147720
-1148463
-1149188
-1149761
-1150579
-1151406
-1152067
-1152718
-1153564
-1154228
-1154967
-1155651
-1156235
-1156995
-1157733
-1158436
-1159135
-1159715
-1160311
-1160990
-1161830
-1162386
-1163165
-1163696
-1164301
-1164957
-1165678
-1166328
-1166890
-1167436
-1168082
-1168550
-1169027
-1169657
-1170356
-1171601
-1171446
-1171905
-1172350
-1172936
-1173439
-1173909
-1174442
-1174715
-1175189
-1175670
-1176078
-1176529
-1176767
-1177099
-1177504
-1177722
-1178189
-1178609
-1178833
-1179231
-1179414
-1179719
-1180171
-1180354
-1180702
-1181003
-1181143
-1181501
-1181614
-1181837
-1182135
-1182496
-1182829
-1183125
-1183337
-1183626
-1183665
-1183998
-1184112
-1184447
-1184588
-1184944
-1185268
-1185502
-1185681
-1185828
-1186097
-1186503
-1186680
-1186988
-1187185
-1187458
-1187768
-1188002
-1188256
-1188505
-1188804
-1189007
-1189222
-1189527
-1189802
-1190034
-1190419
-1190691
-1190900
-1191036
-1191503
-1191621
-1191891
-1192086
-1192438
-1192610
-1192888
-1193167
-1193484
-1193761
-1194156
-1194324
-1194574
-1195023
-1195252
-1195624
-1196083
-1196425
-1196721
-1197085
-1197433
-1197706
-1198052
-1198384
-1198598
-1199035
-1199268
-1199505
-1199775
-1200129
-1200370
-1200382
-1200468
-1200384
-1200358
-1200013
-1199896
-1199493
-1198931
-1198404
-1197790
-1196861
-1196053
-1195086
-1193885
-1192643
-1191483
-1190078
-1188727
-1187362
-1185837
-1184263
-1182718
-1180746
-1179191
-1177596
-1176160
-1174439
-1172694
-1170978
-1169444
-1167863
-1166284
-1164598
-1163050
-1161439
-1159938
-1158460
-1157014
-1155716
-1154290
-1152965
-1151676
-1150503
-1149231
-1149027
-1147216
-1146141
-1145102
-1144065
-1143145
-1142207
-1141268
-1140444
-1139644
-1138907
-1138258
-1137731
-1136967
-1136405
-1135843
-1135361
-1134904
-1134441
-1134066
-1133851
-1133549
-1133143
-1132832
-1132660
-1132564
-1132250
-1132236
-1131963
-1131899
-1131772
-1131889
-1131732
-1131680
-1131694
-1131731
-1131957
-1132033
-1132083
-1132191
-1132214
-1132508
-1132602
-1132707
-1132950
-1133053
-1133186
-1133500
-1133701
-1133864
-1134060
-1134442
-1134795
-1135011
-1135271
-1135695
-1135975
-1136326
-1136778
-1137155
-1137654
-1138079
-1138626
-1139154
-1139612
-1140063
-1140614
-1141124
-1141697
-1142176
-1142738
-1143394
-1143866
-1144417
-1144998
-1145674
-1146307
-1146888
-1147373
-1147901
-1148494
-1149182
-1149771
-1150435
-1151099
-1151569
-1152273
-1152886
-1153522
-1153989
-1154549
-1155308
-1155861
-1156480
-1156948
-1157593
-1158266
-1158739
-1159308
-1159768
-1160386
-1160888
-1161386
-1162116
-1162664
-1163270
-1163668
-1164112
-1164665
-1165165
-1165703
-1166080
-1166518
-1166892
-1167411
-1167916
-1168325
-1169771
-1169414
-1169614
-1169902
-1170184
-1170596
-1170918
-1171337
-1171583
-1171816
-1172104
-1172430
-1172756
-1172990
-1173372
-1173678
-1173876
-1174023
-1174409
-1174642
-1174886
-1175087
-1175398
-1175557
-1175839
-1176085
-1176144
-1176445
-1176682
-1176943
-1177258
-1177456
-1177672
-1178075
-1178197
-1178548
-1178713
-1179083
-1179338
-1179503
-1179608
-1179966
-1180202
-1180400
-1180479
-1180721
-1181016
-1181276
-1181365
-1181470
-1181686
-1181977
-1182096
-1182281
-1182357
-1182648
-1182844
-1183028
-1183208
-1183459
-1183736
-1183843
-1184089
-1184304
-1184356
-1184291
-1184815
-1185133
-1185300
-1185414
-1185782
-1185922
-1186223
-1186424
-1186615
-1186788
-1187077
-1187220
-1187374
-1187640
-1187789
-1187996
-1188276
-1188544
-1188651
-1189008
-1189412
-1189517
-1189637
-1189976
-1190076
-1190349
-1190559
-1190928
-1191036
-1191349
-1191641
-1191828
-1191950
-1192092
-1192216
-1192380
-1192427
-1192366
-1192417
-1192594
-1192760
-1193005
-1193216
-1193373
-1193295
-1193440
-1193361
-1193465
-1193340
-1193048
-1192641
-1192148
-1191522
-1191014
-1190476
-1189846
-1189137
-1188407
-1187450
-1186475
-1185402
-1184138
-1182643
-1180988
-1179494
-1177883
-1176277
-1174720
-1173224
-1171801
-1170288
-1168603
-1167048
-1165342
-1163835
-1162163
-1160614
-1158917
-1157427
-1155755
-1154166
-1152648
-1151340
-1149925
-1148738
-1147357
-1146063
-1144821
-1143358
-1142253
-1141539
-1140373
-1139452
-1138420
-1137452
-1136704
-1135983
-1135049
-1134247
-1133432
-1132791
-1132113
-1131446
-1130774
-1130300
-1129808
-1129412
-1128864
-1128446
-1128078
-1127683
-1127358
-1126944
-1126489
-1126358
-1126150
-1126066
-1125991
-1126028
-1126066
-1126078
-1126176
-1126235
-1126361
-1126357
-1126534
-1126555
-1126924
-1127104
-1127448
-1127721
-1127958
-1128449
-1128417
-1129082
-1129523
-1129960
-1130247
-1130783
-1131234
-1131555
-1132087
-1132493
-1132970
-1133466
-1133817
-1134393
-1134857
-1135444
-1136057
-1136639
-1137183
-1137809
-1138425
-1139017
-1139571
-1140195
-1140829
-1141489
-1142191
-1142842
-1143597
-1144430
-1145221
-1145855
-1146617
-1147289
-1147989
-1148690
-1149411
-1150269
-1151013
-1151744
-1152524
-1153283
-1154051
-1154901
-1155490
-1156237
-1156960
-1157644
-1158433
-1159108
-1159940
-1160601
-1161413
-1162221
-1163024
-1163640
-1164517
-1165278
-1165909
-1166364
-1167225
-1167992
-1168684
-1169532
-1170084
-1170686
-1171111
-1171854
-1172455
-1173071
-1173603
-1174013
-1174514
-1175009
-1175665
-1176576
-1176839
-1177269
-1177509
-1178091
-1178558
-1179707
-1179660
-1180023
-1180506
-1181034
-1181478
-1181800
-1182272
-1182836
-1183333
-1183499
-1183935
-1184371
-1184696
-1184983
-1185366
-1185765
-1186080
-1186360
-1186779
-1187681
-1187420
-1187604
-1187997
-1188088
-1188510
-1188745
-1189090
-1189427
-1189629
-1189833
-1190152
-1190582
-1190837
-1191158
-1191640
-1192026
-1192425
-1192836
-1193235
-1193698
-1194208
-1194570
-1194903
-1195360
-1195737
-1195946
-1196486
-1196787
-1197132
-1197459
-1197703
-1198180
-1198556
-1198941
-1199199
-1199665
-1200019
-1200316
-1200649
-1201120
-1201544
-1201702
-1202076
-1202535
-1202718
-1203120
-1203393
-1203597
-1203948
-1204191
-1204622
-1204785
-1204951
-1205194
-1205146
-1205283
-1205664
-1205795
-1206288
-1206564
-1206857
-1207114
-1207270
-1207560
-1208088
-1208486
-1208864
-1209199
-1209574
-1209898
-1210375
-1210680
-1211263
-1211639
-1212000
-1212322
-1212399
-1212519
-1212726
-1212681
-1212591
-1212467
-1212094
-1211597
-1210916
-1210245
-1209520
-1208662
-1207700
-1206578
-1205538
-1204158
-1202944
-1201568
-1200131
-1198580
-1197012
-1195447
-1195000
-1192672
-1190793
-1189070
-1187474
-1185734
-1184049
-1182472
-1180788
-1179193
-1177440
-1175898
-1174198
-1172832
-1171301
-1169674
-1168181
-1166931
-1165442
-1164186
-1162899
-1161587
-1160463
-1159212
-1158171
-1157034
-1155938
-1155045
-1154065
-1153269
-1152446
-1151569
-1150856
-1150080
-1149455
-1148871
-1148381
-1147767
-1147371
-1146909
-1146427
-1145939
-1145690
-1145382
-1145051
-1144838
-1144422
-1144273
-1143928
-1143906
-1143713
-1143588
-1143572
-1143637
-1143689
-1143591
-1143609
-1143791
-1143942
-1143984
-1144135
-1144371
-1144403
-1144560
-1144768
-1145106
-1145408
-1145568
-1146051
-1147001
-1146748
-1146864
-1147364
-1147746
-1148053
-1148455
-1148750
-1149232
-1149590
-1149952
-1151087
-1151042
-1151337
-1151856
-1152281
-1152723
-1153257
-1153958
-1154469
-1155074
-1155624
-1156114
-1156856
-1157454
-1158146
-1158835
-1159415
-1160052
-1160808
-1161338
-1162111
-1162805
-1163481
-1164231
-1164926
-1165530
-1166179
-1166870
-1167494
-1168221
-1168971
-1169729
-1170274
-1170966
-1171574
-1173055
-1173189
-1173614
-1174163
-1174872
-1175427
-1176149
-1176502
-1177170
-1177727
-1178196
-1178798
-1179244
-1179736
-1180174
-1180547
-1181044
-1181443
-1181963
-1182526
-1183063
-1183501
-1183747
-1184267
-1184458
-1185113
-1185592
-1185969
-1186385
-1186746
-1187033
-1187539
-1187655
-1188104
-1188353
-1188681
-1188831
-1189089
-1189437
-1189592
-1189682
-1190031
-1190160
-1190351
-1190543
-1190818
-1190969
-1191181
-1191400
-1191555
-1191939
-1192229
-1192259
-1192600
-1192728
-1193037
-1193378
-1193481
-1193767
-1194098
-1194263
-1194506
-1194787
-1194927
-1195167
-1195341
-1195597
-1195813
-1195983
-1196185
-1196365
-1196559
-1197517
-1197294
-1197380
-1197586
-1197795
-1198034
-1198169
-1198485
-1198751
-1199006
-1199150
-1199359
-1199758
-1199983
-1200319
-1200382
-1200710
-1201017
-1201338
-1201664
-1201859
-1202164
-1202477
-1202727
-1203072
-1203403
-1203713
-1203904
-1204209
-1204529
-1204872
-1204997
-1205418
-1205762
-1206050
-1206367
-1206748
-1207011
-1207330
-1207654
-1207960
-1208379
-1208657
-1208991
-1209125
-1209307
-1209620
-1209633
-1209805
-1210417
-1209973
-1209432
-1209022
-1208625
-1207946
-1207317
-1206596
-1205658
-1204610
-1203448
-1202286
-1200979
-1199617
-1198087
-1196560
-1195114
-1193491
-1191810
-1189957
-1188357
-1186696
-1184860
-1183220
-1181407
-1179537
-1177767
-1176059
-1174339
-1172857
-1171166
-1169110
-1167494
-1166085
-1164798
-1163315
-1161937
-1160443
-1159031
-1152938
-1150950
-1150006
-1149117
-1148243
-1147463
-1146540
-1145727
-1145042
-1144384
-1143748
-1143145
-1142484
-1141953
-1141459
-1141035
-1140579
-1140129
-1139806
-1139435
-1139067
-1138808
-1138493
-1138472
-1138151
-1137908
-1137937
-1137728
-1137661
-1137513
-1137587
-1137574
-1137467
-1137581
-1137583
-1137296
-1137583
-1137715
-1138007
-1138264
-1138344
-1138614
-1138839
-1139062
-1139277
-1139636
-1139819
-1140245
-1140057
-1140582
-1140939
-1141274
-1141671
-1142052
-1142389
-1143504
-1143551
-1143743
-1144105
-1144502
-1144964
-1145446
-1145989
-1146480
-1146949
-1147410
-1147624
-1148318
-1148981
-1149756
-1150392
-1150944
-1151481
-1152122
-1152780
-1153476
-1154090
-1154649
-1155286
-1155991
-1156663
-1157380
-1158155
-1158767
-1159375
-1160183
-1160893
-1161441
-1162147
-1162583
-1163383
-1164218
-1164846
-1165563
-1166159
-1166841
-1167593
-1168086
-1168702
-1169347
-1169945
-1170676
-1171268
-1171691
-1172246
-1172826
-1173298
-1173823
-1174338
-1174920
-1175306
-1175787
-1176276
-1176416
-1177292
-1177726
-1178043
-1178602
-1178882
-1179360
-1179637
-1179965
-1180421
-1180719
-1180971
-1181370
-1181633
-1181885
-1182221
-1182618
-1182920
-1183236
-1183310
-1183536
-1183750
-1183985
-1184236
-1184518
-1184598
-1184950
-1185113
-1185233
-1185437
-1185464
-1185786
-1185884
-1186104
-1186230
-1186374
-1186726
-1186889
-1186906
-1187042
-1187053
-1187058
-1187260
-1187228
-1187663
-1187650
-1187912
-1187967
-1188325
-1188502
-1188645
-1188837
-1188898
-1188932
-1189047
-1189176
-1189415
-1189457
-1189557
-1189804
-1190126
-1190367
-1190369
-1190692
-1190793
-1190959
-1191113
-1191335
-1191394
-1191672
-1191981
-1192157
-1192414
-1192671
-1192864
-1193296
-1193535
-1193852
-1194068
-1194363
-1194616
-1195072
-1195358
-1195647
-1195996
-1196246
-1196522
-1196832
-1197040
-1197328
-1197652
-1198020
-1198376
-1198660
-1198877
-1199340
-1199644
-1200034
-1200291
-1200462
-1200728
-1200604
-1201340
-1201479
-1201616
-1201443
-1201581
-1201313
-1201084
-1200836
-1200508
-1199943
-1199021
-1198357
-1197602
-1196690
-1195652
-1194535
-1193377
-1192179
-1190713
-1189424
-1187965
-1186376
-1184876
-1183174
-1181646
-1180029
-1178280
-1176597
-1175147
-1173359
-1171702
-1170231
-1168502
-1166900
-1165499
-1163871
-1162337
-1161026
-1159354
-1157950
-1156547
-1155009
-1153956
-1152701
-1151379
-1150299
-1149171
-1148084
-1147102
-1146182
-1145264
-1144293
-1143420
-1142716
-1141887
-1141146
-1140367
-1139792
-1139173
-1138782
-1138137
-1137780
-1137281
-1136800
-1136435
-1136064
-1135902
-1135672
-1135409
-1135117
-1134963
-1134798
-1134626
-1134558
-1134461
-1134403
-1134176
-1134408
-1134361
-1134584
-1135422
-1134980
-1134896
-1135065
-1135103
-1135366
-1135569
-1135772
-1135944
-1136137
-1136384
-1136657
-1136863
-1137165
-1137347
-1137657
-1137968
-1138246
-1138498
-1138899
-1139122
-1139648
-1139997
-1140455
-1140887
-1141337
-1141799
-1142151
-1142692
-1143250
-1143761
-1144356
-1144779
-1145384
-1145861
-1146365
-1147090
-1147702
-1148251
-1148773
-1149488
-1150135
-1150702
-1151370
-1151991
-1152559
-1153169
-1153855
-1154359
-1154943
-1155510
-1156126
-1156783
-1157527
-1158051
-1158755
-1159356
-1159962
-1160549
-1161304
-1162011
-1162661
-1163208
-1163836
-1164503
-1165157
-1165771
-1166375
-1166972
-1167459
-1167968
-1168361
-1168907
-1169435
-1170031
-1170462
-1170993
-1171497
-1171939
-1172365
-1172809
-1173241
-1173587
-1173931
-1174355
-1174686
-1175050
-1175513
-1175973
-1176393
-1176873
-1177263
-1177649
-1177945
-1178344
-1178846
-1179176
-1179618
-1179908
-1180156
-1180372
-1180726
-1181056
-1181207
-1181261
-1181595
-1181914
-1182047
-1182433
-1182777
-1183050
-1183371
-1183563
-1183757
-1183983
-1184261
-1184621
-1184700
-1184869
-1185151
-1185427
-1185562
-1185605
-1185991
-1186034
-1186204
-1186358
-1186686
-1186803
-1187079
-1187396
-1187735
-1187823
-1188133
-1188377
-1188660
-1188900
-1189155
-1189287
-1189559
-1189785
-1190087
-1190349
-1190601
-1190826
-1191286
-1191487
-1191825
-1192234
-1193069
-1192992
-1193209
-1193358
-1193549
-1193859
-1194234
-1194480
-1194875
-1195209
-1195528
-1196766
-1196510
-1196659
-1196631
-1197060
-1197405
-1197779
-1198236
-1198478
-1198838
-1199349
-1199626
-1199982
-1200344
-1200764
-1201144
-1201530
-1201869
-1202300
-1202601
-1203017
-1203317
-1203818
-1204075
-1204528
-1204769
-1205310
-1205660
-1205872
-1206319
-1206702
-1207101
-1207560
-1208066
-1208350
-1208585
-1208855
-1208985
-1209142
-1209144
-1209080
-1208949
-1208797
-1208099
-1207923
-1207432
-1206726
-1205824
-1204858
-1203968
-1202900
-1201668
-1200373
-1198925
-1197488
-1196125
-1194671
-1192983
-1191463
-1189833
-1188177
-1186501
-1184865
-1183117
-1181503
-1179879
-1178172
-1176427
-1174910
-1173183
-1171599
-1170148
-1168651
-1167268
-1165776
-1164417
-1163037
-1161612
-1160407
-1159180
-1157673
-1156758
-1155618
-1154528
-1153687
-1152593
-1151713
-1150878
-1149988
-1149210
-1148543
-1147753
-1147112
-1146415
-1145667
-1145292
-1144799
-1143965
-1143551
-1143066
-1142788
-1142411
-1141038
-1140775
-1140625
-1140516
-1140406
-1140409
-1140277
-1140293
-1140287
-1140419
-1140517
-1140636
-1140811
-1140898
-1140703
-1141065
-1141239
-1141491
-1141789
-1142219
-1142484
-1142720
-1143000
-1143233
-1143574
-1143934
-1144276
-1144664
-1144993
-1145294
-1145716
-1146183
-1146642
-1146943
-1147419
-1147888
-1148370
-1148920
-1149303
-1149959
-1150481
-1150930
-1151527
-1152166
-1152575
-1153123
-1153400
-1154355
-1154574
-1155558
-1156118
-1156878
-1157583
-1158363
-1158945
-1159567
-1160247
-1161018
-1161840
-1162406
-1163120
-1163817
-1164512
-1165070
-1165663
-1166421
-1166997
-1167676
-1168464
-1169060
-1169568
-1170265
-1170728
-1171199
-1171850
-1172438
-1172802
-1173395
-1173815
-1174428
-1175614
-1175474
-1175723
-1176129
-1176454
-1176739
-1177070
-1177476
-1177783
-1178194
-1178395
-1178785
-1179111
-1179339
-1179622
-1179778
-1180135
-1180411
-1180611
-1180757
-1180941
-1181165
-1181409
-1181602
-1181755
-1182024
-1182060
-1182421
-1182562
-1182817
-1182887
-1183079
-1183260
-1183354
-1183430
-1183655
-1183796
-1184066
-1184124
-1184239
-1184445
-1184509
-1184743
-1184872
-1185105
-1185183
-1185273
-1185326
-1185521
-1185676
-1185874
-1186039
-1186067
-1186180
-1186393
-1186597
-1186613
-1186882
-1186987
-1187136
-1187448
-1187682
-1187922
-1187972
-1188284
-1188551
-1188752
-1188981
-1189188
-1189436
-1189703
-1189804
-1190047
-1190434
-1190700
-1190931
-1191188
-1191438
-1191707
-1191886
-1192236
-1192256
-1192730
-1193027
-1193290
-1193652
-1193901
-1194279
-1194529
-1194787
-1195169
-1195459
-1195689
-1195879
-1196263
-1196473
-1196895
-1197160
-1197378
-1197695
-1198061
-1198394
-1198567
-1198767
-1199062
-1199304
-1199416
-1199530
-1199597
-1199469
-1199213
-1198881
-1198497
-1197962
-1197324
-1196634
-1195883
-1194903
-1194127
-1192985
-1191839
-1190686
-1189294
-1187987
-1186582
-1184990
-1183554
-1182128
-1180545
-1178869
-1177285
-1175666
-1174009
-1172407
-1170777
-1169056
-1167444
-1165799
-1164147
-1162662
-1161095
-1159658
-1158228
-1156754
-1155448
-1154173
-1152779
-1151560
-1150417
-1149128
-1147897
-1146621
-1145508
-1144121
-1143100
-1142048
-1141161
-1140298
-1139512
-1138830
-1137997
-1137414
-1136747
-1135948
-1135484
-1134826
-1134451
-1133980
-1133508
-1133104
-1132886
-1132623
-1132401
-1132222
-1132091
-1131954
-1131841
-1131620
-1131675
-1131470
-1131346
-1131476
-1131650
-1131684
-1131929
-1132043
-1132125
-1132248
-1132816
-1132578
-1132524
-1132687
-1132827
-1133057
-1133415
-1133671
-1133944
-1134253
-1134507
-1134715
-1135086
-1135427
-1135782
-1135979
-1136475
-1136765
-1137162
-1137501
-1137838
-1138271
-1138825
-1139143
-1139541
-1139971
-1140349
-1140881
-1141370
-1141944
-1142454
-1142885
-1143481
-1143914
-1144566
-1145068
-1145491
-1146132
-1146842
-1147382
-1148057
-1148479
-1149015
-1149413
-1149865
-1150445
-1150842
-1151466
-1152101
-1152847
-1153593
-1154282
-1154967
-1155725
-1156174
-1156679
-1157082
-1157496
-1158169
-1161684
-1162129
-1162633
-1163240
-1163759
-1164080
-1164499
-1164944
-1165464
-1165870
-1166193
-1166736
-1167815
-1167647
-1168417
-1168484
-1168652
-1169000
-1169330
-1169759
-1170007
-1170325
-1170769
-1171045
-1172054
-1171805
-1171942
-1172277
-1172443
-1172821
-1173110
-1173262
-1173576
-1173756
-1174093
-1174487
-1174748
-1174915
-1175280
-1175418
-1175596
-1175777
-1176005
-1176334
-1176585
-1176719
-1176913
-1177093
-1177278
-1177701
-1177870
-1178158
-1178321
-1178552
-1178781
-1179048
-1179433
-1179596
-1179885
-1180174
-1180300
-1180533
-1180927
-1181159
-1181439
-1181537
-1181757
-1181996
-1182380
-1182633
-1182931
-1183055
-1183389
-1183648
-1183858
-1184271
-1184601
-1184876
-1185220
-1185447
-1185772
-1186231
-1186421
-1186683
-1187045
-1187392
-1187827
-1188176
-1188468
-1188728
-1189282
-1189650
-1189960
-1190260
-1190751
-1191077
-1191413
-1191792
-1192322
-1192741
-1192987
-1193427
-1193789
-1194332
-1194682
-1195045
-1195220
-1195541
-1195800
-1195820
-1195801
-1195886
-1195634
-1195508
-1195161
-1194759
-1194138
-1193397
-1192665
-1191872
-1191007
-1189908
-1188647
-1187459
-1186176
-1184777
-1183241
-1181864
-1180463
-1178940
-1177193
-1175553
-1174013
-1172301
-1170694
-1169143
-1167421
-1165839
-1164216
-1162590
-1160978
-1160242
-1158170
-1156531
-1155058
-1153583
-1152025
-1150638
-1149340
-1148266
-1146973
-1145635
-1144587
-1143469
-1142458
-1141474
-1140417
-1139544
-1138609
-1137757
-1137093
-1136385
-1135536
-1134851
-1134108
-1133555
-1133567
-1132664
-1131995
-1131565
-1131129
-1130759
-1130340
-1130033
-1129769
-1129565
-1129276
-1129264
-1129006
-1128964
-1128835
-1128724
-1128725
-1128745
-1128826
-1128833
-1128912
-1129030
-1129079
-1129214
-1129327
-1129450
-1129557
-1129800
-1130054
-1130347
-1130486
-1130934
-1131035
-1131408
-1131593
-1131932
-1132244
-1132534
-1132932
-1133326
-1133589
-1133902
-1134318
-1134908
-1135227
-1135629
-1136036
-1136448
-1137072
-1137460
-1137986
-1138616
-1139042
-1139566
-1140128
-1140602
-1141286
-1141865
-1142557
-1143200
-1143889
-1144448
-1145164
-1145830
-1146453
-1146883
-1147623
-1148346
-1148957
-1149779
-1150453
-1151025
-1151762
-1152231
-1152975
-1153654
-1154258
-1154861
-1155449
-1156092
-1156745
-1157359
-1158058
-1158864
-1159457
-1160059
-1160751
-1161288
-1162468
-1162662
-1163099
-1163683
-1164397
-1164901
-1165375
-1165790
-1166332
-1166679
-1167264
-1167746
-1168293
-1168723
-1169103
-1169473
-1169813
-1170261
-1170705
-1171036
-1171401
-1171684
-1172085
-1172419
-1172800
-1173075
-1173376
-1173605
-1174006
-1174335
-1174674
-1174938
-1175086
-1175355
-1175711
-1175685
-1176003
-1176200
-1176638
-1176887
-1177191
-1177306
-1177423
-1177684
-1178421
-1178311
-1178392
-1178629
-1178756
-1178854
-1179038
-1179247
-1179322
-1179658
-1179761
-1179951
-1180093
-1180245
-1180573
-1180743
-1180846
-1181110
-1181279
-1182269
-1181966
-1182105
-1182243
-1182573
-1182676
-1182929
-1183193
-1183373
-1183568
-1183448
-1183849
-1184274
-1184637
-1184690
-1184969
-1185147
-1185322
-1185452
-1185699
-1185938
-1186254
-1186445
-1186720
-1186871
-1187174
-1187781
-1187674
-1187914
-1188150
-1188312
-1188509
-1188703
-1188842
-1189038
-1189372
-1189635
-1189957
-1190062
-1190434
-1190853
-1191172
-1191529
-1191878
-1192236
-1192465
-1192777
-1193126
-1193491
-1193848
-1194200
-1194461
-1194617
-1195038
-1195324
-1195529
-1195624
-1195770
-1195775
-1195590
-1195481
-1195393
-1195024
-1194630
-1193996
-1193335
-1192649
-1191771
-1190709
-1189544
-1188471
-1187246
-1185949
-1184566
-1183022
-1181498
-1180002
-1178299
-1176734
-1174968
-1173342
-1172182
-1170314
-1168360
-1166595
-1164869
-1163237
-1161499
-1159844
-1158275
-1156746
-1155243
-1153854
-1152428
-1151070
-1149682
-1148369
-1146927
-1145655
-1144491
-1143324
-1142296
-1141198
-1140147
-1139138
-1138344
-1137524
-1136672
-1135780
-1135114
-1134215
-1133701
-1133121
-1132491
-1131975
-1131465
-1130736
-1130574
-1130178
-1129851
-1129472
-1129329
-1129070
-1128803
-1128560
-1128401
-1128300
-1128353
-1128319
-1128296
-1128283
-1128347
-1128455
-1128602
-1128784
-1128827
-1129149
-1129231
-1129576
-1129715
-1129990
-1130289
-1130636
-1130813
-1131211
-1131571
-1131877
-1132106
-1132473
-1132799
-1133155
-1133683
-1134111
-1134369
-1134833
-1135224
-1135752
-1136385
-1136643
-1137233
-1137799
-1138283
-1138781
-1139416
-1139951
-1140411
-1141005
-1141563
-1142302
-1142854
-1143530
-1144211
-1144786
-1145469
-1146570
-1146860
-1147506
-1148052
-1148684
-1149505
-1150214
-1150954
-1151515
-1152179
-1152920
-1153609
-1154400
-1155025
-1155682
-1156401
-1157132
-1157856
-1158616
-1159270
-1159967
-1160620
-1161398
-1162012
-1162594
-1163220
-1163881
-1164602
-1165183
-1165931
-1166517
-1167085
-1167659
-1168271
-1168895
-1169585
-1170131
-1170757
-1171310
-1171773
-1172197
-1172692
-1173212
-1173751
-1174157
-1174659
-1175099
-1175480
-1175923
-1176367
-1176853
-1177283
-1177586
-1177913
-1178342
-1178652
-1179042
-1179330
-1179544
-1179829
-1180093
-1180290
-1180574
-1181006
-1181291
-1181209
-1181605
-1181942
-1182178
-1182391
-1182648
-1182895
-1183138
-1183415
-1183555
-1183717
-1184030
-1184274
-1184427
-1184774
-1184988
-1185201
-1185413
-1185681
-1185949
-1186400
-1186634
-1187076
-1187425
-1187725
-1187859
-1188204
-1188491
-1188849
-1189129
-1189245
-1189549
-1189747
-1190152
-1190337
-1190734
-1191108
-1191384
-1191565
-1191770
-1192099
-1192354
-1192848
-1193161
-1193294
-1193683
-1193907
-1194136
-1194487
-1194767
-1195028
-1195311
-1195639
-1195970
-1196092
-1196631
-1196786
-1197207
-1197518
-1197992
-1198180
-1198416
-1198783
-1199025
-1199334
-1199832
-1200218
-1200474
-1200905
-1201276
-1201622
-1201936
-1202378
-1202718
-1203115
-1203563
-1203885
-1204036
-1204452
-1204718
-1204928
-1205117
-1205297
-1205344
-1205527
-1205470
-1205246
-1204979
-1204724
-1204254
-1203711
-1202875
-1202114
-1201289
-1200430
-1199269
-1199006
-1197158
-1195742
-1194308
-1192832
-1191275
-1189672
-1188042
-1186431
-1184806
-1183244
-1181433
-1179728
-1177907
-1176154
-1174452
-1172624
-1171018
-1169272
-1167469
-1165928
-1164263
-1162742
-1161321
-1159793
-1158354
-1156918
-1155644
-1154307
-1152990
-1151704
-1150627
-1149407
-1148357
-1147370
-1146339
-1145467
-1144503
-1143693
-1142940
-1142182
-1141395
-1140714
-1140073
-1139560
-1139063
-1138648
-1138184
-1137793
-1137367
-1136991
-1136686
-1136556
-1136382
-1136227
-1135985
-1135847
-1135927
-1135854
-1135718
-1135588
-1135810
-1135767
-1135558
-1135834
-1135911
-1136007
-1136274
-1136407
-1136474
-1136683
-1136882
-1137207
-1137428
-1137810
-1138143
-1138492
-1138753
-1139065
-1139395
-1139730
-1140238
-1140598
-1141013
-1141529
-1141779
-1142337
-1142712
-1143265
-1143750
-1144273
-1144761
-1145338
-1145713
-1146311
-1146930
-1147536
-1148094
-1148786
-1149421
-1150024
-1150566
-1151390
-1151961
-1152638
-1153203
-1153831
-1154568
-1155349
-1155843
-1156570
-1157173
-1157781
-1158433
-1159030
-1159730
-1160449
-1161030
-1161843
-1162424
-1162986
-1163587
-1164230
-1164930
-1165578
-1166753
-1166828
-1167293
-1167986
-1168544
-1169099
-1169696
-1170222
-1170803
-1171369
-1171814
-1172339
-1172873
-1173408
-1173816
-1174395
-1174748
-1175197
-1175652
-1176060
-1176483
-1176946
-1177315
-1177764
-1178180
-1179182
-1178992
-1179090
-1179296
-1179521
-1179985
-1180213
-1180439
-1180713
-1181081
-1181668
-1181555
-1181731
-1181866
-1182095
-1182304
-1182414
-1182598
-1182841
-1182962
-1183118
-1183360
-1183424
-1183650
-1183746
-1183972
-1184128
-1184329
-1184502
-1184681
-1184886
-1184889
-1185199
-1185310
-1185321
-1185601
-1185799
-1186461
-1186667
-1186869
-1187047
-1187223
-1187351
-1187560
-1187850
-1188259
-1188557
-1188765
-1189056
-1189972
-1189885
-1190105
-1190444
-1190668
-1190997
-1191294
-1191720
-1191941
-1192220
-1192458
-1192711
-1193101
-1193468
-1193683
-1194044
-1194365
-1194683
-1195628
-1195638
-1195893
-1196276
-1196474
-1196948
-1197368
-1197688
-1197999
-1198325
-1198752
-1199203
-1199461
-1199744
-1200084
-1200337
-1200826
-1201009
-1201224
-1201212
-1201439
-1201522
-1201407
-1201256
-1200998
-1200658
-1200213
-1199679
-1198967
-1198245
-1197469
-1196422
-1195326
-1195373
-1193477
-1192054
-1190748
-1189273
-1187891
-1186348
-1184741
-1183424
-1181768
-1180117
-1178433
-1176940
-1175347
-1173691
-1172109
-1170424
-1168826
-1167320
-1165230
-1164030
-1162618
-1161086
-1159601
-1158219
-1156694
-1155453
-1154152
-1152774
-1151571
-1150413
-1149199
-1148106
-1147101
-1146027
-1145022
-1143957
-1143005
-1142298
-1141380
-1140647
-1139952
-1139064
-1138418
-1137704
-1137202
-1136645
-1136151
-1135671
-1135119
-1134588
-1134265
-1133961
-1133549
-1133338
-1133003
-1132646
-1132557
-1132517
-1132448
-1132386
-1132252
-1132134
-1132206
-1132218
-1132265
-1132414
-1132425
-1132653
-1132776
-1132821
-1132927
-1132989
-1133158
-1133380
-1133686
-1133859
-1134250
-1134363
-1134833
-1135164
-1135583
-1135988
-1136339
-1136667
-1137087
-1137488
-1137941
-1138431
-1138793
-1139234
-1139716
-1140057
-1140640
-1141106
-1141611
-1141993
-1142516
-1143165
-1143636
-1144265
-1144900
-1145538
-1146168
-1146863
-1147333
-1147949
-1148588
-1149210
-1149890
-1150453
-1151152
-1151779
-1152562
-1153138
-1153718
-1154458
-1155190
-1155922
-1156629
-1156864
-1157729
-1158477
-1159168
-1159920
-1160425
-1161005
-1161689
-1162283
-1163009
-1163609
-1164200
-1164788
-1165292
-1165836
-1166343
-1167024
-1167538
-1168149
-1168595
-1169117
-1169469
-1170087
-1170596
-1171123
-1171658
-1171815
-1172394
-1172700
-1173292
-1173733
-1173997
-1174224
-1174742
-1174971
-1175363
-1175611
-1175989
-1176199
-1176578
-1176865
-1177008
-1177376
-1177696
-1177796
-1177992
-1178445
-1178558
-1178861
-1179095
-1179321
-1179500
-1179607
-1179851
-1179958
-1180098
-1180151
-1180405
-1180531
-1180508
-1180679
-1180889
-1181055
-1181241
-1181272
-1181409
-1181665
-1181777
-1182007
-1182226
-1182291
-1182587
-1182794
-1183053
-1183256
-1183333
-1183507
-1183696
-1183910
-1184050
-1184291
-1184427
-1184663
-1184774
-1184962
-1185190
-1185376
-1185469
-1185908
-1186000
-1186251
-1186516
-1186704
-1187056
-1187286
-1187652
-1187977
-1188255
-1188421
-1188878
-1189085
-1189453
-1189771
-1190123
-1190448
-1190767
-1191049
-1191392
-1191775
-1192164
-1192554
-1192747
-1193080
-1193359
-1193677
-1193970
-1194329
-1194611
-1194882
-1195154
-1195239
-1195362
-1195420
-1195326
-1195322
-1194932
-1194642
-1194299
-1193921
-1193344
-1192622
-1191856
-1190863
-1189941
-1188864
-1187673
-1186499
-1185079
-1183805
-1182253
-1180845
-1179253
-1177588
-1175923
-1174284
-1172673
-1170934
-1169339
-1167469
-1165758
-1164188
-1162536
-1160882
-1159243
-1157624
-1155716
-1154307
-1152800
-1151288
-1150020
-1148546
-1147300
-1146055
-1144618
-1143456
-1142365
-1141282
-1140180
-1139164
-1138249
-1137193
-1136179
-1135361
-1134656
-1133971
-1133332
-1132567
-1132012
-1131449
-1130835
-1130410
-1129993
-1129534
-1129125
-1128766
-1128397
-1127691
-1127773
-1127678
-1127616
-1127330
-1127180
-1127016
-1126995
-1126920
-1126859
-1127005
-1127033
-1127105
-1127180
-1127225
-1127387
-1127348
-1127634
-1127746
-1127893
-1128083
-1128428
-1128573
-1128842
-1129862
-1129646
-1129839
-1130064
-1130320
-1130633
-1131058
-1131382
-1131842
-1132253
-1132618
-1133008
-1133461
-1133941
-1134213
-1134756
-1135204
-1135640
-1136247
-1136755
-1137185
-1137795
-1138276
-1138856
-1139430
-1140119
-1140609
-1141320
-1141826
-1142577
-1143120
-1143828
-1144424
-1145249
-1146011
-1146483
-1147246
-1147870
-1148632
-1149284
-1149972
-1150722
-1151426
-1152044
-1152720
-1153540
-1154147
-1154838
-1155530
-1156254
-1157028
-1157611
-1158242
-1158644
-1159445
-1160233
-1160907
-1161694
-1162231
-1162939
-1163725
-1164240
-1164988
-1165396
-1166383
-1166804
-1167365
-1167916
-1168445
-1168844
-1169364
-1169857
-1170393
-1170823
-1171233
-1171703
-1172103
-1172930
-1173015
-1173263
-1173578
-1173877
-1174205
-1174641
-1174928
-1175207
-1175496
-1175764
-1176058
-1176249
-1176495
-1176822
-1177070
-1177360
-1177699
-1177855
-1178838
-1178648
-1178614
-1178793
-1179128
-1179309
-1179542
-1179662
-1179849
-1180131
-1180269
-1180441
-1180740
-1180899
-1180981
-1181296
-1181561
-1181694
-1181750
-1182086
-1182312
-1182432
-1182721
-1182915
-1183021
-1183331
-1183561
-1183695
-1184032
-1184322
-1184538
-1184619
-1185053
-1185278
-1185504
-1185610
-1185992
-1186174
-1186357
-1186583
-1186959
-1187058
-1187453
-1187777
-1187864
-1188148
-1188518
-1188636
-1188970
-1189201
-1189620
-1189853
-1190192
-1190478
-1190837
-1191044
-1191138
-1191611
-1191868
-1192308
-1192622
-1192858
-1193184
-1193382
-1193755
-1194039
-1194394
-1194728
-1195136
-1195276
-1195749
-1196215
-1196534
-1196783
-1197187
-1197518
-1197880
-1198296
-1198514
-1199061
-1199208
-1201107
-1201534
-1201908
-1202201
-1202732
-1203085
-1203561
-1203955
-1204246
-1204538
-1205023
-1205333
-1205559
-1205472
-1205879
-1205921
-1205967
-1205887
-1205786
-1205511
-1205006
-1204519
-1203764
-1203085
-1202158
-1201379
-1200302
-1199078
-1198029
-1196663
-1195333
-1193991
-1192475
-1190857
-1189308
-1187758
-1186085
-1184359
-1182585
-1181012
-1179237
-1177353
-1175732
-1174015
-1172450
-1170840
-1169243
-1167662
-1165944
-1164353
-1162898
-1161468
-1159892
-1158571
-1157078
-1155811
-1154459
-1153094
-1152004
-1150895
-1149812
-1148701
-1147628
-1146799
-1145781
-1144913
-1144161
-1143402
-1142637
-1141916
-1141284
-1140652
-1140154
-1139645
-1139256
-1138778
-1138285
-1137765
-1137478
-1137210
-1136987
-1136562
-1136472
-1135925
-1136060
-1136004
-1135946
-1135942
-1135902
-1135863
-1136027
-1136161
-1136167
-1136247
-1136297
-1136538
-1136699
-1136854
-1137065
-1137236
-1137441
-1137729
-1138172
-1138394
-1138822
-1139124
-1139401
-1139851
-1140224
-1140500
-1140922
-1141335
-1141606
-1142195
-1142492
-1142855
-1143390
-1143978
-1144408
-1144853
-1145345
-1145830
-1146388
-1146793
-1147348
-1147937
-1148409
-1149045
-1149678
-1150021
-1150835
-1151586
-1152270
-1152851
-1153500
-1154165
-1154722
-1155354
-1156202
-1156778
-1157567
-1158255
-1158988
-1159678
-1160337
-1160927
-1161600
-1162269
-1162717
-1163641
-1164340
-1165029
-1165632
-1166219
-1166932
-1167514
-1168196
-1168949
-1169414
-1170105
-1170782
-1171330
-1171837
-1172427
-1172822
-1173460
-1173873
-1174475
-1175085
-1175470
-1176109
-1176566
-1177022
-1177505
-1178020
-1178452
-1178871
-1179240
-1179634
-1179849
-1180244
-1180490
-1180878
-1181157
-1181431
-1181732
-1182165
-1182153
-1182564
-1182952
-1183183
-1183381
-1183669
-1183861
-1184003
-1184198
-1184433
-1184598
-1184845
-1184974
-1185157
-1185425
-1185517
-1185836
-1186106
-1186401
-1186572
-1186666
-1186855
-1187079
-1187284
-1187343
-1187496
-1187677
-1187806
-1188025
-1188130
-1188358
-1188372
-1188657
-1188696
-1188912
-1188975
-1188981
-1189167
-1189439
-1189521
-1189840
-1189831
-1189996
-1190173
-1190412
-1190544
-1190819
-1190895
-1191075
-1191256
-1191606
-1191764
-1191862
-1192000
-1192202
-1192481
-1192786
-1192877
-1193184
-1193345
-1193654
-1193831
-1193996
-1194164
-1194308
-1194655
-1194913
-1195095
-1195372
-1195606
-1195765
-1196060
-1196268
-1196505
-1196774
-1196969
-1197258
-1197393
-1197666
-1198002
-1198227
-1198645
-1198774
-1199073
-1199497
-1199888
-1200117
-1200361
-1200780
-1201204
-1201567
-1201920
-1202157
-1202502
-1202740
-1203130
-1203445
-1203685
-1203952
-1204248
-1204582
-1204896
-1204984
-1205185
-1205190
-1205113
-1205004
-1204714
-1204378
-1203914
-1203396
-1203006
-1202264
-1201442
-1200422
-1199516
-1198335
-1197199
-1195969
-1194726
-1193345
-1191897
-1190469
-1188919
-1187252
-1185759
-1184032
-1182364
-1180776
-1179192
-1177520
-1175950
-1174402
-1172812
-1171284
-1169610
-1168175
-1166572
-1165142
-1163646
-1162299
-1160893
-1159603
-1158321
-1156919
-1155712
-1154555
-1153563
-1152440
-1151409
-1150402
-1149419
-1148470
-1147648
-1146950
-1146209
-1145417
-1144724
-1144011
-1143381
-1142881
-1142390
-1141853
-1141421
-1141102
-1140727
-1140344
-1140178
-1139912
-1139737
-1139213
-1139399
-1139372
-1139174
-1139204
-1139295
-1139157
-1139304
-1139373
-1139329
-1139462
-1139643
-1139668
-1139847
-1140089
-1140362
-1140579
-1140704
-1140944
-1141252
-1141475
-1141775
-1142045
-1142464
-1142839
-1143047
-1143383
-1143856
-1144007
-1144563
-1145158
-1145640
-1145772
-1146396
-1146609
-1147188
-1147812
-1148352
-1148657
-1149297
-1149829
-1150354
-1150873
-1151358
-1152014
-1152567
-1153207
-1153638
-1154341
-1154921
-1155596
-1156312
-1156866
-1157532
-1158265
-1158990
-1159603
-1160335
-1161062
-1161819
-1162466
-1163103
-1163770
-1164422
-1165099
-1165898
-1166466
-1167109
-1167868
-1168500
-1169198
-1169776
-1170416
-1171102
-1171576
-1172110
-1172714
-1173198
-1173840
-1174562
-1174959
-1175636
-1175975
-1176564
-1176971
-1177484
-1178143
-1178571
-1179084
-1179530
-1179899
-1180269
-1180670
-1180989
-1181454
-1181719
-1182194
-1182460
-1182871
-1182939
-1183327
-1183876
-1184208
-1184364
-1184624
-1184959
-1185305
-1185577
-1185733
-1185904
-1186080
-1186500
-1186732
-1186785
-1187117
-1187761
-1187824
-1188013
-1188050
-1188413
-1188635
-1188921
-1189045
-1189171
-1189299
-1189612
-1189810
-1189939
-1190203
-1190373
-1190350
-1190596
-1190781
-1190873
-1191842
-1191555
-1191666
-1191755
-1191855
-1192010
-1192164
-1192427
-1192680
-1192875
-1193000
-1193319
-1193565
-1193798
-1193975
-1194108
-1194970
-1194724
-1194943
-1195147
-1195291
-1195611
-1195882
-1196107
-1196350
-1196606
-1196651
-1197078
-1197311
-1197556
-1197937
-1198106
-1198541
-1198729
-1199149
-1199354
-1199684
-1199979
-1200181
-1200537
-1200838
-1201083
-1201317
-1201628
-1202008
-1201904
-1202552
-1202873
-1203124
-1203369
-1203858
-1204119
-1204220
-1204678
-1205060
-1205283
-1205638
-1205849
-1206029
-1206126
-1206357
-1206483
-1206450
-1206259
-1205963
-1205823
-1205421
-1204948
-1204376
-1203710
-1202747
-1201901
-1200763
-1199807
-1198528
-1197414
-1196109
-1194650
-1193199
-1191612
-1190171
-1188705
-1187134
-1185439
-1183794
-1182211
-1180539
-1178844
-1177199
-1175652
-1173969
-1172337
-1170709
-1169135
-1167750
-1166238
-1164754
-1163246
-1161911
-1160555
-1159264
-1157899
-1156602
-1155518
-1154282
-1153156
-1152168
-1151023
-1150080
-1149166
-1148227
-1147309
-1146612
-1145844
-1144872
-1144246
-1143639
-1143073
-1142629
-1141987
-1141566
-1141165
-1140787
-1140434
-1140045
-1139641
-1139509
-1139189
-1138979
-1138806
-1138741
-1138594
-1138134
-1138373
-1138424
-1138260
-1138498
-1138427
-1138552
-1138537
-1138706
-1138865
-1138949
-1139092
-1139281
-1139491
-1139584
-1139841
-1139921
-1140372
-1140560
-1140894
-1141135
-1141566
-1141757
-1142126
-1142379
-1142793
-1143138
-1143366
-1143901
-1144305
-1144553
-1144939
-1145485
-1146099
-1146499
-1147019
-1147392
-1147829
-1148433
-1149045
-1149464
-1150053
-1150541
-1151148
-1151769
-1152339
-1152921
-1153545
-1154134
-1154914
-1155433
-1156037
-1156742
-1157349
-1158025
-1158625
-1159302
-1159915
-1160564
-1161353
-1161968
-1162584
-1163370
-1164114
-1164742
-1165396
-1165980
-1166711
-1167280
-1167976
-1168479
-1169182
-1169691
-1170270
-1171008
-1171565
-1172032
-1172667
-1173178
-1173675
-1174284
-1174742
-1175303
-1175784
-1176252
-1176652
-1177215
-1177639
-1178114
-1178510
-1178972
-1179432
-1179767
-1180153
-1180388
-1180770
-1181193
-1181608
-1181853
-1182252
-1182446
-1182745
-1182792
-1183482
-1183833
-1184105
-1184321
-1184735
-1184901
-1185154
-1185337
-1185513
-1185925
-1186026
-1186347
-1186616
-1186916
-1187030
-1187250
-1187338
-1187607
-1187870
-1187996
-1188215
-1188412
-1188684
-1188792
-1188925
-1189122
-1189280
-1189542
-1189642
-1189847
-1189964
-1190241
-1190475
-1190729
-1190826
-1190867
-1191070
-1191310
-1191465
-1191696
-1192064
-1192310
-1192419
-1192653
-1192917
-1193296
-1193528
-1193777
-1194045
-1194257
-1194490
-1194690
-1194904
-1195342
-1195512
-1195771
-1195955
-1196228
-1196501
-1196716
-1197202
-1197470
-1197695
-1198113
-1198353
-1198709
-1198892
-1199376
-1199619
-1199964
-1200259
-1200594
-1200856
-1201192
-1201430
-1201730
-1202024
-1202331
-1202575
-1202984
-1203126
-1203425
-1203751
-1204103
-1204421
-1204821
-1205151
-1205495
-1205877
-1206224
-1206700
-1207127
-1207469
-1207747
-1208121
-1208522
-1208931
-1209169
-1209573
-1209974
-1210306
-1210587
-1210835
-1211096
-1211466
-1211577
-1211703
-1211857
-1211831
-1211704
-1211495
-1211239
-1210884
-1210547
-1209848
-1209086
-1208497
-1207640
-1206615
-1205643
-1204427
-1203197
-1201952
-1200495
-1199216
-1197724
-1196016
-1194454
-1192936
-1191354
-1189663
-1188029
-1186396
-1184553
-1182946
-1181189
-1179541
-1177991
-1176360
-1174723
-1173037
-1171602
-1170084
-1168696
-1167133
-1165683
-1164453
-1163151
-1161924
-1160673
-1159604
-1158536
-1157413
-1156451
-1155418
-1154474
-1153639
-1152763
-1152032
-1151335
-1150650
-1149995
-1149446
-1148741
-1148155
-1147811
-1147423
-1147086
-1146488
-1146266
-1145960
-1145654
-1145478
-1145225
-1145103
-1144788
-1144806
-1144803
-1144724
-1144560
-1144440
-1144474
-1144610
-1144745
-1144934
-1145042
-1145033
-1145094
-1145300
-1145593
-1145611
-1145949
-1146010
-1146361
-1146509
-1146853
-1147123
-1147336
-1147594
-1148025
-1148312
-1148638
-1149093
-1149325
-1149586
-1150050
-1150368
-1150641
-1151152
-1151614
-1151993
-1152372
-1152746
-1152959
-1153523
-1153992
-1154588
-1155111
-1155638
-1156061
-1156568
-1157204
-1157661
-1158279
-1158886
-1159437
-1159988
-1160623
-1161254
-1161804
-1162481
-1163042
-1163736
-1164518
-1165164
-1165734
-1166468
-1167063
-1167674
-1168209
-1168904
-1169450
-1170110
-1170883
-1171413
-1172076
-1172671
-1173327
-1173838
-1174489
-1174954
-1175651
-1176165
-1176817
-1177227
-1178004
-1178595
-1179088
-1179555
-1180183
-1180662
-1181263
-1181702
-1182303
-1182666
-1183251
-1183605
-1184062
-1184553
-1185033
-1185526
-1185874
-1186220
-1186502
-1186998
-1187259
-1187648
-1188001
-1188271
-1188612
-1189022
-1189324
-1189651
-1189953
-1190062
-1190457
-1190591
-1190835
-1191190
-1191446
-1191693
-1191906
-1192005
-1192133
-1192330
-1192557
-1192878
-1193055
-1193140
-1193389
-1193600
-1193825
-1194095
-1194199
-1194385
-1194635
-1194745
-1194888
-1195161
-1195287
-1195531
-1195547
-1195698
-1195851
-1196118
-1196380
-1196483
-1196797
-1197043
-1197304
-1197409
-1197681
-1197907
-1198128
-1198339
-1198579
-1198679
-1199127
-1199342
-1199584
-1199721
-1200188
-1200449
-1200699
-1200911
-1201174
-1201562
-1201746
-1201944
-1202405
-1202644
-1202831
-1203096
-1203422
-1203785
-1203956
-1204296
-1204742
-1205075
-1205183
-1205616
-1205825
-1206167
-1206570
-1206981
-1207116
-1207412
-1207739
-1207986
-1208282
-1208612
-1209031
-1209350
-1209673
-1210112
-1210343
-1210746
-1210884
-1211258
-1211525
-1211809
-1212327
-1212589
-1213067
-1213324
-1213820
-1214138
-1214477
-1214730
-1215138
-1215524
-1215848
-1216133
-1216422
-1216799
-1217242
-1217652
-1217961
-1218292
-1218714
-1219152
-1219593
-1220037
-1220588
-1220942
-1221384
-1221689
-1222006
-1222537
-1222690
-1223052
-1223143
-1223202
-1223272
-1223364
-1223166
-1223028
-1222707
-1222164
-1221642
-1220844
-1220142
-1219297
-1218138
-1217083
-1215890
-1214674
-1213509
-1212157
-1210649
-1209213
-1207608
-1205973
-1204278
-1202809
-1201094
-1199275
-1197603
-1195851
-1194192
-1192505
-1190704
-1189202
-1187529
-1186073
-1184433
-1182954
-1181498
-1179958
-1178543
-1177215
-1175828
-1174600
-1173234
-1172017
-1170884
-1169580
-1168528
-1167494
-1166474
-1165591
-1164725
-1163823
-1163095
-1162201
-1161416
-1160684
-1160147
-1159580
-1159046
-1158398
-1158010
-1157559
-1157086
-1156710
-1156465
-1155927
-1155813
-1155477
-1155366
-1155134
-1155007
-1154978
-1154825
-1154710
-1154747
-1154731
-1154919
-1154862
-1154936
-1155211
-1155477
-1155581
-1155767
-1155725
-1156002
-1156350
-1156690
-1156850
-1157103
-1157323
-1157690
-1157959
-1158255
-1158709
-1159106
-1159314
-1159677
-1160071
-1160445
-1160898
-1161297
-1161601
-1162196
-1162647
-1163063
-1163620
-1164065
-1164560
-1164989
-1165631
-1166041
-1166614
-1167179
-1167760
-1168384
-1169095
-1169573
-1170202
-1170857
-1171420
-1172150
-1172859
-1173360
-1174101
-1174861
-1175583
-1176118
-1176889
-1177605
-1178182
-1178866
-1179601
-1180200
-1180930
-1181455
-1182116
-1182863
-1183523
-1184155
-1184669
-1185260
-1185870
-1186429
-1186976
-1187554
-1188035
-1188723
-1189162
-1189650
-1190129
-1190817
-1191173
-1191699
-1192084
-1192543
-1192710
-1193318
-1193686
-1193804
-1194381
-1194894
-1195273
-1195629
-1195983
-1196265
-1196608
-1196918
-1197168
-1197629
-1197780
-1198085
-1198191
-1198403
-1198610
-1198848
-1199193
-1199400
-1199531
-1199730
-1199889
-1200045
-1200241
-1200525
-1200809
-1200749
-1201084
-1201205
-1201526
-1201640
-1201856
-1201986
-1202182
-1202398
-1202458
-1202653
-1202931
-1203134
-1203168
-1203377
-1203523
-1203761
-1203939
-1204224
-1204324
-1204482
-1204553
-1204358
-1204760
-1204956
-1205227
-1205270
-1205452
-1205859
-1205934
-1206168
-1206174
-1206320
-1206559
-1206797
-1206953
-1207139
-1207339
-1207549
-1207856
-1208171
-1208405
-1208762
-1208926
-1209207
-1209326
-1209587
-1209835
-1209940
-1210120
-1210416
-1210624
-1211005
-1211269
-1211405
-1211786
-1211918
-1212181
-1212569
-1212813
-1213026
-1213362
-1213642
-1214041
-1214387
-1214710
-1215875
-1215636
-1215651
-1216001
-1216157
-1216496
-1216605
-1217136
-1217423
-1217822
-1218902
-1218639
-1218768
-1218997
-1220091
-1219922
-1219864
-1220015
-1220068
-1220122
-1220252
-1220045
-1219860
-1219569
-1219296
-1218713
-1218204
-1217522
-1216609
-1215781
-1214732
-1213801
-1212594
-1211387
-1210177
-1208866
-1207385
-1205792
-1204239
-1202820
-1201280
-1199773
-1198190
-1196530
-1194951
-1193358
-1191737
-1190194
-1188479
-1187018
-1185379
-1184423
-1182371
-1180842
-1179233
-1177810
-1176447
-1174949
-1173645
-1172449
-1171174
-1169968
-1168858
-1167765
-1166701
-1165677
-1164491
-1163658
-1162524
-1161772
-1160878
-1160139
-1159253
-1158643
-1158016
-1157429
-1156655
-1156308
-1155810
-1155337
-1154863
-1154620
-1154276
-1153944
-1153533
-1153439
-1153130
-1153027
-1152905
-1152658
-1152508
-1152577
-1152426
-1152424
-1152388
-1152426
-1152446
-1152562
-1152646
-1153548
-1153209
-1153089
-1153251
-1153403
-1153695
-1153811
-1154150
-1154446
-1154549
-1154809
-1155165
-1155428
-1155809
-1156029
-1156339
-1156713
-1157221
-1157508
-1157801
-1158146
-1158638
-1159014
-1159418
-1159882
-1160113
-1160765
-1161214
-1161724
-1162270
-1162906
-1163363
-1163823
-1164499
-1164923
-1165267
-1165734
-1166704
-1167372
-1167976
-1168572
-1169201
-1169918
-1170673
-1171280
-1172040
-1172782
-1173417
-1173953
-1174688
-1175351
-1175948
-1176632
-1177028
-1177781
-1178356
-1179146
-1179778
-1180318
-1180882
-1181438
-1182000
-1182690
-1183111
-1183712
-1184367
-1184813
-1185412
-1185899
-1186401
-1186841
-1187336
-1187771
-1188264
-1188813
-1189143
-1189735
-1190097
-1190583
-1190585
-1191258
-1191658
-1192206
-1192560
-1192943
-1193181
-1193570
-1193929
-1194246
-1194441
-1194832
-1195067
-1195420
-1195604
-1195897
-1196045
-1196185
-1196512
-1196748
-1196992
-1197061
-1197333
-1197393
-1197670
-1197869
-1198078
-1198304
-1198480
-1198524
-1198608
-1198835
-1198931
-1199135
-1199165
-1199414
-1199566
-1199718
-1199804
-1199861
-1199897
-1200146
-1201316
-1200750
-1200636
-1200723
-1200796
-1200910
-1200916
-1201325
-1201410
-1201643
-1201837
-1202145
-1202268
-1202488
-1202705
-1202943
-1203056
-1203192
-1203545
-1203685
-1203960
-1204244
-1204404
-1204620
-1204981
-1205217
-1205408
-1205617
-1205931
-1206250
-1206516
-1206738
-1207109
-1207325
-1207610
-1207818
-1208186
-1208515
-1208768
-1208960
-1209261
-1209664
-1209854
-1210307
-1210604
-1210799
-1211262
-1211496
-1211949
-1212270
-1212608
-1212849
-1213264
-1213693
-1213923
-1214238
-1214629
-1214744
-1214993
-1215218
-1215524
-1215617
-1215811
-1215816
-1215785
-1215723
-1215494
-1215299
-1215102
-1214502
-1213888
-1213372
-1212622
-1211702
-1210721
-1209838
-1208820
-1207503
-1206099
-1204900
-1203588
-1202093
-1200512
-1199097
-1197438
-1195755
-1194116
-1192449
-1190799
-1189224
-1187559
-1185763
-1184105
-1182435
-1180873
-1179227
-1177732
-1176096
-1174407
-1172959
-1171506
-1170137
-1168748
-1167416
-1166011
-1164742
-1163565
-1162465
-1161275
-1160134
-1159218
-1158258
-1157376
-1156391
-1155664
-1154934
-1154150
-1153318
-1152661
-1152156
-1151542
-1151038
-1150521
-1149955
-1149514
-1149207
-1148764
-1148480
-1148123
-1147903
-1147599
-1147302
-1147267
-1146973
-1146943
-1146789
-1146719
-1146666
-1146528
-1146522
-1146517
-1146732
-1146669
-1146736
-1146907
-1147071
-1147031
-1147326
-1147545
-1147655
-1147864
-1148101
-1148217
-1148550
-1148823
-1148909
-1149134
-1149481
-1149903
-1150175
-1150432
-1150723
-1151027
-1151451
-1151882
-1152322
-1152687
-1153015
-1153465
-1155533
-1159399
-1159960
-1160581
-1161271
-1161910
-1164483
-1165045
-1165616
-1166343
-1167014
-1167734
-1168360
-1169038
-1169811
-1170283
-1170881
-1171585
-1172251
-1172644
-1173588
-1174193
-1174845
-1175514
-1175945
-1176479
-1177224
-1177892
-1178348
-1179031
-1179656
-1180097
-1180647
-1181123
-1181678
-1182129
-1182627
-1183194
-1183508
-1183949
-1184488
-1184850
-1185372
-1185782
-1186086
-1186427
-1186950
-1187336
-1187572
-1188022
-1188328
-1188704
-1188991
-1189372
-1189576
-1189826
-1190054
-1190044
-1190458
-1190725
-1191082
-1191294
-1191485
-1191728
-1191859
-1192188
-1192231
-1192472
-1192601
-1192945
-1193074
-1193363
-1193328
-1193600
-1193823
-1193899
-1194114
-1194263
-1194637
-1194797
-1194745
-1195059
-1195202
-1195350
-1195535
-1195672
-1195929
-1196137
-1196343
-1196485
-1196708
-1196839
-1196908
-1197119
-1197309
-1197605
-1197743
-1198041
-1198087
-1198389
-1198553
-1198738
-1198998
-1199276
-1199634
-1199791
-1199938
-1200314
-1200598
-1200882
-1201143
-1201334
-1201527
-1201941
-1202224
-1202492
-1202848
-1203078
-1203370
-1203572
-1203835
-1204161
-1204391
-1204841
-1205205
-1205406
-1205756
-1206129
-1206475
-1206630
-1207026
-1207387
-1207609
-1207866
-1208321
-1208722
-1209020
-1209411
-1209601
-1210023
-1210286
-1210514
-1210914
-1211348
-1211628
-1211963
-1212480
-1212654
-1213037
-1213472
-1213790
-1214185
-1214590
-1214940
-1215236
-1215587
-1215918
-1216149
-1216403
-1216611
-1216736
-1216814
-1216869
-1216769
-1216496
-1216259
-1215984
-1215438
-1214983
-1214235
-1213321
-1212540
-1211463
-1210335
-1209199
-1207928
-1206528
-1205088
-1203469
-1202014
-1200529
-1198857
-1197061
-1195362
-1194284
-1192129
-1190351
-1188592
-1186710
-1185132
-1183414
-1181780
-1179970
-1178392
-1176888
-1175248
-1173733
-1172173
-1170816
-1169016
-1167869
-1166709
-1165334
-1164171
-1162970
-1161717
-1160557
-1159554
-1158577
-1157580
-1156681
-1155777
-1154934
-1154077
-1153340
-1152630
-1152013
-1151435
-1150924
-1150258
-1149770
-1149275
-1148903
-1148476
-1148145
-1147818
-1147601
-1147378
-1147262
-1146921
-1146845
-1146649
-1146631
-1146526
-1146512
-1146294
-1146283
-1146188
-1146420
-1146584
-1146706
-1146847
-1146861
-1146953
-1147071
-1147421
-1147678
-1147898
-1147953
-1148203
-1148432
-1148754
-1149108
-1149515
-1149714
-1150114
-1150429
-1150785
-1151179
-1151549
-1151909
-1152480
-1152924
-1153353
-1153716
-1154235
-1154694
-1155193
-1155658
-1156166
-1156672
-1157185
-1157667
-1158306
-1158882
-1159424
-1159844
-1160536
-1161212
-1161856
-1162401
-1163088
-1163862
-1164394
-1165059
-1165830
-1166501
-1167182
-1167872
-1168566
-1169346
-1169975
-1170670
-1171319
-1172172
-1172711
-1173451
-1174094
-1174771
-1175437
-1176124
-1176857
-1177494
-1178094
-1179582
-1179693
-1179977
-1180697
-1181231
-1181721
-1182247
-1182759
-1183429
-1183864
-1184422
-1184973
-1185379
-1185819
-1186380
-1186706
-1187203
-1187486
-1188050
-1188260
-1188646
-1189055
-1189406
-1189773
-1189996
-1190308
-1190681
-1191101
-1191322
-1191635
-1192020
-1192247
-1192541
-1192780
-1193024
-1193307
-1193501
-1193831
-1193969
-1194285
-1194438
-1194573
-1194757
-1195015
-1195257
-1195489
-1195632
-1195805
-1196015
-1196287
-1196452
-1196601
-1196690
-1196825
-1196991
-1197260
-1197449
-1197572
-1197833
-1197952
-1198240
-1198429
-1198700
-1199890
-1199410
-1199388
-1199550
-1199772
-1199994
-1200147
-1200385
-1200614
-1200885
-1201032
-1201319
-1201516
-1201894
-1201958
-1202286
-1202588
-1202705
-1202979
-1203152
-1203381
-1203688
-1203930
-1204087
-1204469
-1204615
-1204990
-1205250
-1205432
-1205864
-1206141
-1206380
-1206552
-1206904
-1207209
-1207412
-1207731
-1207988
-1209326
-1208817
-1208920
-1209164
-1209535
-1209784
-1210085
-1210370
-1210670
-1210927
-1211349
-1211660
-1211993
-1212378
-1212681
-1212966
-1213317
-1213559
-1213721
-1214073
-1214367
-1214754
-1215017
-1215278
-1215569
-1215864
-1216341
-1216607
-1216937
-1217158
-1218102
-1218160
-1218404
-1218685
-1218932
-1219407
-1219655
-1220107
-1220460
-1220814
-1221289
-1221587
-1221980
-1222398
-1222633
-1223002
-1223333
-1223591
-1223948
-1224103
-1224176
-1224195
-1224163
-1224076
-1223853
-1223570
-1223227
-1222661
-1221890
-1221075
-1220243
-1219275
-1218211
-1216914
-1215535
-1214266
-1212821
-1211182
-1209755
-1208049
-1206366
-1204686
-1202914
-1201157
-1199422
-1197635
-1196015
-1194134
-1192424
-1190674
-1188888
-1187157
-1185511
-1183645
-1182002
-1180483
-1178886
-1177218
-1175797
-1174278
-1172866
-1171402
-1170069
-1168860
-1167482
-1166353
-1165192
-1164089
-1162939
-1161954
-1160998
-1159970
-1159116
-1158236
-1157341
-1156686
-1155985
-1155461
-1154849
-1154224
-1153621
-1153214
-1152778
-1152216
-1151999
-1151658
-1151272
-1151038
-1150860
-1150554
-1150470
-1150246
-1150103
-1150060
-1149741
-1149938
-1150081
-1150112
-1150283
-1150416
-1150526
-1150632
-1150638
-1150980
-1151136
-1151383
-1151490
-1151739
-1152079
-1152248
-1152630
-1152806
-1153166
-1153529
-1153903
-1154257
-1154469
-1154910
-1155345
-1156731
-1156384
-1156547
-1156936
-1157456
-1157971
-1158536
-1158975
-1159554
-1160104
-1160591
-1161155
-1161574
-1162128
-1162724
-1163467
-1164074
-1164705
-1165456
-1165961
-1166642
-1167328
-1168173
-1168903
-1169568
-1170305
-1170794
-1171635
-1172384
-1172701
-1173669
-1174463
-1175083
-1175979
-1176657
-1177387
-1178006
-1178859
-1179568
-1180303
-1180829
-1181509
-1182099
-1182744
-1183352
-1184858
-1184859
-1185350
-1185921
-1186447
-1186915
-1187521
-1188017
-1188503
-1189096
-1189604
-1190139
-1190650
-1190999
-1191416
-1191876
-1192254
-1192710
-1193222
-1193591
-1193839
-1194053
-1194398
-1194710
-1195151
-1195283
-1195584
-1195745
-1196107
-1196222
-1196487
-1196633
-1196820
-1197034
-1197414
-1197181
-1197641
-1197776
-1198075
-1198278
-1198094
-1198603
-1198782
-1198984
-1199159
-1199463
-1199469
-1199901
-1200155
-1200388
-1200463
-1200737
-1200889
-1200974
-1201186
-1201336
-1201588
-1201766
-1202055
-1202028
-1202443
-1202560
-1202877
-1203021
-1203278
-1203474
-1203719
-1204040
-1204124
-1204516
-1204674
-1204895
-1205263
-1205510
-1205843
-1206137
-1206391
-1206499
-1206895
-1207011
-1207973
-1207818
-1207826
-1207937
-1208145
-1208324
-1208613
-1209063
-1209310
-1209560
-1209839
-1209959
-1210263
-1210557
-1210684
-1211022
-1211336
-1211511
-1211599
-1212004
-1212260
-1212686
-1213032
-1213332
-1213623
-1213954
-1214177
-1214409
-1214843
-1215080
-1215383
-1215743
-1216173
-1216300
-1216843
-1217202
-1217618
-1217873
-1218117
-1218444
-1218781
-1219134
-1219426
-1219819
-1219991
-1220142
-1220242
-1220467
-1220413
-1220474
-1220264
-1219929
-1219560
-1219079
-1218511
-1217912
-1217091
-1216182
-1215399
-1214292
-1213073
-1211887
-1210520
-1209085
-1207610
-1206250
-1204701
-1202983
-1201434
-1199661
-1197956
-1196337
-1194491
-1192690
-1191016
-1189133
-1187381
-1185703
-1183947
-1182243
-1180413
-1178867
-1177242
-1175645
-1174088
-1172635
-1171178
-1169564
-1168163
-1166812
-1165506
-1164474
-1162930
-1162093
-1160870
-1159910
-1158845
-1157852
-1156978
-1156059
-1155108
-1154369
-1153457
-1152797
-1152207
-1151522
-1150909
-1150196
-1149631
-1149045
-1148711
-1148110
-1147745
-1147372
-1147096
-1146720
-1146319
-1146199
-1146061
-1145947
-1145794
-1145597
-1145508
-1145452
-1145394
-1144976
-1145219
-1145458
-1145389
-1145538
-1145646
-1145790
-1145839
-1145815
-1145870
-1146095
-1146249
-1146434
-1146719
-1147071
-1147310
-1148014
-1147992
-1148195
-1148557
-1148776
-1149012
-1149067
-1150247
-1149903
-1149986
-1150295
-1150226
-1150647
-1150970
-1151375
-1151573
-1151826
-1152287
-1152632
-1153002
-1153584
-1155269
-1155057
-1155167
-1155609
-1156134
-1156709
-1157111
-1157762
-1158326
-1159061
-1159500
-1160073
-1160545
-1161243
-1161876
-1162508
-1163171
-1163794
-1164444
-1165223
-1165694
-1166377
-1167046
-1167621
-1168100
-1168773
-1169281
-1169903
-1170427
-1171008
-1171475
-1172045
-1172717
-1173239
-1173685
-1174122
-1174538
-1175006
-1175456
-1175904
-1176359
-1176755
-1177120
-1177536
-1178021
-1178536
-1178796
-1179121
-1179479
-1179906
-1180364
-1180776
-1180824
-1181161
-1181497
-1181674
-1182105
-1182424
-1182729
-1182892
-1183117
-1183380
-1183515
-1183891
-1184178
-1184417
-1184600
-1184688
-1184916
-1185090
-1185243
-1185328
-1185473
-1185543
-1185692
-1185883
-1186026
-1186125
-1186378
-1186467
-1186614
-1186743
-1186921
-1186975
-1187131
-1187370
-1187525
-1187586
-1187749
-1187826
-1187926
-1188141
-1188181
-1188154
-1188183
-1188390
-1188731
-1188967
-1189142
-1189275
-1189462
-1189624
-1189928
-1190029
-1190292
-1190434
-1190684
-1191099
-1191216
-1191566
-1191787
-1192144
-1192387
-1192747
-1192896
-1193321
-1193748
-1193919
-1194168
-1194583
-1194849
-1195015
-1195318
-1195231
-1195677
-1195988
-1196312
-1196488
-1196714
-1197015
-1197311
-1197329
-1197636
-1197784
-1198043
-1198334
-1199101
-1199508
-1199728
-1199637
-1199956
-1200529
-1200752
-1200969
-1201300
-1201547
-1201795
-1202027
-1202294
-1202620
-1202927
-1203259
-1204294
-1203919
-1203942
-1204290
-1204337
-1204546
-1204692
-1204743
-1204907
-1204715
-1204601
-1204425
-1204137
-1203813
-1203252
-1202708
-1201640
-1201049
-1200395
-1199488
-1198290
-1197188
-1195863
-1194619
-1193231
-1191734
-1190163
-1188712
-1187146
-1185585
-1183844
-1182141
-1180417
-1178685
-1176552
-1175193
-1173478
-1171823
-1170041
-1168445
-1166677
-1165020
-1163520
-1161812
-1160251
-1158741
-1157328
-1155780
-1154335
-1152885
-1151505
-1150341
-1149146
-1147879
-1147900
-1145885
-1144467
-1143853
-1142491
-1141503
-1140495
-1139804
-1138841
-1138012
-1137267
-1136631
-1135899
-1135466
-1134949
-1134307
-1133942
-1133535
-1133067
-1132696
-1132228
-1132023
-1131676
-1131335
-1131091
-1130998
-1130818
-1130781
-1130585
-1130554
-1130579
-1130535
-1130549
-1130664
-1130845
-1130875
-1130923
-1131197
-1131369
-1131632
-1131675
-1131836
-1132192
-1132529
-1132608
-1132851
-1133180
-1133547
-1133835
-1134140
-1134453
-1134666
-1135018
-1135485
-1135888
-1136337
-1136590
-1136899
-1137289
-1137746
-1138261
-1138802
-1139090
-1139576
-1140140
-1140690
-1141049
-1141605
-1142152
-1142672
-1143296
-1143863
-1144343
-1144933
-1145602
-1146219
-1146630
-1147227
-1147817
-1148455
-1149067
-1149830
-1150516
-1151082
-1151743
-1152397
-1152962
-1153632
-1154390
-1155098
-1155612
-1156415
-1157020
-1157667
-1158344
-1158983
-1159631
-1160434
-1161069
-1161629
-1162302
-1162898
-1163432
-1164065
-1164721
-1165353
-1165922
-1166417
-1166879
-1167471
-1167882
-1168330
-1168849
-1169255
-1169678
-1170057
-1170458
-1170856
-1171235
-1171562
-1171984
-1172360
-1172618
-1173038
-1173344
-1173680
-1173894
-1175208
-1174779
-1175011
-1175286
-1175458
-1175631
-1175896
-1176266
-1176503
-1176852
-1177161
-1177286
-1177572
-1177760
-1178048
-1178182
-1178401
-1178600
-1178942
-1179186
-1179274
-1179383
-1179611
-1179657
-1180624
-1180369
-1180216
-1180275
-1180517
-1180620
-1180722
-1180324
-1180858
-1180975
-1181038
-1180883
-1181359
-1181463
-1181574
-1181785
-1182005
-1182136
-1182227
-1182451
-1182750
-1182803
-1183029
-1184030
-1183746
-1183882
-1183941
-1184115
-1184311
-1184616
-1184859
-1185175
-1185374
-1185606
-1185906
-1186094
-1186366
-1186724
-1186919
-1187295
-1187520
-1187899
-1188127
-1188348
-1188602
-1189037
-1189297
-1189546
-1189760
-1190126
-1190368
-1190630
-1191020
-1191343
-1191431
-1191769
-1192014
-1192294
-1192621
-1192893
-1193085
-1193303
-1193660
-1193988
-1194315
-1194519
-1194943
-1195246
-1195492
-1195894
-1196278
-1196624
-1197670
-1197391
-1197686
-1197842
-1198314
-1198703
-1198836
-1199345
-1199654
-1200136
-1200538
-1200885
-1201412
-1201806
-1202030
-1202432
-1202737
-1203350
-1203705
-1204042
-1204396
-1204826
-1205133
-1205439
-1205705
-1206161
-1206459
-1206759
-1206963
-1207135
-1207356
-1207481
-1207517
-1207465
-1207408
-1207143
-1206888
-1206574
-1206187
-1205582
-1204894
-1204053
-1203037
-1202084
-1200987
-1199689
-1198538
-1197139
-1195733
-1194208
-1192656
-1190939
-1189338
-1187556
-1185914
-1184168
-1182351
-1180558
-1178691
-1176981
-1175283
-1173408
-1171624
-1169850
-1168155
-1166452
-1164893
-1163277
-1161823
-1160363
-1158682
-1157159
-1155736
-1154460
-1153240
-1151878
-1150782
-1149470
-1148367
-1147285
-1146196
-1145160
-1145118
-1143662
-1142553
-1141609
-1140828
-1140052
-1139373
-1138595
-1137886
-1137336
-1136662
-1136221
-1135701
-1135171
-1134756
-1134342
-1134442
-1133775
-1133491
-1133234
-1132894
-1132762
-1132661
-1132574
-1132605
-1132602
-1132583
-1132362
-1132758
-1132544
-1132536
-1132554
-1132651
-1132847
-1132859
-1133021
-1133156
-1133385
-1133537
-1133752
-1133881
-1134136
-1134364
-1134612
-1134925
-1135282
-1135639
-1135989
-1136315
-1136738
-1137013
-1137297
-1137646
-1138066
-1138437
-1138785
-1139224
-1139802
-1140263
-1140630
-1141159
-1141522
-1142022
-1142612
-1143298
-1143968
-1144474
-1145087
-1145627
-1146167
-1146824
-1147391
-1148045
-1148715
-1149463
-1150024
-1150734
-1151278
-1152089
-1152744
-1153426
-1154022
-1154715
-1155311
-1156145
-1156702
-1157383
-1157998
-1158746
-1159400
-1159943
-1160576
-1161106
-1161678
-1162246
-1162939
-1163489
-1164013
-1164680
-1165171
-1165767
-1166180
-1166668
-1167116
-1167590
-1168111
-1168589
-1168956
-1169315
-1169592
-1170090
-1170314
-1170821
-1170889
-1171296
-1171758
-1172067
-1172294
-1172497
-1172774
-1173071
-1173368
-1173547
-1173725
-1173921
-1174105
-1174286
-1174450
-1174534
-1174732
-1174907
-1174914
-1175143
-1175270
-1175248
-1175402
-1175467
-1175602
-1175772
-1175813
-1175960
-1176200
-1176434
-1176483
-1176678
-1176770
-1176927
-1177930
-1177498
-1177400
-1177681
-1177668
-1177980
-1178216
-1178412
-1178527
-1178787
-1179064
-1179227
-1179191
-1179276
-1179523
-1179736
-1180026
-1180221
-1180296
-1180556
-1180885
-1180974
-1181140
-1181346
-1181562
-1181641
-1181955
-1182202
-1182405
-1182607
-1182806
-1182986
-1183202
-1183378
-1183604
-1183699
-1183990
-1184309
-1184510
-1184805
-1185070
-1185149
-1185396
-1185715
-1186063
-1186267
-1186460
-1186915
-1187068
-1187441
-1187687
-1188090
-1188485
-1188870
-1189275
-1189674
-1189891
-1190277
-1190685
-1190956
-1191356
-1191647
-1192078
-1192230
-1192698
-1193240
-1193564
-1194035
-1194461
-1194803
-1194952
-1195470
-1195838
-1196208
-1196550
-1197023
-1197169
-1197456
-1197832
-1198346
-1198722
-1199050
-1199489
-1199852
-1200279
-1200576
-1200860
-1201124
-1201316
-1201413
-1201257
-1201514
-1201569
-1201561
-1201441
-1201042
-1200582
-1200177
-1199512
-1198685
-1197944
-1197076
-1195899
-1194853
-1193636
-1192398
-1191134
-1189616
-1188294
-1186682
-1185178
-1183475
-1181898
-1180273
-1178571
-1176700
-1174953
-1173159
-1171452
-1169641
-1167866
-1166232
-1164605
-1162945
-1161137
-1159467
-1157923
-1156401
-1154644
-1153281
-1151802
-1150325
-1148915
-1147426
-1146154
-1144975
-1143705
-1142519
-1141321
-1140339
-1139355
-1138369
-1137516
-1136577
-1135793
-1134950
-1134190
-1133342
-1133015
-1132323
-1131764
-1131314
-1130811
-1130312
-1130127
-1129908
-1129489
-1129274
-1128846
-1128801
-1128590
-1128595
-1128407
-1128474
-1128453
-1128316
-1128364
-1128387
-1128408
-1128627
-1128519
-1128713
-1128781
-1128958
-1129106
-1129419
-1129442
-1129665
-1129976
-1130202
-1130536
-1130772
-1131086
-1131300
-1131495
-1131748
-1132093
-1132481
-1132889
-1133390
-1133698
-1134129
-1134479
-1134837
-1135334
-1135773
-1136216
-1136550
-1137070
-1137592
-1138218
-1138670
-1139172
-1139635
-1140410
-1141008
-1141585
-1142266
-1142774
-1143380
-1144048
-1144844
-1145420
-1146269
-1146808
-1147579
-1148162
-1148956
-1149710
-1150389
-1150995
-1151610
-1152272
-1153052
-1153717
-1154253
-1155090
-1155784
-1157289
-1157311
-1157813
-1158362
-1158812
-1159495
-1159990
-1160446
-1161000
-1161536
-1162244
-1162642
-1163230
-1163807
-1164245
-1164686
-1165069
-1165507
-1166023
-1166377
-1166846
-1167326
-1167710
-1167986
-1168479
-1168690
-1169107
-1169446
-1169589
-1169823
-1170140
-1170417
-1170683
-1170953
-1171007
-1171225
-1171496
-1171665
-1172067
-1172315
-1172425
-1172669
-1172864
-1173014
-1173191
-1173167
-1173385
-1173124
-1173496
-1173684
-1173846
-1173922
-1173852
-1173686
-1173628
-1174006
-1173981
-1174078
-1174110
-1174159
-1174313
-1174255
-1174297
-1174480
-1174681
-1174710
-1174811
-1174952
-1175107
-1175404
-1175578
-1175767
-1176044
-1176836
-1176592
-1176700
-1176889
-1177168
-1177485
-1177422
-1177787
-1178021
-1178190
-1178497
-1178652
-1178911
-1179177
-1179448
-1179570
-1179730
-1179924
-1180108
-1180162
-1180454
-1180486
-1180551
-1180684
-1180921
-1181161
-1181240
-1181376
-1181715
-1181961
-1182152
-1182358
-1182633
-1182947
-1183030
-1183323
-1183558
-1183833
-1183910
-1184209
-1184505
-1184915
-1185243
-1185414
-1185581
-1185965
-1186230
-1186540
-1186936
-1187172
-1188153
-1188066
-1188201
-1188575
-1188791
-1189021
-1189419
-1189694
-1190085
-1190393
-1190666
-1190833
-1191154
-1191455
-1191670
-1191778
-1191680
-1191842
-1191723
-1191492
-1191326
-1190885
-1190427
-1189947
-1189156
-1188382
-1187501
-1186550
-1185393
-1184151
-1182947
-1181537
-1180129
-1178532
-1176960
-1175276
-1173581
-1171887
-1170108
-1168413
-1166658
-1164690
-1162858
-1161018
-1159258
-1157419
-1155696
-1153768
-1152135
-1150308
-1148605
-1146931
-1145344
-1143405
-1142066
-1140551
-1139162
-1137695
-1137179
-1135127
-1133668
-1132292
-1131149
-1129830
-1128366
-1127532
-1126548
-1125519
-1124529
-1123557
-1122806
-1122014
-1121146
-1120473
-1119870
-1119078
-1118489
-1117861
-1117417
-1117053
-1116647
-1116146
-1115837
-1115569
-1115190
-1114946
-1114644
-1114441
-1114179
-1114177
-1113960
-1113699
-1113524
-1113415
-1113318
-1113247
-1113314
-1113215
-1113320
-1113359
-1113460
-1113392
-1113595
-1113678
-1113832
-1114058
-1114204
-1114081
-1115321
-1115651
-1115329
-1115454
-1115544
-1115856
-1116200
-1116490
-1116762
-1117107
-1117441
-1117701
-1118198
-1118518
-1119020
-1119476
-1119985
-1120361
-1121290
-1121409
-1121794
-1122335
-1122930
-1123509
-1124103
-1124624
-1125256
-1125865
-1126626
-1127277
-1127873
-1128530
-1129265
-1129854
-1130504
-1131299
-1132007
-1132544
-1133178
-1133892
-1134477
-1135250
-1135870
-1136500
-1137099
-1137903
-1138434
-1139169
-1139755
-1140338
-1141119
-1141725
-1142343
-1143097
-1143500
-1144229
-1144804
-1145366
-1145861
-1146270
-1146890
-1147305
-1147758
-1147899
-1148666
-1149370
-1149867
-1150329
-1150629
-1151110
-1151437
-1151878
-1152323
-1152661
-1153064
-1153354
-1153779
-1154121
-1154292
-1154645
-1154884
-1155036
-1155234
-1155559
-1155774
-1155962
-1156132
-1156464
-1156605
-1156857
-1156940
-1157063
-1157301
-1157317
-1157304
-1157543
-1157624
-1157676
-1157834
-1158024
-1158142
-1158130
-1158161
-1158290
-1158487
-1158425
-1158646
-1158719
-1158872
-1158874
-1158984
-1159187
-1159288
-1159396
-1159663
-1159765
-1159867
-1159948
-1160123
-1160397
-1160615
-1160416
-1160799
-1161036
-1161348
-1161504
-1161704
-1161836
-1162027
-1162246
-1162517
-1162672
-1162898
-1163028
-1163168
-1163415
-1163540
-1163743
-1164038
-1164233
-1164520
-1164720
-1164917
-1165131
-1165416
-1165583
-1165765
-1165916
-1166266
-1166516
-1166676
-1166938
-1167220
-1167553
-1167883
-1168089
-1168240
-1168606
-1168810
-1169139
-1169399
-1169662
-1169933
-1170280
-1170499
-1170765
-1171004
-1171265
-1171437
-1171695
-1171979
-1172193
-1172498
-1172683
-1173037
-1173342
-1173641
-1173866
-1174289
-1174690
-1174885
-1175085
-1175401
-1175776
-1176091
-1176445
-1176395
-1176786
-1177280
-1177432
-1177520
-1177768
-1177735
-1177995
-1177921
-1177781
-1177574
-1177284
-1176744
-1176191
-1175544
-1174940
-1174023
-1173033
-1171900
-1170963
-1169573
-1168355
-1166911
-1165253
-1163877
-1162303
-1160840
-1159265
-1157318
-1155735
-1153975
-1152475
-1150771
-1148977
-1147186
-1145398
-1143693
-1142029
-1140452
-1138743
-1136790
-1135448
-1133974
-1132299
-1130913
-1129393
-1127863
-1126464
-1125226
-1123867
-1122623
-1121358
-1120196
-1119135
-1118050
-1117009
-1116015
-1115162
-1114161
-1113441
-1112716
-1111950
-1111187
-1110376
-1109643
-1109293
-1108696
-1108144
-1107618
-1107229
-1106851
-1106384
-1106078
-1105695
-1105421
-1105152
-1104841
-1104736
-1104535
-1104527
-1104338
-1104317
-1104264
-1104209
-1104254
-1104433
-1104502
-1104511
-1104709
-1104694
-1104819
-1105082
-1105142
-1105312
-1105558
-1105759
-1105993
-1106231
-1106493
-1106707
-1107122
-1107462
-1107753
-1108216
-1108425
-1108818
-1109141
-1109542
-1110030
-1110278
-1110788
-1111183
-1111649
-1112005
-1112401
-1112895
-1113424
-1113870
-1114323
-1114886
-1115557
-1116139
-1116715
-1117235
-1117795
-1118362
-1119095
-1119813
-1120268
-1120909
-1121578
-1122311
-1122919
-1123554
-1124228
-1124847
-1125463
-1126143
-1126959
-1127593
-1128183
-1128742
-1129427
-1130019
-1130774
-1131432
-1132023
-1132699
-1134205
-1134072
-1134412
-1134881
-1135417
-1136096
-1136585
-1137253
-1137730
-1138201
-1138747
-1139337
-1139826
-1140304
-1140777
-1141387
-1141655
-1142073
-1142514
-1143056
-1143458
-1144010
-1144446
-1144823
-1145160
-1145560
-1145958
-1146314
-1146447
-1146914
-1147331
-1147659
-1147913
-1148158
-1148400
-1148691
-1149050
-1149214
-1149579
-1149723
-1149911
-1150236
-1150380
-1150520
-1150768
-1150970
-1151318
-1151408
-1151614
-1151842
-1152092
-1152202
-1152328
-1152628
-1152745
-1152942
-1153145
-1153353
-1153404
-1153707
-1153776
-1154056
-1154164
-1154249
-1154377
-1154714
-1154961
-1155105
-1155192
-1155251
-1155629
-1155680
-1155875
-1156097
-1156486
-1156684
-1156942
-1157084
-1157240
-1157661
-1157807
-1157966
-1158858
-1158637
-1158774
-1158934
-1159204
-1159558
-1159667
-1160115
-1160278
-1160601
-1160866
-1161061
-1161331
-1161739
-1161967
-1162350
-1162624
-1162801
-1163031
-1163308
-1163724
-1163992
-1163925
-1164434
-1164847
-1165898
-1165729
-1165969
-1167467
-1166899
-1166908
-1167111
-1167338
-1167782
-1168084
-1168250
-1168708
-1168964
-1169222
-1169532
-1169858
-1170170
-1170617
-1170869
-1171199
-1171570
-1171977
-1172230
-1172587
-1172885
-1173163
-1173529
-1173805
-1174108
-1174566
-1174835
-1175249
-1175600
-1176063
-1176317
-1176698
-1177184
-1177398
-1177932
-1178368
-1178665
-1178941
-1179334
-1180429
-1180392
-1180563
-1180821
-1181106
-1181330
-1181439
-1181765
-1181790
-1181799
-1181546
-1181410
-1181074
-1180575
-1180008
-1179497
-1178756
-1177919
-1176938
-1175888
-1174669
-1173348
-1171877
-1170356
-1168823
-1167325
-1165816
-1163993
-1162311
-1160486
-1158835
-1156937
-1155206
-1153456
-1151609
-1149791
-1148021
-1146332
-1144671
-1142857
-1141191
-1139460
-1137907
-1136268
-1134741
-1133166
-1131610
-1129940
-1128658
-1127794
-1126086
-1124772
-1123385
-1122117
-1120862
-1119522
-1118725
-1117760
-1116820
-1115946
-1115085
-1114216
-1113430
-1112735
-1111984
-1111391
-1110758
-1110082
-1109531
-1109160
-1108633
-1108215
-1107879
-1107429
-1107211
-1107028
-1106729
-1106584
-1106375
-1106203
-1106114
-1106055
-1106001
-1106037
-1105935
-1105926
-1106088
-1106084
-1106256
-1106381
-1106494
-1106610
-1106761
-1106993
-1107179
-1107416
-1107651
-1107955
-1108226
-1108473
-1108744
-1109739
-1109565
-1109603
-1109845
-1110345
-1110713
-1111034
-1111428
-1111713
-1112142
-1112414
-1112861
-1113459
-1113931
-1114433
-1114815
-1115296
-1115419
-1116119
-1116887
-1117345
-1117955
-1118507
-1119092
-1119596
-1120312
-1120845
-1121570
-1122247
-1122837
-1123448
-1124171
-1124888
-1125683
-1126310
-1126927
-1127622
-1128348
-1129046
-1129595
-1130148
-1130926
-1131493
-1132092
-1132873
-1133493
-1133988
-1134734
-1135368
-1135822
-1136462
-1136973
-1137581
-1138146
-1138715
-1139977
-1139929
-1140114
-1140544
-1141016
-1141539
-1141985
-1142382
-1142642
-1143097
-1143386
-1143730
-1144091
-1144548
-1144899
-1145163
-1145485
-1145770
-1146071
-1146265
-1146519
-1146816
-1146922
-1147017
-1147224
-1147573
-1148209
-1147903
-1148092
-1148249
-1148379
-1148698
-1148725
-1148738
-1149003
-1149151
-1149279
-1149337
-1149531
-1149651
-1149626
-1149831
-1150050
-1150067
-1150121
-1150320
-1150398
-1150563
-1150748
-1150890
-1150870
-1151042
-1151107
-1151172
-1151242
-1151391
-1151571
-1151729
-1151913
-1152030
-1152139
-1152262
-1152463
-1152571
-1152702
-1152922
-1152989
-1153084
-1153196
-1153439
-1153616
-1153778
-1154010
-1154146
-1154231
-1154557
-1154693
-1154870
-1154978
-1155193
-1155303
-1155636
-1155907
-1155986
-1156334
-1156630
-1156763
-1157028
-1157169
-1157714
-1157628
-1157818
-1158059
-1158342
-1158496
-1158757
-1159077
-1159313
-1159660
-1159950
-1160203
-1160548
-1160849
-1161044
-1161347
-1161630
-1161888
-1162167
-1162379
-1162809
-1163231
-1163155
-1163752
-1164149
-1164448
-1164866
-1165164
-1165541
-1165891
-1166138
-1166500
-1166787
-1167132
-1167397
-1167822
-1168055
-1168419
-1168788
-1169026
-1169113
-1169207
-1169352
-1169495
-1169448
-1169129
-1168931
-1168519
-1168050
-1167565
-1166924
-1166110
-1165179
-1164221
-1163077
-1162005
-1160625
-1159280
-1157769
-1156333
-1154729
-1153141
-1151535
-1149955
-1148240
-1146542
-1144703
-1142946
-1141077
-1139362
-1137605
-1135754
-1134048
-1132314
-1130637
-1128964
-1127194
-1125445
-1123822
-1122334
-1120818
-1119336
-1117841
-1116333
-1114972
-1113658
-1112331
-1111086
-1109777
-1108654
-1107429
-1106321
-1105364
-1104267
-1103410
-1102442
-1101508
-1100652
-1099902
-1099323
-1098538
-1097824
-1097172
-1096572
-1096064
-1095553
-1095096
-1094791
-1094309
-1093984
-1093650
-1093331
-1093058
-1092826
-1092705
-1092460
-1092314
-1092216
-1092167
-1092038
-1092070
-1092163
-1092219
-1092282
-1092283
-1092280
-1092429
-1092513
-1092668
-1092684
-1092830
-1093004
-1093326
-1093463
-1093793
-1093964
-1094179
-1094428
-1094835
-1095013
-1096170
-1095898
-1096068
-1096270
-1096664
-1097142
-1097454
-1097906
-1098338
-1098677
-1099089
-1099435
-1099963
-1100431
-1100995
-1101560
-1101932
-1102435
-1103016
-1103450
-1104141
-1104671
-1105319
-1105949
-1106572
-1107343
-1107876
-1108571
-1109172
-1109798
-1110423
-1111106
-1111763
-1112370
-1113153
-1113847
-1114543
-1115065
-1115687
-1116199
-1116965
-1117636
-1118422
-1118914
-1119508
-1120168
-1120757
-1121277
-1121831
-1122464
-1123128
-1123534
-1124037
-1124748
-1125265
-1125708
-1126244
-1126624
-1127122
-1127781
-1128145
-1128501
-1129036
-1129503
-1129863
-1130258
-1130581
-1131018
-1131197
-1131609
-1131997
-1132349
-1132631
-1132927
-1133035
-1133382
-1133609
-1134463
-1134292
-1134356
-1134475
-1134559
-1134886
-1135103
-1135236
-1135412
-1135490
-1135689
-1135841
-1135901
-1136168
-1136339
-1136376
-1136504
-1136699
-1136852
-1137138
-1137080
-1137198
-1137373
-1137479
-1137516
-1137741
-1137877
-1137960
-1138005
-1138234
-1138435
-1138665
-1139558
-1139044
-1138902
-1139079
-1139269
-1139217
-1139335
-1139631
-1139816
-1139981
-1140068
-1140192
-1140500
-1140545
-1140755
-1141046
-1141273
-1141323
-1141665
-1141839
-1142149
-1142320
-1142541
-1142586
-1142850
-1143121
-1143448
-1143700
-1143917
-1144012
-1144154
-1144494
-1144715
-1144710
-1145232
-1145451
-1145767
-1146119
-1146456
-1146768
-1147072
-1147286
-1147496
-1147732
-1148157
-1148440
-1148661
-1148980
-1149373
-1149729
-1150052
-1150203
-1150521
-1150871
-1151186
-1151640
-1152038
-1152415
-1152796
-1153097
-1153361
-1153795
-1153956
-1154412
-1154672
-1154987
-1155229
-1155546
-1155771
-1155866
-1156146
-1156229
-1156075
-1155997
-1155945
-1155680
-1155295
-1154804
-1154317
-1153652
-1152761
-1152771
-1151104
-1149784
-1148622
-1147276
-1145881
-1144396
-1142863
-1141337
-1139617
-1137889
-1136174
-1134370
-1132646
-1130907
-1129056
-1127194
-1125440
-1123746
-1121940
-1120167
-1118362
-1116536
-1114748
-1113145
-1111514
-1109868
-1108257
-1106743
-1105262
-1103825
-1102385
-1100876
-1099589
-1098202
-1096993
-1095808
-1094606
-1093473
-1092569
-1091603
-1090660
-1089743
-1088845
-1087917
-1087260
-1086452
-1085776
-1085154
-1084352
-1084093
-1083560
-1082999
-1082490
-1082114
-1081765
-1081402
-1081157
-1080818
-1080658
-1080425
-1080206
-1080086
-1079878
-1079718
-1079571
-1079619
-1079554
-1079616
-1079658
-1079513
-1079614
-1079660
-1079836
-1079990
-1080084
-1080085
-1080383
-1080486
-1080761
-1080844
-1081060
-1081350
-1081634
-1081672
-1081855
-1082318
-1082550
-1082912
-1083147
-1083444
-1083862
-1084223
-1084470
-1084993
-1085352
-1085606
-1086066
-1086450
-1086934
-1087351
-1087844
-1088290
-1088751
-1089256
-1089826
-1090315
-1090995
-1091609
-1092181
-1092659
-1093273
-1093882
-1094544
-1095205
-1095939
-1096507
-1097251
-1097918
-1098540
-1099133
-1099815
-1100494
-1101082
-1102615
-1102644
-1103134
-1103743
-1104439
-1105151
-1105678
-1106454
-1107078
-1107719
-1108390
-1109056
-1109685
-1110273
-1110953
-1111401
-1112072
-1112705
-1113287
-1113806
-1114264
-1114825
-1115402
-1115709
-1116215
-1116624
-1117105
-1117627
-1118071
-1118408
-1118769
-1119223
-1119559
-1119910
-1120270
-1120557
-1120935
-1121238
-1121387
-1121595
-1121982
-1122270
-1122434
-1122695
-1122970
-1123161
-1123273
-1123594
-1123697
-1123866
-1124020
-1124292
-1124358
-1124527
-1124693
-1124786
-1124978
-1125023
-1125150
-1126262
-1125820
-1125737
-1125768
-1125820
-1125946
-1126103
-1126235
-1126321
-1126445
-1126546
-1126642
-1126699
-1126907
-1127109
-1127202
-1127414
-1127474
-1127618
-1127846
-1128032
-1128213
-1128358
-1128573
-1128763
-1128848
-1129124
-1129214
-1129439
-1129702
-1129957
-1130280
-1130515
-1130642
-1130941
-1131163
-1131370
-1131662
-1132037
-1132297
-1132517
-1132803
-1133067
-1133407
-1133599
-1134019
-1134312
-1134522
-1134841
-1135109
-1135923
-1135909
-1136209
-1136452
-1136775
-1137119
-1137556
-1137815
-1138095
-1138449
-1138740
-1139076
-1139456
-1139871
-1140082
-1140477
-1140846
-1141072
-1141434
-1141759
-1142047
-1142507
-1142835
-1143121
-1143419
-1143761
-1144201
-1144222
-1144669
-1145049
-1145343
-1145712
-1145981
-1146361
-1146811
-1149535
-1149917
-1150349
-1150707
-1151106
-1151338
-1151778
-1152057
-1152506
-1152780
-1153094
-1153394
-1153562
-1153878
-1154056
-1154283
-1154320
-1154217
-1154171
