PPG
-922142
-922251
-922442
-922609
-922720
-923010
-923231
-923386
-923498
-923738
-923927
-924237
-924396
-924563
-924834
-925002
-925243
-925452
-925695
-926000
-926176
-926472
-926828
-926964
-927325
-927605
-927856
-928086
-928067
-928585
-928934
-929231
-929526
-929824
-930196
-930518
-930829
-931180
-931467
-931791
-932251
-932522
-932821
-933254
-933494
-933923
-934301
-934624
-935052
-935471
-935858
-936194
-936468
-936904
-937197
-937655
-937954
-938422
-938733
-939199
-939649
-939968
-940344
-940628
-941124
-941506
-941946
-942346
-942834
-942965
-943494
-943995
-944503
-944921
-945222
-945618
-946044
-946506
-946861
-947315
-947629
-948100
-948410
-948806
-949209
-949562
-950059
-950261
-950729
-950964
-951303
-951586
-951798
-951937
-952107
-952074
-952117
-951987
-952367
-951666
-951288
-950572
-950193
-949642
-948897
-948023
-947049
-946038
-944915
-943744
-942427
-941109
-940496
-938280
-936408
-934889
-933197
-931462
-929718
-928021
-926370
-924563
-922761
-921090
-919186
-917725
-916073
-914314
-912935
-911588
-910127
-908615
-907358
-906084
-904680
-903565
-902254
-900934
-900096
-899112
-898052
-897038
-896119
-895219
-894431
-893584
-892932
-892146
-891405
-890733
-890120
-889575
-888899
-888337
-887973
-887441
-887107
-886574
-886146
-885929
-885590
-885310
-885078
-884782
-884479
-884424
-884225
-883976
-883984
-883905
-883668
-883642
-883601
-883589
-883585
-883630
-883683
-883714
-884120
-883661
-883941
-884008
-884207
-884351
-884530
-884762
-884947
-885107
-885209
-885231
-885620
-886022
-886263
-886435
-886721
-886999
-887337
-887584
-888066
-888402
-888724
-889249
-889589
-889981
-890363
-890954
-891408
-891922
-892508
-893000
-893451
-893892
-894576
-895256
-895908
-896471
-897085
-897662
-898425
-898981
-899662
-900278
-900917
-901678
-902318
-902910
-903537
-904198
-904861
-905516
-906099
-906856
-907424
-907974
-908627
-909152
-909749
-910323
-910877
-911419
-911889
-912394
-913056
-913431
-913909
-914377
-914889
-915352
-915719
-916087
-916419
-916683
-917031
-917389
-917530
-917864
-918122
-918441
-918679
-918885
-919099
-919296
-919406
-919690
-919861
-919890
-919970
-920062
-920188
-920314
-920582
-920652
-920598
-920660
-920711
-920785
-920764
-920863
-920909
-921000
-921140
-921159
-921188
-921229
-921303
-921492
-921508
-921583
-921684
-921634
-921697
-921769
-921968
-922096
-922098
-922226
-922387
-922372
-922822
-922604
-922661
-922876
-922928
-923119
-923151
-923275
-923507
-923651
-923769
-923881
-924132
-924443
-924548
-924673
-924843
-924979
-925252
-925376
-925651
-925773
-926012
-926274
-926600
-926819
-926903
-927103
-927302
-927483
-927802
-928008
-928291
-928433
-928865
-929055
-929388
-929620
-929866
-930279
-930625
-930762
-931056
-931340
-931669
-932012
-932317
-932607
-932830
-933183
-933518
-933628
-934089
-934499
-934809
-935158
-935536
-935835
-936153
-936637
-936884
-937277
-937599
-937935
-938289
-938722
-939159
-940087
-939988
-940233
-940362
-940904
-941349
-941717
-942047
-942418
-942834
-943191
-943512
-943955
-944274
-944723
-945223
-945377
-945832
-946160
-946627
-947072
-947397
-947670
-948045
-948420
-948856
-949144
-949447
-949694
-949882
-950103
-950272
-950364
-950445
-950560
-950327
-950249
-950016
-949767
-949289
-948589
-947977
-947320
-946420
-945625
-944605
-943420
-942266
-941067
-939550
-938049
-936599
-935081
-933499
-931845
-930018
-928390
-926692
-924962
-923176
-921525
-919778
-918177
-916609
-914959
-913382
-911846
-910422
-908959
-907412
-906243
-904829
-904102
-902453
-901032
-899834
-898736
-897718
-896706
-895664
-894647
-893689
-892729
-891951
-891196
-890289
-889604
-888941
-888342
-887620
-886990
-886479
-885943
-885473
-885008
-884475
-884096
-883581
-883229
-882992
-882657
-882357
-882006
-881845
-881475
-881271
-881143
-881045
-881052
-880907
-880895
-880829
-880759
-880810
-880705
-880776
-880848
-880813
-880900
-880966
-881177
-881240
-881372
-881470
-881701
-881825
-882011
-882196
-882546
-882701
-882953
-883170
-883385
-883779
-884023
-884371
-884577
-884947
-885279
-885521
-885917
-886207
-886484
-886943
-887333
-887935
-888342
-888619
-889235
-889751
-890317
-890953
-891444
-892121
-892549
-893188
-893826
-894371
-894950
-895620
-896316
-896896
-897449
-898221
-898832
-899462
-900109
-900736
-901380
-902091
-902604
-903193
-903872
-904429
-905014
-905737
-906241
-907494
-907998
-908433
-909050
-909509
-910087
-910538
-911975
-912834
-913152
-913536
-913947
-914222
-914631
-914874
-915166
-915494
-915757
-916074
-916293
-916483
-916794
-916870
-917060
-917267
-917407
-917497
-917660
-917803
-917736
-918001
-918140
-918287
-918359
-918449
-918590
-918637
-918686
-918718
-918815
-918866
-918998
-918866
-918997
-919035
-919133
-919337
-919280
-919433
-919511
-919586
-919716
-919757
-919771
-920000
-919963
-920036
-920133
-920155
-920368
-920423
-920505
-920737
-920746
-920850
-920984
-921165
-921277
-921460
-921597
-921655
-921888
-922074
-922224
-922401
-922607
-922857
-923022
-923136
-923357
-923577
-923685
-923883
-924123
-924346
-924612
-924782
-924975
-925262
-925506
-925799
-925937
-926228
-926518
-926712
-926977
-927262
-927474
-927773
-928010
-928372
-928650
-928865
-929143
-929467
-929798
-930145
-930426
-930702
-931058
-931371
-931729
-931989
-932308
-932740
-933064
-933369
-933695
-934003
-934406
-934777
-935078
-935403
-935915
-936205
-936544
-936915
-937299
-937545
-937952
-938418
-938890
-939217
-939479
-939890
-940204
-940556
-940928
-941289
-941793
-942162
-942526
-942969
-943332
-943770
-944013
-944321
-944686
-945077
-945569
-945917
-946245
-946659
-947046
-947286
-947486
-947878
-948150
-948244
-948556
-948740
-948850
-948880
-948863
-948948
-948707
-948517
-948119
-947842
-947271
-946695
-946153
-945271
-944418
-943366
-942358
-941121
-939803
-938461
-937004
-935389
-933838
-932299
-930582
-928728
-927039
-925291
-923458
-921710
-919878
-918069
-916395
-914589
-912906
-911242
-909627
-908078
-906540
-904954
-903634
-902262
-900834
-899495
-898210
-896965
-895846
-894587
-893578
-892523
-891454
-890462
-889555
-888629
-887862
-886977
-886108
-885405
-884790
-884049
-883266
-882654
-882161
-881572
-881037
-880621
-880063
-879614
-879174
-878830
-878440
-878148
-877749
-877456
-877127
-876957
-876742
-876519
-876101
-876046
-876005
-875981
-875726
-875724
-875662
-875673
-875529
-875640
-875619
-875735
-875734
-875811
-875891
-876036
-876105
-876186
-876359
-876461
-876388
-876685
-876963
-876890
-877360
-877640
-877861
-877969
-878204
-878415
-878661
-878883
-879303
-879539
-879922
-880248
-880503
-881029
-881289
-881663
-882102
-882404
-882869
-883374
-883943
-884431
-884899
-885437
-885721
-886493
-887024
-887589
-888176
-888755
-889339
-890003
-890558
-891240
-891692
-892351
-893051
-893587
-894248
-894815
-895394
-896058
-896781
-897302
-897885
-899173
-899253
-899692
-900271
-900724
-901326
-901903
-902318
-902900
-903410
-903814
-904189
-904740
-905255
-905651
-905994
-906466
-906814
-907234
-907541
-907956
-908350
-908681
-908899
-909233
-909444
-909795
-910013
-910223
-910423
-910571
-910737
-911004
-911270
-911284
-911499
-911525
-911704
-911817
-911940
-911971
-912119
-912247
-912304
-912458
-912451
-912591
-912721
-912658
-912796
-912891
-912815
-912980
-913020
-913019
-913157
-913241
-913281
-913364
-913461
-913446
-913539
-913688
-913746
-913861
-913969
-913989
-914049
-914171
-914372
-914373
-914616
-914780
-914755
-914910
-915038
-915099
-915256
-915458
-915311
-915616
-916245
-916102
-916180
-916273
-916386
-916603
-916823
-916874
-917031
-917328
-917411
-917646
-917832
-917971
-918138
-918448
-918640
-918825
-919060
-919281
-919419
-919777
-919932
-920744
-920677
-920731
-920898
-921150
-921662
-921849
-922076
-922355
-922644
-922973
-923191
-923535
-923794
-924217
-924543
-924818
-925220
-925506
-925807
-926229
-926508
-926852
-927123
-927549
-927695
-928085
-928464
-928844
-929302
-929647
-929954
-930374
-930726
-930992
-931447
-931766
-932166
-932569
-932945
-934019
-933851
-934076
-934450
-934857
-935200
-935523
-935955
-936378
-936731
-936996
-937557
-937799
-938151
-938513
-938894
-939337
-939779
-940165
-940485
-940829
-941252
-941503
-941835
-942269
-942606
-942796
-943166
-943449
-943602
-943790
-943906
-943985
-944028
-943994
-943906
-943639
-943442
-943210
-942590
-941896
-941160
-940548
-939572
-938626
-937587
-936384
-935150
-933647
-932213
-930701
-929132
-927577
-925918
-924048
-922342
-920511
-919405
-917131
-915232
-913402
-911769
-910047
-908408
-906567
-905003
-903533
-902011
-900575
-899066
-897658
-896301
-895023
-893789
-892537
-891403
-890208
-889223
-888161
-887120
-886042
-885160
-884265
-883369
-882609
-881860
-881113
-880487
-879672
-879037
-878544
-877909
-877359
-876838
-876374
-875937
-875432
-875098
-874746
-874394
-874102
-873870
-873539
-873190
-872997
-872803
-872633
-872494
-872342
-872215
-872124
-872136
-872060
-872059
-871970
-872041
-872075
-872170
-872178
-872197
-872382
-872485
-872566
-872659
-872676
-872960
-873086
-873267
-873570
-873742
-874053
-874220
-874368
-874670
-875009
-875282
-875471
-875754
-876023
-876385
-876815
-877048
-877384
-877819
-878191
-878571
-879065
-879547
-879868
-880402
-880887
-881465
-881957
-882442
-882988
-883456
-884124
-884786
-885287
-885841
-886538
-887113
-887790
-888408
-889102
-889720
-890348
-890904
-891518
-892184
-892788
-893463
-894076
-894649
-895351
-895901
-896503
-897031
-897522
-898143
-898743
-899333
-899752
-900303
-900834
-901337
-901720
-902288
-902800
-903132
-903619
-904036
-904420
-904865
-905155
-905492
-905885
-906156
-906494
-906805
-907006
-907398
-907661
-907887
-908003
-908132
-908398
-908571
-908765
-908980
-909117
-909324
-909436
-909470
-909632
-909719
-909850
-909986
-910073
-910204
-910137
-910301
-910438
-910382
-910435
-910575
-910712
-910733
-910858
-910911
-910916
-910891
-911084
-911156
-911132
-911313
-911427
-911606
-911596
-911603
-911693
-911909
-911984
-912113
-912112
-912252
-912393
-912514
-912704
-912836
-913007
-913202
-913283
-913378
-913643
-913702
-913902
-914072
-914296
-914360
-914590
-914820
-914929
-915241
-915302
-915601
-915795
-916022
-916348
-916485
-916764
-916990
-917183
-917343
-917559
-917938
-918148
-918394
-918739
-918997
-919203
-919457
-919689
-920071
-920346
-920515
-920805
-921124
-921444
-921747
-922038
-922366
-922761
-922954
-923320
-923693
-924059
-924318
-924731
-924984
-925392
-925587
-926426
-926494
-926662
-926950
-927394
-927746
-928140
-928405
-928746
-929211
-929224
-929821
-930265
-930617
-930969
-931271
-931656
-932041
-932372
-932701
-933174
-933606
-933893
-934251
-934710
-935125
-935388
-935835
-936223
-936621
-936893
-937323
-937711
-937962
-938382
-938867
-939174
-939637
-939913
-940323
-940800
-941226
-941604
-942026
-942294
-942653
-943084
-943485
-943873
-944270
-944672
-945016
-945356
-945640
-945938
-946291
-946598
-946855
-947237
-947472
-947681
-947591
-948003
-948121
-948022
-947916
-947697
-947537
-947267
-946733
-946266
-945557
-944802
-943990
-943015
-942020
-940999
-939540
-938183
-936575
-935124
-933593
-931841
-930182
-928314
-926495
-924617
-922852
-920994
-919118
-917212
-915394
-913470
-911830
-910036
-908311
-906721
-905033
-903461
-901931
-900535
-899113
-897659
-896322
-895068
-893879
-892670
-891518
-890398
-889428
-888452
-887408
-886506
-885577
-884700
-883871
-883081
-882329
-881594
-880917
-880106
-879704
-879177
-878737
-878202
-877767
-877218
-876771
-876424
-876183
-875905
-875587
-875261
-874976
-874731
-874488
-874384
-874201
-874091
-873994
-873978
-874020
-873970
-873869
-873922
-873996
-873864
-873938
-874019
-874201
-874300
-874385
-874689
-874824
-875001
-875068
-875218
-875477
-875675
-875965
-876173
-876483
-876677
-876976
-877239
-877491
-877905
-878294
-878572
-878853
-879191
-879508
-879853
-880341
-880759
-881117
-881546
-882135
-882504
-883089
-883630
-884179
-884719
-885199
-885868
-886359
-886930
-887526
-888216
-888729
-889378
-890017
-890765
-891305
-891858
-892630
-893336
-893819
-894437
-895103
-895732
-896499
-896975
-897413
-898207
-898920
-899417
-899896
-900550
-901108
-901638
-902211
-902797
-903366
-903790
-904225
-904831
-905244
-905695
-905978
-906556
-906832
-907242
-907597
-907956
-908284
-908620
-908921
-909205
-909530
-909787
-909965
-910250
-910451
-910622
-910725
-910961
-911122
-911283
-911201
-911363
-911544
-911600
-911785
-911800
-911983
-912034
-912141
-912156
-912079
-912118
-912182
-912150
-912338
-912290
-912397
-912366
-912425
-912523
-912568
-912594
-912582
-912678
-912752
-912761
-912841
-912813
-912946
-913089
-913084
-913100
-913282
-913424
-913519
-913587
-913566
-913623
-913792
-913669
-914023
-914079
-914140
-914392
-914478
-914459
-914720
-914816
-914946
-915109
-915351
-915376
-915575
-915756
-915923
-916083
-916316
-916507
-916658
-916883
-917035
-917351
-917413
-917715
-917847
-918139
-918274
-918560
-918761
-918972
-919249
-919422
-919722
-919935
-920045
-920443
-920718
-921010
-921249
-921477
-921810
-922063
-922274
-922564
-922914
-923289
-923453
-923749
-924067
-924366
-924657
-924859
-925200
-925502
-925823
-926124
-926398
-926752
-927153
-927498
-927769
-928092
-928432
-928653
-929002
-929362
-929773
-930208
-930610
-930875
-931342
-931613
-931858
-932227
-932574
-933066
-933429
-933768
-934182
-934551
-934971
-935267
-935653
-935975
-936378
-936788
-937157
-939642
-940019
-940369
-940681
-940929
-941306
-941581
-941762
-941972
-942130
-942145
-942149
-941964
-942028
-941878
-941638
-941331
-940984
-940318
-939780
-939117
-938254
-937320
-936441
-935241
-934088
-932787
-931467
-930008
-928535
-926994
-925390
-923823
-922106
-920273
-918794
-916945
-915376
-913660
-912061
-910348
-908751
-907203
-905629
-904091
-902645
-901180
-899801
-898497
-897237
-895958
-894701
-893555
-892433
-891360
-890285
-889316
-888382
-887558
-886683
-885853
-884953
-884269
-883482
-882819
-882262
-881685
-881031
-880507
-880004
-879488
-879049
-878628
-878212
-877838
-877473
-877281
-877025
-876807
-876572
-876441
-876275
-876083
-875870
-875887
-875802
-875780
-875641
-875744
-875740
-875746
-875754
-875833
-875954
-876108
-876284
-876331
-876489
-876691
-876935
-877270
-877345
-877573
-877763
-877834
-878238
-878484
-878900
-879204
-879496
-879823
-880101
-880411
-880872
-881156
-881504
-882015
-882381
-882835
-883390
-883752
-884225
-884824
-885245
-885942
-886373
-887006
-887570
-888132
-888729
-889352
-890131
-890673
-891367
-891995
-892699
-893394
-894150
-894733
-895458
-896162
-896448
-897391
-898102
-898788
-899481
-900091
-900758
-901428
-902063
-902563
-902923
-903783
-904419
-904951
-905604
-906075
-906590
-907008
-907556
-908005
-908522
-909023
-909354
-909802
-910242
-910530
-910961
-911130
-911465
-911858
-912137
-912219
-912641
-912875
-913121
-913426
-913509
-913664
-913877
-914102
-914211
-914332
-914204
-915221
-914872
-914896
-914925
-914977
-915059
-915148
-915223
-915192
-915353
-915463
-915253
-915421
-915588
-915677
-915672
-915596
-915724
-915848
-915891
-915974
-915908
-916111
-916151
-916243
-916676
-916474
-916535
-916627
-916660
-916729
-916887
-916945
-917120
-917206
-917343
-917592
-917729
-917909
-918023
-918125
-918369
-918491
-918576
-918849
-918943
-919167
-919306
-919506
-919761
-919914
-920170
-920405
-920504
-920783
-920866
-921226
-921315
-921528
-921765
-921996
-922320
-922508
-922761
-923076
-923226
-923498
-923718
-924075
-924368
-924618
-924855
-925128
-925282
-925611
-925979
-927445
-927825
-927981
-928341
-928656
-928891
-929268
-929579
-929924
-930198
-930591
-930867
-931292
-931625
-931925
-932307
-932648
-932895
-933322
-933638
-933993
-934333
-934678
-935066
-935415
-935787
-936144
-936590
-937021
-937372
-937660
-937967
-938463
-938734
-938870
-939321
-939735
-940110
-940636
-941092
-941501
-941819
-942064
-942488
-942830
-943344
-943646
-943991
-944448
-944806
-945163
-945501
-946025
-946356
-946614
-946903
-947314
-947562
-947852
-948046
-948282
-948373
-948466
-948543
-948521
-948326
-948153
-947751
-947397
-946881
-946312
-945710
-944915
-943954
-942917
-941871
-940646
-939352
-937803
-936297
-934715
-933043
-931376
-929553
-927711
-925836
-923965
-922084
-920143
-918301
-916457
-914606
-912784
-910983
-909196
-907484
-905808
-904235
-902715
-901204
-899604
-898174
-896761
-895307
-894000
-892891
-891729
-890487
-889427
-888333
-887274
-886252
-885435
-884495
-883599
-882879
-882031
-881253
-880667
-879793
-879149
-878654
-878030
-877400
-877010
-876504
-875899
-875477
-875099
-874720
-874363
-874080
-873888
-873574
-873487
-873170
-873013
-872789
-872653
-872485
-872405
-872388
-872359
-872372
-872305
-872312
-872439
-872459
-872458
-872632
-872665
-872695
-872902
-872978
-873073
-873380
-873558
-873828
-873998
-874194
-874406
-874617
-874915
-874896
-875312
-875670
-875866
-876187
-876441
-876917
-877251
-877483
-877792
-878158
-878440
-878879
-879255
-879668
-880599
-880868
-881173
-881639
-882128
-882630
-883083
-883600
-884138
-884787
-885411
-885944
-886522
-887106
-887834
-888385
-889011
-889648
-890240
-891015
-891595
-892153
-892814
-893479
-894122
-894689
-895427
-896043
-896594
-897255
-897853
-898446
-898985
-899645
-900179
-900743
-901175
-901750
-902260
-902762
-903248
-903764
-903942
-904528
-905042
-905562
-905948
-906340
-906757
-907142
-907403
-907717
-908008
-908361
-908634
-908862
-909193
-909402
-909593
-909831
-909911
-910183
-910346
-910603
-910619
-910691
-910822
-911091
-911158
-911218
-911354
-911438
-911564
-911659
-911729
-911723
-911808
-912018
-912144
-912098
-912124
-912201
-912231
-912354
-912417
-912438
-912567
-912659
-912676
-912704
-912800
-912871
-913048
-913077
-913181
-913251
-913377
-913464
-913564
-913881
-913830
-913921
-914086
-914213
-914520
-914546
-914655
-914849
-914940
-915263
-915326
-915494
-915657
-915859
-916042
-916211
-916415
-916659
-916859
-917031
-917182
-917371
-917627
-917912
-918239
-918454
-918703
-918812
-919030
-919259
-919512
-919769
-920062
-920422
-920678
-921008
-921158
-921473
-921824
-922136
-922376
-922725
-922940
-923072
-923282
-923757
-924186
-924609
-924463
-925154
-925496
-925854
-926146
-926473
-926806
-927168
-927570
-927970
-928290
-928651
-928861
-929379
-929724
-930028
-930415
-931076
-931156
-931480
-931808
-932268
-932678
-932935
-933360
-933672
-933841
-934396
-934710
-935212
-935531
-935859
-936317
-936591
-936970
-937360
-937845
-938268
-938596
-938936
-939389
-939863
-940256
-940681
-941073
-941299
-941725
-942069
-942564
-942829
-943225
-943647
-943971
-944300
-944670
-944897
-945175
-945436
-945516
-945621
-945870
-945925
-945929
-945994
-945908
-945512
-945266
-944848
-944213
-943602
-942839
-942069
-941034
-940079
-938933
-937504
-936247
-934793
-933193
-931510
-929875
-928091
-926221
-924307
-922529
-920588
-918720
-916787
-914867
-913080
-911144
-909449
-907729
-905892
-904098
-902570
-900909
-899323
-897903
-896451
-894931
-893598
-892287
-891050
-889793
-888630
-887495
-886528
-885398
-884405
-883421
-882559
-881643
-880854
-880091
-879392
-878718
-878064
-877338
-876694
-876188
-875651
-875140
-874615
-874229
-873770
-873263
-872964
-872749
-872360
-872187
-871893
-871608
-871416
-871267
-871023
-870772
-870884
-870671
-870689
-870649
-870601
-870632
-870658
-870653
-870755
-870757
-870993
-871775
-871334
-871410
-871529
-871556
-871775
-871873
-872067
-872304
-872463
-872674
-872895
-873191
-873425
-873638
-873951
-874323
-874528
-874788
-875165
-875449
-875737
-876172
-876509
-876863
-877346
-877687
-877868
-878400
-878885
-879474
-879882
-880505
-880861
-881469
-881957
-882647
-883166
-883730
-884343
-885018
-885537
-886188
-886859
-887560
-888114
-888713
-889423
-890094
-890776
-891386
-891974
-892584
-893312
-894000
-894576
-895181
-895857
-896429
-896956
-897567
-898144
-898768
-899048
-899865
-900484
-900927
-901446
-901928
-902484
-902904
-903489
-903801
-904221
-904675
-904996
-905374
-905836
-906162
-906639
-906944
-907164
-907476
-907834
-908092
-908272
-908500
-908699
-908976
-909240
-909266
-909958
-909884
-909897
-909932
-910122
-910161
-910204
-910332
-910479
-910540
-910629
-910818
-910915
-911031
-911054
-911029
-911126
-911258
-911176
-911340
-911344
-911346
-911505
-911581
-911587
-911592
-911751
-911854
-911802
-911951
-912119
-912210
-912239
-912326
-912362
-912432
-912529
-912721
-912803
-912867
-912978
-913063
-913270
-913444
-913628
-913710
-913952
-914032
-914265
-914435
-914649
-914809
-914649
-915161
-915246
-915596
-915834
-915922
-916229
-916370
-916646
-916927
-917163
-917375
-917624
-917751
-917993
-918361
-918538
-918889
-919146
-919465
-919648
-919975
-920276
-920505
-920719
-921040
-921286
-921631
-921970
-922178
-922584
-922873
-923227
-923534
-923791
-924147
-924437
-924801
-925244
-925585
-925794
-926175
-926519
-926597
-927084
-927506
-927901
-928007
-928463
-928846
-929254
-929571
-929885
-930275
-930639
-930961
-931292
-931736
-932065
-932733
-932962
-933291
-933525
-933961
-934263
-934592
-935064
-935446
-935738
-936056
-936396
-936511
-937127
-937513
-937882
-938279
-938702
-939120
-939422
-939772
-940246
-940651
-940994
-941402
-941737
-942037
-942544
-942836
-943291
-943631
-943921
-944339
-944726
-945082
-945443
-945779
-946002
-946290
-946566
-946765
-946996
-947078
-947168
-947181
-947210
-947033
-946761
-946559
-946158
-945649
-945171
-944226
-943591
-942742
-941716
-940580
-939362
-937948
-936488
-934894
-933405
-931630
-929931
-927949
-926142
-924321
-922482
-920585
-918493
-916611
-914734
-912915
-911027
-909180
-907292
-905595
-903904
-902297
-900794
-899166
-897710
-896279
-894838
-893602
-892151
-891016
-889852
-888696
-887646
-886574
-885605
-884506
-883527
-882803
-882023
-881111
-880284
-879661
-879032
-878425
-877666
-877110
-876707
-876143
-875687
-875276
-874815
-874432
-873884
-873795
-873398
-873205
-873003
-872765
-872560
-872413
-872276
-872104
-871983
-871879
-871852
-871822
-871810
-871952
-871925
-871907
-872079
-872186
-872363
-872765
-872579
-872615
-872753
-872910
-873227
-873429
-873669
-873912
-874023
-874300
-874634
-874824
-875158
-875451
-875667
-876113
-876355
-876780
-877043
-877342
-877792
-878245
-878607
-879104
-879523
-879977
-880408
-880938
-881321
-881799
-882474
-882892
-883513
-883998
-884662
-885251
-885846
-886521
-887139
-887819
-888549
-889631
-890015
-890508
-891240
-891837
-892526
-893175
-893946
-894586
-895266
-895997
-896597
-897243
-897921
-898546
-899173
-899921
-900605
-901166
-901728
-902480
-902999
-903472
-904094
-904582
-905128
-905775
-906170
-906739
-907119
-907535
-908036
-908476
-908762
-909306
-909689
-910113
-910379
-910753
-911058
-911378
-911676
-911592
-912154
-912406
-912679
-912865
-912968
-913250
-913292
-913564
-913511
-913773
-913875
-913964
-914079
-914162
-914322
-914338
-914478
-914515
-914654
-914746
-914700
-914803
-914871
-914939
-915076
-915171
-915047
-915157
-915117
-915300
-915325
-915455
-915507
-915510
-915574
-915587
-915651
-915891
-915886
-916009
-916130
-916327
-916396
-916510
-916536
-916610
-916802
-916939
-916972
-917141
-917318
-917446
-917632
-917749
-917936
-918078
-918243
-918459
-918676
-918950
-919105
-919350
-919489
-919742
-919899
-920075
-920079
-920398
-920684
-920890
-921144
-921562
-921728
-921858
-922189
-922320
-922712
-922800
-923091
-923391
-923635
-923968
-924286
-924443
-924802
-925151
-925484
-925764
-926009
-926396
-926688
-927008
-927290
-927267
-927800
-928239
-928532
-928870
-929132
-929560
-929918
-930166
-930672
-930935
-931257
-931736
-931994
-932422
-932743
-933025
-933370
-933841
-934173
-934632
-934984
-935306
-935704
-936168
-936402
-936796
-937268
-937567
-937928
-938349
-938700
-939128
-939505
-939991
-940399
-940735
-941157
-941538
-941897
-942363
-942828
-943117
-943560
-944019
-944464
-944781
-945172
-945528
-945907
-946349
-946813
-947294
-947723
-948013
-948481
-948954
-949402
-949749
-950113
-950416
-950822
-951232
-951566
-951908
-952166
-952591
-952817
-953034
-953182
-953380
-953571
-953522
-953465
-953329
-953056
-952823
-952333
-951934
-951277
-950575
-949559
-948638
-947504
-946279
-944932
-943552
-942142
-940393
-938778
-936875
-935064
-932963
-931259
-929415
-927440
-925517
-923343
-921452
-919516
-917531
-915629
-913773
-912033
-910235
-908600
-907015
-905421
-903808
-902405
-900959
-899501
-898253
-896946
-895651
-894442
-893333
-892198
-891242
-890196
-889356
-888357
-887438
-886730
-885988
-885174
-884428
-883866
-883163
-882555
-881981
-881570
-881017
-880690
-880204
-879909
-879565
-879290
-879004
-878616
-878306
-878048
-877988
-877788
-877601
-877447
-877299
-877290
-877343
-877286
-877366
-877359
-877378
-877188
-877556
-877569
-877657
-877758
-877918
-878013
-878170
-878453
-878590
-878850
-878975
-879425
-879618
-879870
-880178
-880471
-880755
-881026
-881360
-881801
-882168
-882617
-882870
-883221
-883726
-884118
-884498
-885066
-885432
-885964
-886460
-886929
-887428
-887988
-888637
-889158
-889819
-890325
-891062
-891682
-892407
-893027
-893672
-894283
-894907
-895693
-896376
-896732
-897671
-898435
-899169
-899836
-900407
-901129
-901862
-902609
-903072
-903703
-904384
-905010
-905706
-906326
-906977
-907535
-908008
-908614
-909173
-909733
-910219
-910718
-911227
-911657
-912135
-912452
-912912
-913350
-913676
-914009
-914369
-914749
-914999
-915320
-915660
-915767
-916048
-916335
-916936
-916779
-916877
-916961
-917086
-917152
-917369
-917384
-917433
-917468
-917598
-917645
-917695
-917710
-917867
-917765
-917856
-917810
-917868
-917964
-917911
-917931
-918032
-918054
-918043
-918058
-918102
-918128
-918179
-918181
-918174
-918274
-918247
-918197
-918290
-918373
-918338
-918424
-918603
-918616
-918652
-918714
-918737
-918820
-919030
-919081
-919956
-919536
-919519
-919620
-919657
-919698
-919878
-919960
-920185
-920278
-920376
-920598
-920735
-920885
-921022
-921354
-921490
-921737
-921880
-922062
-922196
-922409
-922606
-922879
-923184
-923341
-923478
-923752
-923970
-924286
-924533
-924751
-924926
-925246
-925462
-925710
-926036
-926333
-926565
-926838
-927103
-927479
-927645
-927971
-928268
-928709
-928925
-929294
-929566
-929828
-930124
-930495
-930862
-931158
-931451
-931978
-932372
-932615
-933583
-933433
-933720
-934097
-934418
-934730
-935049
-935414
-935864
-936180
-936520
-936967
-937285
-937624
-937982
-938369
-938859
-938922
-939509
-940056
-940391
-940857
-941267
-941512
-942013
-942368
-942835
-943189
-943631
-944060
-944518
-944853
-945284
-945664
-945980
-946461
-946826
-947315
-947596
-948048
-948384
-948687
-948977
-949282
-949546
-949873
-950108
-950313
-950391
-950417
-950291
-950196
-950006
-949723
-949301
-948924
-948393
-947647
-947017
-945941
-944966
-943967
-942712
-941413
-940003
-938508
-936927
-935356
-933585
-931837
-930080
-928167
-926369
-924425
-922538
-920614
-918822
-916995
-915189
-913326
-911575
-909853
-908276
-906626
-905114
-903620
-902224
-900760
-899297
-898029
-896799
-895565
-894447
-893320
-892191
-891669
-890409
-889205
-888427
-887619
-886711
-885953
-885299
-884599
-883888
-883208
-882704
-882165
-881742
-881176
-880743
-880305
-880025
-879635
-879418
-879116
-878784
-878557
-878312
-878347
-878152
-877893
-877763
-877860
-877714
-877687
-877570
-877678
-877699
-877655
-877722
-877902
-878062
-878248
-878432
-878611
-878662
-878855
-878889
-879174
-879379
-879703
-880000
-880237
-880622
-880889
-881186
-881421
-881739
-882022
-882413
-882708
-883230
-883576
-884027
-884530
-884907
-885257
-885771
-886090
-886756
-887177
-887841
-888434
-888998
-889611
-890181
-890597
-891403
-892151
-892693
-893351
-893780
-894535
-895405
-896111
-896778
-897512
-898155
-898877
-899665
-900257
-900883
-901707
-902363
-903101
-903896
-904572
-905245
-906538
-907217
-908951
-909655
-910274
-910869
-911380
-914296
-915838
-916727
-917327
-917485
-917729
-918040
-918263
-918477
-918778
-918935
-919125
-919280
-919349
-919544
-919634
-919656
-919704
-919908
-919993
-920141
-920175
-920215
-920172
-920319
-920365
-920414
-920381
-920448
-920427
-920642
-920680
-920683
-920579
-920630
-920710
-920809
-920734
-920873
-920910
-920878
-921025
-921136
-921228
-921212
-921252
-921402
-921415
-921533
-921696
-921779
-921895
-922077
-922069
-922284
-922417
-922443
-922637
-922752
-922905
-923115
-923295
-923350
-923534
-923649
-923769
-923951
-924187
-924388
-924596
-924834
-924999
-925268
-925388
-925573
-925798
-926110
-926282
-926490
-926634
-926876
-927201
-927422
-927803
-927963
-928142
-928399
-928819
-928963
-929244
-929527
-929853
-930279
-930477
-930854
-931047
-931345
-931779
-932040
-932365
-932600
-933039
-933345
-933600
-933939
-934365
-934713
-935018
-935439
-935716
-936140
-936387
-936749
-937087
-937461
-937819
-938109
-938469
-938949
-939301
-939627
-940025
-940421
-940824
-941113
-941489
-941804
-942158
-942559
-943001
-943307
-943636
-944088
-944620
-945008
-945401
-945734
-946155
-946537
-947025
-947373
-947693
-948229
-948645
-949106
-949395
-949797
-950222
-950639
-950935
-951309
-951763
-952089
-952371
-952807
-953086
-953364
-953556
-953767
-953835
-953859
-953823
-953800
-953533
-953331
-953084
-952709
-952036
-951353
-950470
-949668
-948507
-947484
-946091
-944764
-943284
-941686
-940020
-938186
-936399
-934567
-932595
-930547
-928645
-926626
-924542
-922550
-920576
-918515
-916499
-914571
-912738
-911039
-909150
-907296
-905586
-904033
-902362
-900893
-899311
-898031
-896512
-895199
-893977
-892696
-891490
-890107
-889222
-888257
-887020
-886295
-885293
-884473
-883735
-882842
-882107
-881292
-880680
-880054
-879374
-878777
-878253
-877913
-877444
-877010
-876573
-876237
-875739
-875429
-875138
-874910
-874769
-874534
-874356
-874174
-873911
-873900
-873861
-873570
-873623
-873594
-873572
-873603
-873802
-873736
-873741
-873870
-873982
-874077
-874252
-874420
-874643
-874849
-874922
-875087
-875406
-875618
-875768
-876564
-876391
-876617
-876820
-877118
-877406
-877649
-877963
-878073
-878612
-878887
-879336
-879703
-880146
-880507
-880915
-881399
-881721
-882263
-882680
-883086
-883670
-884181
-884793
-885382
-885906
-886479
-887065
-887710
-888322
-888957
-889474
-890240
-890907
-891416
-892183
-892741
-893401
-894044
-894834
-895444
-896065
-896663
-897311
-897992
-898647
-899289
-899918
-900537
-901126
-901673
-902365
-902920
-903414
-904029
-904586
-905119
-905526
-906151
-906579
-907072
-907493
-907891
-908426
-908777
-909266
-909651
-909945
-910414
-910626
-910984
-911313
-911587
-911850
-912149
-912076
-912540
-912787
-913037
-913194
-913416
-913394
-913583
-913659
-913779
-913990
-914026
-914192
-914273
-914333
-914372
-914436
-913769
-914345
-914588
-914653
-914750
-914744
-914790
-914906
-914913
-914980
-915158
-915230
-915115
-915158
-915227
-915341
-915391
-915420
-915603
-915646
-915706
-915759
-915820
-916031
-916116
-916254
-916343
-916490
-916618
-916667
-916821
-917002
-917079
-917245
-917353
-917495
-917683
-917769
-917905
-918038
-918283
-918469
-918602
-918871
-919006
-919256
-919401
-919623
-919833
-919976
-920183
-920465
-920711
-920868
-921130
-921314
-921501
-921877
-921819
-922330
-922706
-922973
-923239
-923494
-923764
-923902
-924413
-924652
-924913
-925265
-925563
-925860
-926213
-926451
-926792
-927207
-927605
-927941
-928247
-928619
-928891
-929175
-929596
-929863
-930197
-930608
-930923
-931414
-931762
-932054
-932414
-932868
-933193
-933582
-933879
-934263
-934629
-935048
-935479
-935732
-936178
-936626
-936968
-937341
-937721
-938190
-938508
-938844
-939212
-939707
-940082
-940448
-940881
-941305
-941659
-942092
-942553
-943582
-943519
-943737
-943989
-944466
-944742
-945175
-945453
-945774
-946171
-946390
-946771
-947072
-947931
-947620
-947558
-947607
-947604
-947465
-947314
-947047
-946564
-946257
-945656
-945228
-944491
-943655
-942669
-941600
-940488
-939199
-937806
-936236
-934601
-933009
-931204
-929454
-927600
-925478
-923654
-921821
-919873
-917843
-915929
-913887
-912096
-910222
-908385
-906507
-904760
-903056
-901339
-899803
-898395
-896816
-895415
-893981
-892596
-891331
-890052
-888877
-888529
-886823
-885612
-884567
-883557
-882637
-881861
-881068
-880232
-879542
-878880
-878189
-877435
-876896
-876240
-875749
-875187
-874746
-874309
-873851
-873464
-873027
-872686
-872451
-872235
-872053
-871786
-871516
-871344
-871269
-871052
-870928
-870892
-870797
-870763
-870767
-870673
-870811
-870835
-870968
-870975
-871173
-871297
-871301
-871441
-871642
-871751
-871845
-872206
-872463
-872705
-872888
-873078
-873455
-873636
-873977
-874186
-874477
-874804
-875103
-875484
-875733
-876193
-876500
-876814
-877244
-877769
-878241
-878653
-878968
-879459
-879830
-880305
-880778
-881398
-881904
-882497
-883018
-883475
-884121
-884679
-885247
-885964
-886602
-887207
-887909
-888503
-889041
-889668
-890423
-891115
-891643
-892334
-892940
-893610
-894168
-894821
-895485
-896150
-896777
-897307
-897850
-898548
-899096
-899540
-900207
-900702
-901260
-901824
-902337
-902811
-903204
-903686
-904102
-904496
-904904
-905399
-905854
-906147
-906509
-906562
-907040
-907380
-907653
-907914
-908242
-908582
-908787
-909022
-909194
-909373
-909676
-909902
-909961
-910073
-910169
-910291
-910455
-910591
-910656
-910854
-910921
-910973
-910997
-911209
-911282
-911313
-911513
-911600
-911544
-911626
-911735
-911737
-911814
-911859
-911895
-912034
-912027
-912173
-912377
-912405
-912373
-912534
-912633
-912645
-912693
-912834
-912964
-913126
-913315
-913302
-913400
-913592
-913760
-913975
-914047
-914222
-914428
-914523
-914644
-914823
-914967
-915069
-915336
-915586
-915839
-916049
-916182
-916370
-916486
-916764
-916867
-917077
-917411
-917608
-917594
-918008
-918281
-918589
-918830
-919198
-919389
-919559
-919793
-920201
-920526
-920858
-921087
-921274
-921694
-921968
-922191
-922547
-922905
-923249
-923567
-923823
-924096
-924434
-924756
-925056
-925561
-925973
-926157
-926550
-926905
-927297
-927671
-927928
-928344
-928652
-929139
-929420
-929912
-930227
-930505
-930868
-931298
-931650
-932035
-932536
-932962
-933275
-933585
-934044
-934311
-935714
-935427
-935550
-935906
-936176
-936658
-937076
-937459
-937917
-938301
-938668
-939161
-939574
-940063
-940455
-940840
-941281
-941527
-941945
-942308
-942864
-943233
-943597
-943914
-944405
-944618
-944967
-945356
-945784
-946011
-946183
-946534
-946620
-946757
-946887
-946960
-946881
-946753
-946678
-946539
-946084
-945542
-945040
-944289
-943581
-942727
-941705
-940585
-939342
-938017
-936574
-935144
-933530
-931757
-929959
-928272
-926406
-924523
-922651
-920593
-918751
-916730
-914849
-912674
-910949
-909220
-907477
-905660
-903965
-902329
-900685
-899183
-897663
-896251
-894823
-893597
-892202
-890970
-889860
-888633
-887650
-886688
-885621
-884612
-883697
-882786
-882023
-881256
-880491
-879642
-879005
-878327
-877848
-877211
-876797
-876195
-875788
-875312
-874833
-874565
-874166
-873999
-873703
-873472
-873185
-873003
-872784
-872737
-872594
-872476
-872432
-872398
-872358
-872416
-872400
-872384
-872408
-872520
-872481
-872469
-872765
-872924
-873079
-873221
-873400
-873577
-873788
-874019
-874302
-874407
-874814
-875095
-875258
-875589
-875872
-876195
-876594
-876912
-877205
-877603
-877979
-878310
-878685
-879209
-879562
-879888
-880433
-880836
-881391
-881878
-882401
-882820
-883494
-884026
-884503
-884989
-885635
-886350
-886988
-887501
-888232
-888833
-889532
-890061
-890829
-891544
-892213
-892840
-893563
-893999
-894839
-895662
-896323
-896867
-897518
-898279
-898934
-899494
-900109
-900741
-901323
-901873
-902399
-903007
-903685
-904148
-904691
-905155
-905541
-906052
-906501
-906985
-907471
-907800
-908211
-908469
-908793
-909148
-909478
-909865
-910222
-910349
-910598
-910845
-911168
-911234
-911345
-911560
-911746
-911961
-912093
-912157
-912315
-912311
-912362
-912626
-912627
-912716
-912760
-912840
-912880
-912849
-913243
-913358
-913212
-913336
-913299
-913316
-913400
-913311
-913383
-913394
-913437
-913523
-913545
-913667
-913648
-913703
-913705
-913834
-913889
-914085
-914259
-914222
-914456
-914536
-914544
-914519
-914829
-914919
-915059
-915155
-915202
-915407
-915633
-915827
-916030
-916107
-916263
-916369
-916723
-916812
-916985
-917302
-917426
-917537
-917714
-917941
-918174
-918358
-918554
-918772
-919107
-919351
-919501
-919739
-920091
-920353
-920703
-920950
-921099
-921326
-921605
-921711
-922100
-922378
-922811
-923087
-923264
-923594
-923890
-924190
-924628
-924878
-925139
-925442
-925783
-926106
-926422
-926762
-927112
-927494
-927844
-928103
-928404
-928797
-929133
-929553
-929960
-930287
-930742
-930988
-931386
-931811
-932146
-932582
-932977
-933346
-933707
-934048
-934310
-934776
-935087
-935478
-935838
-936279
-936571
-936926
-937331
-937687
-937981
-938224
-939184
-939134
-939333
-939636
-939924
-940036
-940169
-940348
-940500
-940442
-940382
-940278
-940044
-939728
-939482
-938900
-938382
-937611
-936765
-936057
-934941
-933930
-932736
-931502
-930131
-929108
-927384
-925670
-924077
-922359
-920643
-918869
-917102
-915444
-913693
-911892
-910121
-908366
-906854
-905186
-903599
-901880
-900439
-898883
-897403
-896033
-894663
-893429
-892136
-890831
-889672
-888566
-887473
-886439
-885467
-884533
-883656
-882799
-882020
-881238
-880541
-879875
-879094
-878409
-877828
-877320
-876813
-876147
-875846
-875393
-875085
-874712
-874390
-874088
-873866
-873583
-873441
-873141
-873027
-872869
-872798
-872774
-872641
-872582
-872661
-872596
-872622
-872651
-872792
-872913
-872952
-873128
-873276
-873384
-873574
-873742
-873893
-874184
-874358
-874600
-874966
-875246
-875512
-875793
-875921
-876227
-876615
-877019
-877382
-877743
-878027
-878458
-878851
-879270
-879739
-880237
-880682
-881024
-881693
-882225
-882777
-883226
-883796
-884374
-884906
-885582
-886333
-886864
-887497
-888150
-888866
-889478
-890187
-890878
-891518
-892181
-892888
-893628
-894314
-895035
-895690
-896359
-896985
-897655
-898292
-898914
-899623
-900215
-900806
-901400
-902050
-902609
-903191
-903640
-904103
-904622
-905157
-905607
-906058
-907084
-907040
-907256
-907769
-908118
-908465
-908863
-909151
-909465
-909696
-910128
-910234
-910515
-910691
-910828
-911058
-911211
-911350
-911584
-911756
-911768
-911886
-912077
-912121
-912200
-912318
-912257
-912309
-912428
-912375
-912403
-912540
-912607
-912584
-912745
-912704
-912589
-912629
-912710
-912639
-912785
-912883
-912851
-912809
-912881
-912943
-912914
-912965
-912989
-913092
-913094
-913273
-913283
-913364
-913499
-913546
-913701
-913775
-913818
-914031
-914226
-914183
-914332
-914426
-914525
-914814
-914963
-915051
-915251
-915329
-915473
-915756
-915932
-916043
-916295
-916500
-916595
-916795
-916964
-917160
-917464
-917599
-917794
-918013
-918201
-918525
-918651
-918789
-919022
-919322
-919628
-919892
-920160
-920278
-920679
-920884
-921210
-921394
-921735
-921944
-922270
-922693
-923077
-923223
-923498
-923918
-924195
-924395
-924759
-925094
-925567
-925840
-926156
-926420
-926759
-927094
-927408
-927702
-928159
-928474
-928894
-929209
-929548
-929861
-930256
-930786
-931006
-931289
-931769
-932166
-932518
-932725
-933231
-933608
-933901
-934227
-934415
-934958
-935317
-935841
-936163
-936479
-936885
-937318
-937731
-937938
-938235
-938539
-938952
-939152
-939359
-939352
-939701
-939900
-939930
-939874
-938201
-937554
-936907
-936071
-935105
-934202
-933023
-931734
-930408
-929084
-927534
-925964
-924270
-922593
-920821
-919029
-917186
-915349
-914116
-911696
-909852
-907925
-906226
-904480
-902650
-900931
-899207
-897667
-896007
-894622
-893182
-891713
-890353
-889035
-887776
-886565
-885317
-884170
-882988
-881989
-880966
-879966
-879015
-877861
-877120
-876378
-875688
-874927
-874185
-873621
-872896
-872372
-871780
-871296
-870645
-870275
-870010
-869453
-868995
-868720
-868397
-868172
-867833
-867664
-867480
-867214
-867011
-866930
-866839
-866723
-866730
-866672
-866691
-866576
-866677
-866714
-866792
-866871
-867463
-867153
-867177
-867161
-867385
-867625
-867732
-868023
-868230
-868510
-868625
-868891
-869059
-869431
-869611
-869997
-870253
-870419
-870793
-871030
-871404
-871742
-872044
-872348
-872690
-873222
-873624
-874037
-874470
-875530
-875613
-875920
-876370
-876873
-877408
-878004
-878602
-879068
-879704
-880352
-880832
-881399
-882070
-882603
-883367
-883954
-884639
-885256
-885979
-886544
-887187
-887771
-888436
-889232
-889815
-890330
-890989
-891560
-892134
-892765
-893440
-893929
-894479
-895036
-895661
-896141
-896677
-897165
-897643
-898132
-898637
-899050
-899426
-899802
-900195
-900746
-901026
-901394
-901760
-902085
-902313
-902510
-902847
-903133
-903430
-903578
-903885
-903966
-904098
-904310
-904210
-904612
-904862
-904877
-905058
-905243
-905277
-905445
-905410
-905517
-905553
-905723
-905699
-905690
-905724
-905900
-905917
-905903
-905945
-906092
-906116
-906211
-906167
-906150
-906184
-906301
-906299
-907422
-906827
-906682
-906706
-906738
-906865
-906919
-907008
-907079
-907131
-907214
-907334
-907418
-907633
-907595
-907695
-907882
-907964
-908117
-908186
-908397
-908502
-908652
-908750
-908948
-909175
-909334
-909792
-909823
-909878
-910121
-911029
-910674
-911354
-911124
-911106
-911274
-911541
-911723
-911962
-912278
-912560
-912832
-913158
-913376
-913628
-913788
-914073
-914474
-914619
-914877
-915116
-915499
-915843
-916020
-916308
-916755
-917140
-917269
-917630
-917850
-918179
-918533
-918947
-919308
-919672
-919879
-920376
-920729
-920995
-921357
-921701
-922065
-922395
-922728
-923200
-923509
-923931
-924299
-924721
-925037
-925452
-925704
-926217
-926550
-926927
-927259
-927742
-928137
-928477
-928805
-929236
-929562
-929894
-930390
-930754
-931143
-931433
-931865
-932185
-932403
-932684
-933003
-933342
-933673
-933913
-934086
-934164
-934074
-934193
-934112
-933878
-933612
-933279
-932950
-932388
-931772
-931084
-930242
-929268
-928211
-927034
-925875
-924663
-923151
-921607
-920021
-918383
-916475
-914845
-913214
-911347
-909504
-907730
-905878
-904134
-902198
-900480
-898662
-897065
-895258
-893652
-892113
-890569
-889098
-887617
-886146
-885436
-883641
-882141
-881028
-879894
-878767
-877639
-876702
-875718
-874743
-873843
-873005
-872166
-871480
-870626
-869872
-869235
-868610
-867993
-867512
-866911
-866387
-865970
-865531
-865134
-864706
-864438
-864158
-863801
-863398
-863228
-863008
-862869
-862692
-862513
-862308
-862253
-862162
-862205
-862093
-862175
-862107
-862246
-862326
-862418
-862413
-862565
-862577
-862652
-862856
-863025
-863198
-863338
-863616
-863799
-864080
-864268
-864536
-864700
-864923
-865222
-865483
-865828
-866134
-866371
-866649
-866960
-867404
-867736
-868072
-868395
-868908
-869314
-869696
-870004
-870450
-870887
-871325
-871988
-872470
-872960
-873453
-874050
-874500
-875170
-875700
-876316
-877013
-877544
-878175
-878735
-879412
-880024
-880677
-881261
-881928
-882584
-883132
-883810
-884384
-885023
-885357
-886144
-886768
-887502
-888070
-888723
-889197
-889814
-890268
-890801
-891405
-891840
-892221
-892886
-893322
-893826
-894283
-894680
-895107
-895484
-895921
-896287
-896683
-897099
-897327
-897565
-897816
-898191
-898479
-898751
-898849
-899188
-899998
-900125
-900257
-900366
-900598
-900724
-900806
-900825
-900819
-900852
-901038
-901048
-901117
-901192
-901290
-901164
-901243
-901289
-901303
-901384
-901412
-901524
-901645
-901554
-901551
-901706
-901813
-901685
-901876
-901893
-901931
-902135
-902100
-902230
-902250
-902273
-902430
-902496
-902602
-902696
-902807
-902988
-902984
-903169
-903959
-903652
-903601
-903650
-903786
-904003
-904180
-904222
-904444
-904587
-904784
-905040
-905160
-905639
-906070
-906633
-906854
-906987
-907189
-907430
-907629
-907950
-908239
-908496
-908777
-908927
-909128
-909496
-909687
-910060
-910290
-910555
-910884
-911192
-911521
-911879
-912110
-912524
-912816
-913154
-913443
-913751
-914128
-914494
-914771
-915022
-915423
-915915
-916206
-916569
-916896
-917195
-917538
-917954
-918247
-918571
-918952
-919516
-919782
-920178
-920493
-920956
-921318
-921624
-921908
-922331
-922661
-923030
-923429
-923805
-924215
-924608
-924956
-925406
-926627
-926397
-926637
-926920
-927340
-927692
-928082
-928332
-928821
-929231
-929551
-929959
-930224
-930559
-930939
-931185
-931570
-931785
-932028
-932248
-932525
-932562
-932695
-932716
-932645
-932552
-932392
-932188
-931762
-931335
-930716
-930099
-929323
-928430
-927602
-926476
-925322
-923885
-922613
-921162
-919551
-917861
-916165
-914477
-912701
-910868
-909034
-907285
-905513
-903699
-901641
-899955
-898138
-896370
-894757
-892980
-891371
-889849
-888283
-886780
-885449
-884374
-882696
-881304
-880106
-878959
-877738
-876652
-875661
-874577
-873604
-872707
-871785
-870841
-870159
-869393
-868751
-868090
-867465
-866782
-866078
-865599
-865167
-864834
-864331
-864065
-863616
-863247
-862920
-862725
-862493
-862136
-861954
-861784
-861777
-861566
-861443
-861283
-861291
-861274
-861257
-861259
-861315
-861317
-861389
-861435
-861603
-861708
-861855
-862089
-862079
-862274
-862482
-862693
-862886
-863079
-863267
-863622
-863792
-864010
-864345
-864552
-864837
-865168
-865448
-865830
-866132
-866556
-866735
-867071
-867517
-867948
-868284
-868748
-869163
-869576
-869962
-870503
-871023
-871447
-871975
-872583
-873140
-873585
-874249
-874710
-875234
-876000
-876541
-877201
-877775
-878382
-879023
-879583
-880370
-880982
-881563
-882219
-882901
-883531
-884118
-884766
-885425
-886117
-886643
-887247
-887893
-888464
-889115
-889679
-890163
-890731
-891351
-891800
-892330
-892858
-893318
-893858
-894310
-894571
-895010
-895457
-895958
-896158
-896535
-897007
-897263
-897682
-897843
-898196
-898398
-898658
-898768
-899174
-899436
-899710
-900517
-900161
-900144
-900286
-900413
-900561
-900743
-900843
-900906
-901012
-900932
-901135
-901150
-901163
-901368
-901180
-901369
-901430
-901472
-901557
-901631
-901687
-901605
-901671
-901685
-901765
-901745
-901853
-901955
-901961
-902021
-902190
-902357
-902259
-902305
-902300
-902381
-902446
-902538
-902683
-902712
-902808
-902872
-902985
-903072
-903225
-903319
-903561
-903698
-903835
-903844
-903774
-904030
-904158
-904478
-904545
-904718
-904849
-905036
-905342
-905501
-905601
-905794
-905987
-906247
-907119
-906868
-906983
-907114
-907408
-907671
-907871
-908126
-908331
-908575
-908937
-909165
-909377
-909643
-909858
-910236
-910482
-910770
-911092
-911444
-911684
-912035
-912359
-912547
-912978
-913291
-913580
-913921
-914229
-914540
-914791
-915064
-915455
-915855
-916207
-916451
-916871
-917184
-917482
-917803
-918250
-918564
-918955
-919293
-919573
-919999
-920392
-920701
-921068
-921413
-921815
-922205
-922485
-922820
-923346
-923761
-924033
-924379
-924702
-925266
-925589
-925969
-926382
-926788
-927103
-927488
-927858
-928373
-928664
-929084
-929412
-929846
-930123
-930592
-930871
-931161
-931504
-931892
-932199
-932386
-932645
-932922
-933037
-933274
-933282
-933343
-933303
-933101
-932986
-932577
-932218
-931821
-931241
-930495
-929779
-928835
-927854
-926742
-925695
-924416
-923078
-921531
-920095
-918518
-916778
-915209
-913343
-911572
-909855
-907916
-906133
-904407
-902391
-900718
-898773
-897257
-895676
-894010
-892442
-890950
-889490
-887987
-886726
-885363
-884083
-882891
-881605
-880574
-879543
-878385
-877330
-876327
-875495
-874719
-873822
-872883
-872117
-871462
-870830
-870114
-869542
-868903
-868398
-867925
-868143
-867264
-866711
-866293
-866001
-865660
-865332
-865080
-864959
-864483
-864523
-864391
-864367
-864274
-864104
-864106
-863900
-864090
-864042
-864211
-864330
-864389
-864450
-864585
-865006
-865099
-865293
-865525
-866021
-866256
-866470
-866803
-867372
-867330
-867474
-867754
-868108
-868268
-868687
-868899
-869274
-869664
-870061
-870460
-870809
-871341
-871682
-872106
-872529
-873002
-873506
-873999
-874650
-875180
-875653
-876264
-876766
-877406
-877998
-878631
-879141
-879773
-880371
-881023
-881722
-882291
-882959
-883550
-884202
-884852
-885434
-886075
-886734
-887335
-888056
-888617
-889293
-889772
-890341
-890896
-891559
-891997
-892593
-893159
-893622
-894020
-894409
-895058
-895322
-895820
-896284
-896543
-896922
-897211
-897595
-897862
-898287
-898501
-898730
-899076
-899453
-899549
-899759
-900036
-900071
-900292
-900428
-900556
-900764
-900800
-900969
-901127
-901037
-901126
-901146
-901221
-901351
-901442
-901525
-901217
-901354
-901409
-901475
-901563
-901606
-901611
-901644
-901624
-901715
-901669
-901652
-901726
-901660
-901694
-901812
-901845
-901881
-901907
-902001
-901988
-902019
-902011
-902128
-902188
-902270
-902371
-902508
-902428
-902556
-902677
-902691
-902855
-902846
-902968
-903022
-903177
-903314
-903394
-903552
-903575
-903849
-903988
-904109
-904292
-904370
-904580
-904839
-904944
-905180
-905372
-905521
-905707
-905976
-905963
-906236
-906647
-906784
-907045
-907291
-907523
-907772
-907929
-908107
-908411
-908717
-908929
-908997
-909322
-909699
-909950
-910302
-910550
-910811
-911193
-911533
-911837
-911786
-912282
-912623
-912973
-913374
-913647
-913983
-914268
-914616
-914911
-915304
-915525
-916015
-916337
-916619
-916899
-917260
-917619
-918027
-918491
-918725
-919169
-919578
-919887
-920374
-920731
-921099
-921479
-921835
-922183
-922504
-922947
-923312
-923767
-924093
-924419
-924787
-925098
-925522
-925951
-926257
-926625
-926860
-927914
-927666
-927859
-928033
-928280
-928512
-928702
-928872
-928859
-928955
-928825
-928753
-928564
-928193
-927832
-927447
-926858
-926092
-925342
-924470
-923531
-922337
-921397
-920115
-918854
-917394
-915996
-914366
-912845
-911212
-909510
-907743
-906046
-904241
-902594
-900859
-899083
-897322
-895743
-894088
-892480
-890885
-889498
-887933
-886530
-885107
-883748
-882409
-881207
-879968
-878750
-877724
-876582
-875542
-874607
-873631
-872689
-871731
-871011
-870212
-869461
-868697
-867939
-867403
-866782
-866221
-865686
-865191
-864721
-864369
-864029
-863570
-863178
-862919
-862769
-862455
-862278
-862031
-861867
-861761
-861577
-861559
-861577
-861507
-861384
-861454
-861410
-861422
-861470
-861547
-861768
-861820
-861708
-861949
-862130
-862375
-862570
-862776
-862931
-863235
-863368
-863615
-863953
-864279
-864587
-864839
-865154
-865389
-865646
-865991
-866779
-867119
-868272
-868777
-869644
-870064
-870536
-871054
-871617
-872065
-872699
-873196
-873799
-874390
-874991
-875701
-876247
-876898
-877624
-878829
-879162
-879624
-880230
-880966
-881611
-882188
-882922
-883553
-884285
-884982
-885530
-886219
-886222
-887287
-888069
-888823
-889479
-890034
-890689
-891286
-891856
-892286
-892966
-893533
-893924
-894361
-894870
-895277
-895783
-896188
-896591
-896793
-897318
-897772
-898037
-898484
-898737
-898968
-899316
-899646
-899918
-900109
-900303
-900565
-900675
-900818
-901014
-901096
-901290
-901369
-901521
-901637
-901797
-901810
-901823
-901860
-901955
-901949
-902036
-902102
-902240
-902213
-902311
-902087
-902303
-902367
-902346
-902392
-902486
-902477
-902586
-902526
-902660
-902629
-902713
-902813
-902703
-902851
-902917
-903038
-903012
-903145
-903230
-903305
-903286
-903477
-903523
-903624
-903796
-903864
-903961
-904103
-904242
-904245
-904405
-904633
-904774
-904907
-905151
-905341
-905565
-905622
-905861
-905840
-906001
-906304
-906544
-906659
-906864
-907152
-907093
-907474
-907718
-907947
-908095
-908439
-908650
-908861
-909025
-909433
-909695
-909896
-910244
-910379
-910617
-910903
-911288
-911634
-911816
-912068
-912445
-912707
-912977
-913209
-913574
-914019
-914328
-914581
-914834
-915247
-915530
-915647
-916219
-916518
-916879
-917152
-917514
-917948
-918212
-918605
-918908
-919338
-919625
-920005
-920436
-920719
-921050
-921335
-921791
-922078
-922596
-922905
-923247
-923611
-924646
-924535
-925280
-925250
-925618
-925890
-926246
-926575
-927024
-927318
-927848
-928202
-928568
-928875
-929193
-929573
-929879
-930152
-930500
-930831
-931046
-931301
-931480
-931567
-931626
-931578
-931497
-931382
-931026
-930734
-930285
-929595
-928920
-928193
-927218
-926340
-925271
-923953
-922610
-921196
-919699
-918103
-916483
-914776
-913009
-911211
-909364
-907484
-905661
-903797
-901976
-900004
-898202
-896386
-894533
-892721
-891082
-889353
-887805
-886216
-884955
-883331
-881779
-880206
-879142
-877799
-876540
-875438
-874284
-873160
-872120
-871079
-870213
-869290
-868386
-867537
-866696
-865965
-865222
-864584
-863983
-863450
-862897
-863058
-861984
-861272
-860823
-860451
-860052
-859621
-859432
-859125
-858872
-858602
-858341
-858137
-858010
-857846
-857768
-857640
-857722
-857605
-857535
-857544
-857565
-857678
-857699
-857220
-857591
-857908
-858076
-858279
-858400
-858517
-858800
-859036
-859093
-859318
-859542
-859785
-860071
-860230
-860498
-860831
-862912
-863214
-863561
-863976
-864408
-864738
-865217
-865666
-866009
-866463
-866913
-867420
-867875
-868425
-868931
-869541
-870096
-870573
-871239
-871767
-876735
-877323
-877875
-878578
-879291
-879869
-880497
-881071
-881714
-882278
-882707
-883524
-884215
-884743
-885374
-885873
-886511
-886997
-887557
-888048
-888450
-888928
-889428
-889920
-890328
-890856
-891333
-891780
-892057
-892500
-892834
-893153
-893469
-893802
-894118
-894456
-894706
-894931
-895205
-895527
-895772
-895909
-896080
-896302
-896493
-896594
-896730
-896831
-896924
-897147
-897193
-897248
-897346
-897485
-897497
-897473
-897567
-897650
-897797
-897874
-897879
-897960
-898058
-898052
-897996
-898086
-898258
-898276
-898342
-898485
-898521
-898557
-898607
-898659
-898752
-898756
-898863
-898855
-898968
-899084
-899279
-899428
-899492
-899558
-899638
-899799
-899916
-900441
-900280
-900303
-900372
-900554
-900682
-900815
-900945
-901090
-901344
-901608
-901680
-901799
-902044
-902278
-902482
-902566
-902730
-903039
-903267
-903555
-903754
-903968
-904272
-904525
-904705
-905081
-905263
-905606
-905787
-906089
-906327
-906693
-906940
-907156
-907550
-907873
-908096
-908468
-908831
-909206
-909388
-909716
-909994
-910387
-910691
-911018
-911362
-911650
-912087
-912481
-912802
-913241
-913443
-913827
-914174
-914576
-914828
-915187
-915566
-915715
-916334
-916592
-917001
-917337
-917770
-918185
-918570
-918847
-919237
-919713
-920049
-920380
-920794
-921172
-921500
-921969
-922288
-922776
-923136
-923469
-923816
-924129
-924618
-925018
-925379
-925727
-926024
-926808
-926911
-927117
-927360
-927629
-928002
-928251
-928380
-929147
-928805
-928818
-928757
-928701
-928527
-928299
-928119
-927690
-927096
-926603
-925988
-925111
-924186
-923255
-922152
-921007
-919570
-918237
-916683
-915143
-913470
-911778
-909977
-908174
-906361
-904519
-902652
-900811
-899051
-897204
-895349
-893502
-891830
-890104
-888416
-886818
-885197
-883757
-882234
-880860
-879515
-878158
-876795
-875570
-874340
-873167
-872092
-871184
-870142
-869155
-868143
-867224
-866474
-865744
-865074
-864319
-863627
-863024
-862339
-861864
-861334
-860850
-860452
-860043
-859673
-859185
-859318
-858692
-858337
-858112
-857720
-857637
-857530
-857426
-857348
-857334
-857311
-857226
-857209
-857239
-857166
-857281
-857301
-857479
-857636
-857719
-857785
-858019
-858193
-858453
-858596
-858815
-859073
-859196
-859390
-859615
-859978
-860218
-860541
-861366
-861246
-861495
-861789
-862120
-862379
-862868
-863159
-864258
-864091
-864363
-864682
-865013
-865506
-865999
-866458
-866931
-867331
-867820
-868376
-868980
-869453
-870001
-870548
-871151
-871674
-872334
-872974
-873649
-874180
-874801
-875413
-876197
-876757
-877449
-878218
-878754
-879425
-879993
-880741
-881437
-881978
-882701
-883272
-883861
-884610
-885270
-885818
-886346
-886971
-887620
-888247
-888751
-889253
-889820
-890412
-890891
-891473
-891964
-892308
-892842
-893121
-893765
-894089
-894529
-894954
-895298
-895673
-895948
-896249
-896606
-896882
-897152
-897476
-897652
-897940
-898141
-898455
-898582
-898801
-898900
-899146
-899214
-899371
-899574
-899650
-899848
-899949
-899992
-900067
-900051
-900099
-900258
-900262
-900295
-900480
-900525
-900487
-900627
-900590
-900622
-900757
-900760
-900827
-900904
-900923
-901009
-901013
-901121
-901227
-901311
-901302
-901409
-901611
-901620
-901679
-901835
-901814
-902013
-902063
-902174
-902337
-902471
-902665
-902771
-902833
-902916
-903129
-903271
-903414
-903647
-903845
-903854
-904129
-904343
-904476
-904659
-905319
-905116
-905293
-905389
-905629
-905848
-906147
-906338
-906566
-906772
-907052
-907251
-907530
-907841
-908063
-908257
-908535
-908896
-909202
-909377
-909611
-909947
-910257
-910655
-910852
-911099
-911380
-911802
-912131
-912466
-912782
-913026
-913425
-913651
-914056
-914353
-914710
-915076
-915294
-915721
-916004
-916463
-916800
-917239
-917539
-917740
-918211
-918576
-919079
-919496
-919762
-920154
-920536
-920968
-921349
-921672
-922016
-922433
-922778
-923129
-923562
-923931
-924371
-924799
-925162
-925425
-925840
-926215
-926652
-927130
-927426
-927769
-928109
-928614
-928972
-929448
-929813
-930147
-930647
-930721
-931197
-931706
-932111
-932504
-932878
-933282
-933608
-933882
-934265
-934585
-934899
-935065
-935221
-935490
-935541
-935678
-935686
-935563
-935430
-935230
-934875
-934457
-933826
-933153
-932497
-931521
-930642
-929596
-928363
-927120
-925678
-924187
-922615
-920974
-919221
-917443
-915689
-913796
-911925
-909966
-908047
-906088
-904251
-902233
-900510
-898681
-896959
-895249
-893484
-891860
-890296
-888678
-887181
-885706
-884388
-883189
-881827
-880510
-879423
-878241
-877157
-876132
-875158
-874226
-873296
-872413
-871544
-870898
-870097
-869491
-868827
-868230
-867688
-867089
-866567
-866157
-865643
-865283
-864896
-864545
-864210
-863976
-863732
-863526
-863400
-863142
-863136
-863052
-862962
-862875
-862814
-862824
-862830
-862820
-862876
-862965
-863062
-863220
-863349
-863528
-863752
-863877
-864119
-864249
-865085
-864827
-864998
-865252
-865459
-865759
-866045
-866323
-866678
-867071
-867338
-867519
-867950
-868338
-868775
-869220
-869551
-870043
-870419
-870838
-871294
-871774
-872281
-872759
-873418
-873983
-874492
-874934
-875551
-876060
-876741
-877357
-877957
-878697
-879374
-880128
-880945
-881386
-881980
-882721
-883389
-884099
-884776
-885419
-886210
-886942
-887571
-888213
-888919
-889483
-890262
-891044
-891650
-892323
-892998
-893520
-894085
-894762
-895253
-895829
-896440
-896971
-897527
-898020
-898496
-899000
-899379
-899911
-900244
-900594
-901040
-901329
-901734
-902083
-902437
-902745
-902970
-903158
-903410
-903610
-903806
-904034
-904182
-904457
-904529
-904740
-904770
-904944
-904970
-905077
-905148
-905290
-905233
-905377
-905384
-905378
-905364
-905388
-905375
-905160
-905452
-905443
-905361
-905433
-905477
-905400
-905337
-905424
-905376
-905350
-905431
-905367
-905474
-905460
-905497
-905476
-905498
-905455
-905586
-905580
-905595
-905709
-905726
-905752
-905760
-905756
-905769
-905968
-906005
-906082
-906139
-906321
-906346
-906483
-906635
-906786
-906856
-907025
-907021
-907159
-907389
-907550
-907769
-907765
-908021
-908237
-908388
-908483
-908784
-908890
-909172
-909404
-909602
-909725
-909885
-910177
-910457
-910681
-910929
-911143
-912016
-911793
-911868
-912162
-912336
-912682
-912834
-913215
-913462
-913773
-914082
-914325
-914695
-914962
-915324
-915544
-915822
-915955
-916551
-916859
-917181
-917536
-917844
-918206
-918547
-918975
-919308
-919610
-920020
-920378
-920664
-921144
-921491
-921823
-922221
-922473
-922916
-923241
-923743
-923986
-924516
-924807
-925225
-925624
-925934
-926359
-926675
-927043
-927477
-927868
-928197
-928524
-928852
-929248
-929730
-930054
-930347
-930625
-930952
-931204
-931416
-931567
-931723
-931849
-931992
-931938
-931754
-931663
-931351
-930901
-930491
-929901
-929228
-928543
-927699
-926764
-925695
-924508
-923234
-921881
-920557
-919054
-917505
-915980
-914192
-912465
-910732
-908988
-907224
-905447
-903623
-901864
-900145
-898487
-896849
-895209
-893626
-892090
-890589
-889033
-887626
-886289
-884899
-883694
-882378
-881259
-880036
-879082
-877985
-876925
-875963
-875070
-874286
-873393
-872593
-871927
-871277
-870592
-869799
-869301
-868902
-868383
-867873
-867480
-867085
-866812
-866407
-866164
-865936
-865602
-865397
-865247
-865072
-865009
-864871
-864807
-864819
-864728
-864752
-864857
-864861
-864877
-864936
-865085
-865216
-865253
-865529
-865695
-865926
-866163
-866353
-866633
-866802
-867104
-867334
-867613
-868021
-868365
-868689
-868982
-869261
-869660
-870034
-870440
-870815
-871221
-871677
-871986
-872505
-873134
-873458
-874029
-874576
-875029
-875737
-876269
-876938
-877478
-878170
-878710
-879429
-879971
-880630
-881306
-882049
-882640
-883339
-884121
-884865
-885683
-886437
-887082
-887823
-888451
-889291
-889934
-890566
-891365
-892034
-892696
-893462
-894123
-894681
-895342
-896134
-896728
-897219
-897911
-898452
-898994
-899553
-900016
-900615
-901041
-901587
-901909
-902475
-902910
-903171
-903523
-903930
-904280
-904655
-904964
-905255
-905464
-905748
-906036
-906821
-906509
-906714
-906867
-906949
-907017
-907088
-907234
-907352
-907403
-907484
-907578
-907628
-907759
-907778
-907870
-907933
-907902
-907937
-907906
-907954
-907901
-907916
-907998
-908055
-908105
-908196
-908126
-908217
-908211
-908303
-908266
-908415
-908359
-908453
-908519
-908494
-908691
-908784
-908829
-908972
-908907
-908895
-909040
-909269
-909230
-909335
-909520
-909632
-909770
-909861
-910006
-910184
-910466
-910494
-910732
-910860
-911035
-911242
-911314
-912352
-911997
-911979
-912157
-912362
-912512
-912799
-912984
-913213
-913437
-913690
-913930
-914302
-914424
-914624
-914910
-915179
-915569
-915741
-916106
-916333
-916632
-916883
-917316
-917528
-917803
-918163
-918516
-918849
-919128
-919467
-919660
-920018
-920330
-920688
-920721
-921375
-921666
-922020
-922364
-922811
-923055
-923432
-923798
-924139
-924492
-924960
-925319
-925611
-925967
-926292
-926634
-926333
-927204
-927854
-928280
-928561
-928890
-929287
-929664
-930181
-930530
-930851
-931340
-931742
-932023
-932414
-932836
-933172
-933706
-934063
-934368
-934790
-935312
-935657
-935960
-936344
-936774
-937147
-937352
-937858
-938161
-938435
-938601
-938847
-938971
-939237
-939345
-939281
-939327
-939182
-939058
-938597
-938306
-937776
-937254
-936688
-935771
-934740
-933702
-932597
-931395
-929932
-928414
-926966
-925253
-923486
-921580
-919717
-917770
-915860
-913791
-911845
-909767
-907885
-905814
-903760
-901861
-899948
-898101
-896218
-894437
-892736
-891117
-889360
-887853
-886342
-884981
-883524
-882221
-881067
-879750
-878488
-877353
-876275
-875230
-874176
-873322
-872481
-871640
-870687
-869875
-869209
-868505
-867805
-867201
-866787
-866060
-865687
-865087
-864614
-864288
-863847
-863576
-863268
-862971
-862774
-862555
-862280
-862067
-861986
-861761
-861728
-861580
-861572
-861664
-861517
-861633
-861692
-861662
-861949
-861910
-861995
-862123
-862237
-862398
-862683
-862805
-863046
-863359
-863476
-863681
-863932
-864200
-864440
-864705
-865035
-865261
-865574
-865977
-866283
-866592
-866939
-867298
-867725
-867969
-868312
-868732
-869177
-869498
-869978
-870570
-870900
-871410
-871783
-872292
-872763
-873267
-873849
-874390
-875033
-875325
-877343
-880513
-881111
-881858
-882467
-883199
-883807
-884371
-885076
-885778
-886295
-887033
-887585
-888263
-888795
-889454
-889999
-890674
-891369
-891830
-892465
-892881
-893519
-893993
-894529
-894987
-895474
-896076
-896491
-896902
-897236
-897756
-898114
-898545
-898923
-899274
-899605
-899816
-900150
-900554
-900835
-901054
-901210
-901293
-901693
-901897
-901966
-902167
-902304
-902480
-902659
-902664
-902472
-902748
-902966
-902994
-903135
-903121
-903233
-903377
-903334
-903343
-903479
-903498
-903538
-903588
-903566
-903713
-903703
-903800
-903723
-903742
-903855
-903887
-903895
-903946
-903965
-903747
-903945
-904129
-904082
-904207
-904320
-904375
-904611
-904616
-904700
-904794
-905007
-905101
-905133
-905218
-905313
-905175
-905494
-905740
-905919
-906122
-906286
-906400
-906470
-906652
-906786
-907017
-907190
-907333
-907499
-907694
-908792
-908416
-908430
-908657
-908824
-908975
-909280
-909546
-909780
-909990
-910306
-910663
-910902
-911246
-911473
-911817
-912026
-912320
-912615
-912927
-913368
-913711
-914048
-914246
-914574
-914879
-915222
-915620
-916048
-916341
-916680
-917032
-917324
-917652
-917444
-918205
-918835
-919102
-919424
-919929
-920372
-920710
-921037
-921346
-921705
-922202
-922603
-923040
-923274
-923654
-924150
-924573
-924920
-925279
-925615
-926125
-926436
-926844
-927187
-927646
-927941
-928463
-928820
-928997
-929356
-929757
-930146
-931130
-930984
-931226
-931532
-931627
-931960
-932154
-932347
-932448
-932504
-932478
-932457
-932473
-932261
-931874
-931441
-930902
-930279
-929635
-928724
-927777
-926705
-925661
-924457
-923028
-921608
-919968
-918426
-916661
-914862
-913104
-911311
-909459
-907603
-905697
-903657
-901976
-900066
-898208
-896409
-894646
-892840
-891128
-889525
-887891
-886352
-884907
-883482
-882692
-880849
-879483
-878174
-876729
-875780
-874773
-873706
-872844
-871830
-870850
-870064
-869122
-868462
-867787
-867058
-866427
-865798
-865335
-864736
-864210
-863790
-863282
-862957
-862636
-862289
-861752
-861643
-861292
-861246
-861104
-860883
-860675
-860677
-860588
-860694
-860730
-860761
-860706
-860809
-860792
-860967
-860985
-861084
-861203
-861380
-861557
-861745
-862043
-862188
-862273
-862666
-862907
-863186
-863570
-863714
-863935
-864272
-864690
-865015
-865296
-865687
-865922
-866361
-866712
-867150
-867500
-867856
-868236
-868646
-869078
-869609
-869942
-870451
-870939
-871412
-871953
-872462
-873539
-873714
-874139
-874714
-875414
-875930
-876575
-877294
-877886
-878487
-879158
-879764
-880408
-881126
-881860
-882524
-883115
-883776
-884475
-885196
-885843
-886614
-887542
-887947
-888501
-889089
-889747
-890332
-890862
-891424
-892090
-892762
-893310
-893787
-894327
-894872
-895359
-895876
-896362
-896854
-897299
-897682
-898098
-898498
-898801
-899265
-899623
-900027
-900423
-900690
-900995
-901261
-901732
-901831
-902087
-902385
-902606
-902711
-902883
-903131
-903313
-903380
-903337
-903640
-903890
-904076
-904014
-904053
-904259
-904292
-904333
-904539
-904617
-904590
-904611
-904676
-904795
-904700
-904780
-904898
-904914
-904932
-905101
-905182
-905275
-905310
-905321
-905343
-905414
-905516
-905588
-905620
-905773
-905808
-905894
-905997
-906118
-906186
-906345
-906436
-906289
-906625
-906800
-906974
-907073
-907327
-907418
-907573
-907790
-907866
-908161
-908385
-908486
-908610
-908891
-909014
-909270
-909828
-909709
-909831
-910014
-910732
-910609
-910815
-910956
-911253
-911452
-911722
-911912
-912196
-912648
-912800
-913053
-913441
-913670
-914050
-914239
-914572
-914869
-915167
-915412
-915892
-916060
-916347
-916678
-917051
-917422
-917783
-918044
-918391
-918812
-919095
-919399
-919693
-920110
-920413
-920800
-921117
-921530
-921889
-922270
-922587
-922978
-923362
-923829
-924084
-924491
-924942
-925352
-925825
-926103
-926544
-926956
-927259
-927612
-927974
-928366
-928798
-929197
-929578
-929977
-930337
-930790
-931153
-931541
-931950
-932352
-932749
-933179
-933460
-933861
-934213
-935176
-935191
-935316
-935526
-935806
-936042
-936210
-936502
-936524
-936621
-936594
-936577
-936415
-936126
-935696
-935452
-934833
-934178
-933217
-932479
-931598
-930518
-929307
-928098
-926700
-925227
-914895
-913000
-911014
-909184
-907202
-905345
-903464
-901669
-899882
-898154
-896389
-894579
-893079
-891464
-889797
-888363
-886876
-885668
-884301
-883025
-881854
-880601
-879574
-878552
-877514
-876508
-875671
-874739
-873896
-873100
-872335
-871624
-871018
-870445
-869843
-869167
-868730
-868252
-867904
-867561
-867188
-866746
-866479
-866190
-865992
-865697
-865453
-865333
-865326
-865250
-865192
-865206
-865195
-865330
-865234
-865230
-865335
-865329
-865436
-865526
-865695
-865843
-866086
-866298
-866605
-866775
-867025
-867139
-867513
-867791
-868034
-868430
-868831
-869056
-869292
-869669
-869956
-870403
-870710
-871145
-871469
-871997
-872433
-872799
-873333
-873715
-874184
-874609
-875118
-875693
-876137
-876666
-877273
-877911
-878508
-879042
-879613
-880174
-880839
-881491
-882192
-882821
-883649
-884254
-884952
-885758
-886410
-887108
-887775
-888524
-889219
-889909
-890373
-891288
-891942
-892694
-893397
-893777
-894640
-895284
-895988
-896555
-897132
-897663
-898235
-898754
-899297
-899907
-900306
-900901
-901230
-901672
-902184
-902672
-903090
-903384
-903869
-904104
-904435
-904764
-905110
-905373
-905665
-905905
-906127
-906235
-906428
-906562
-906741
-906933
-906947
-907172
-907217
-907188
-907136
-907260
-907275
-907373
-907431
-907380
-907424
-907541
-907557
-907566
-907481
-907426
-907414
-907385
-907321
-907247
-907147
-907188
-907259
-907214
-907262
-907156
-907127
-907141
-907158
-907167
-907196
-907210
-907248
-907196
-907161
-907162
-906927
-907098
-907203
-907256
-907440
-907393
-907402
-907508
-907568
-907780
-907821
-908223
-908106
-908071
-908132
-908225
-908335
-908363
-908682
-908785
-908879
-908974
-909265
-909349
-909562
-909724
-909926
-910105
-910315
-910441
-910659
-910835
-911043
-911289
-911465
-911768
-911939
-912255
-912426
-912733
-912956
-912881
-913339
-913680
-914341
-914298
-914478
-914760
-915002
-915441
-915691
-915988
-916259
-916551
-916878
-917181
-917617
-917875
-918255
-918504
-918850
-919234
-919528
-919917
-920225
-920474
-920714
-921307
-921627
-922087
-922484
-922803
-923159
-923571
-923854
-924151
-924657
-924850
-925296
-925654
-926107
-926181
-926588
-927087
-927453
-927759
-928202
-928531
-928825
-929229
-929472
-929833
-930071
-930366
-930754
-930832
-930979
-931149
-931295
-931170
-931132
-931030
-930785
-930438
-930025
-929560
-928948
-928278
-927539
-926677
-925767
-924714
-923482
-922248
-920874
-919379
-917896
-916335
-914692
-913087
-911338
-909718
-907954
-906201
-904515
-902881
-901182
-899401
-897778
-896188
-894578
-892988
-891478
-890093
-888612
-887296
-886113
-884780
-883429
-882255
-881194
-880197
-879049
-878034
-877123
-876907
-875555
-874557
-873671
-873012
-872394
-871671
-871096
-870505
-869912
-869348
-868904
-868543
-867972
-867646
-867402
-867033
-866538
-866376
-866310
-865905
-865863
-866426
-865979
-865639
-865650
-865537
-865496
-865482
-865621
-865649
-865771
-865785
-865916
-866087
-866216
-866357
-866588
-866713
-866685
-867140
-867420
-867687
-868064
-868340
-868581
-868904
-869304
-869580
-869926
-870275
-870687
-871097
-871492
-871879
-872289
-872759
-873147
-873724
-874195
-874638
-875161
-875664
-876140
-876880
-877471
-878029
-878613
-879242
-880036
-880622
-881266
-881919
-882575
-883325
-883926
-884741
-885396
-886241
-886988
-887702
-888363
-889021
-889700
-890509
-891206
-891931
-892579
-893309
-894004
-894636
-895366
-895976
-896703
-897226
-897908
-898464
-898956
-899501
-899959
-900444
-901015
-901465
-902051
-902380
-902965
-903204
-903706
-904075
-904439
-904788
-904989
-905324
-905428
-905848
-906224
-906321
-906510
-906759
-906728
-906987
-907315
-907368
-907590
-907671
-907790
-907818
-907891
-907948
-907901
-907957
-907977
-908041
-908068
-908117
-908169
-908212
-908191
-908182
-908231
-908217
-908237
-908369
-908081
-908331
-908358
-908430
-908414
-908424
-908413
-908504
-908607
-908597
-908672
-908632
-908777
-908881
-908907
-909073
-909011
-909061
-909245
-909218
-909321
-909495
-909620
-909683
-909857
-910049
-910118
-910096
-910348
-910429
-910525
-910694
-910804
-910974
-911145
-911332
-911399
-911592
-911738
-912007
-912088
-912336
-912480
-913383
-913055
-913241
-913352
-913553
-913843
-914058
-914289
-914620
-914758
-915063
-915237
-915423
-915820
-915970
-916307
-916608
-916955
-917196
-917532
-917709
-918055
-918255
-918650
-918866
-919223
-919593
-919809
-920146
-920500
-920724
-921096
-921479
-921762
-922099
-922412
-922870
-923137
-923291
-923657
-924096
-924545
-924842
-925292
-925481
-925907
-926022
-926506
-926954
-927356
-927368
-928032
-928442
-928811
-929204
-929445
-929858
-930316
-930837
-931112
-931510
-931903
-932198
-932575
-932998
-933350
-933701
-933981
-934394
-934632
-934886
-935186
-935406
-935505
-935634
-935451
-935667
-935543
-935412
-935185
-934858
-934399
-933943
-933251
-932572
-931640
-931335
-929800
-928468
-926967
-925669
-924399
-922707
-920946
-919321
-917493
-913799
-911843
-909796
-908050
-906107
-904210
-902346
-900569
-898730
-896862
-895098
-893426
-891772
-890322
-889601
-887488
-885821
-884410
-883041
-881702
-880537
-879364
-878183
-877057
-876096
-875069
-873966
-873057
-872192
-871419
-870541
-869650
-868991
-868388
-867691
-867002
-866391
-865915
-865317
-864884
-864407
-863933
-863567
-863221
-862834
-862555
-862309
-862044
-861869
-861607
-861549
-861252
-861117
-861110
-861034
-860954
-861064
-860925
-860902
-860990
-861146
-861241
-861681
-861413
-861452
-861554
-861690
-861881
-862157
-862359
-862606
-862786
-862983
-863245
-863227
-863611
-863967
-864260
-864550
-864917
-865164
-865491
-865829
-866181
-866628
-866918
-867211
-867686
-868116
-868464
-868938
-869289
-869664
-870130
-870741
-871320
-871587
-872196
-872744
-873353
-873850
-874570
-875255
-875832
-876304
-876930
-877519
-878132
-878836
-879534
-880198
-880860
-881591
-882179
-882815
-883516
-884108
-884707
-885288
-886011
-886571
-887243
-887860
-888473
-889045
-889632
-890304
-890770
-891248
-891836
-892371
-892888
-893407
-893933
-894472
-894855
-895423
-895878
-896205
-896456
-896981
-897303
-897717
-898041
-898369
-898642
-898958
-899205
-899484
-899646
-899856
-900162
-900326
-900537
-900641
-900858
-900912
-900995
-901153
-901348
-901412
-901508
-901468
-901524
-901600
-901593
-901788
-901761
-901864
-901815
-901908
-901876
-901861
-901999
-902094
-902158
-902111
-902154
-902134
-902217
-902105
-902169
-902247
-902248
-902269
-902356
-902360
-902509
-902500
-902567
-902579
-902742
-902806
-902881
-902930
-902994
-903129
-903181
-903345
-903478
-903575
-903644
-903707
-903874
-903984
-904101
-904241
-904459
-904484
-904797
-904844
-904920
-905131
-905240
-905442
-905455
-905842
-905874
-906181
-906357
-906558
-906862
-907051
-907249
-907478
-907676
-907924
-908152
-908511
-908755
-908974
-909241
-909499
-909658
-909889
-910139
-910609
-910893
-911116
-911440
-911809
-912000
-912359
-912570
-912908
-913236
-913611
-913813
-914144
-914512
-914829
-915218
-915501
-915764
-916241
-916509
-916808
-917094
-917560
-917979
-918921
-918738
-919094
-919356
-919827
-920158
-920529
-920808
-920888
-921499
-921836
-922241
-922618
-923041
-923298
-923761
-924213
-924459
-924745
-925138
-925560
-925975
-926291
-926655
-927045
-927403
-927692
-928042
-928383
-928792
-929105
-929420
-929699
-930056
-930340
-930511
-930767
-930972
-930962
-931107
-931125
-931112
-930901
-930680
-930358
-930027
-929557
-928842
-928235
-927382
-926443
-925452
-924361
-923102
-921708
-920325
-918701
-917068
-915500
-913725
-912029
-910223
-908368
-906399
-904474
-902604
-900740
-898938
-897021
-895296
-893615
-891935
-890231
-888719
-887191
-885521
-884022
-882560
-881288
-880050
-878744
-877442
-876372
-875228
-874081
-873064
-871974
-871025
-870010
-869110
-868268
-867567
-866753
-865996
-865371
-864708
-864119
-863564
-862996
-862571
-862067
-861637
-861236
-860878
-860548
-860322
-859874
-859669
-859375
-859176
-859084
-858899
-858802
-858680
-858629
-858530
-858429
-858487
-858457
-858522
-858551
-858606
-858705
-858817
-858999
-859090
-859265
-859484
-859763
-859946
-860115
-860371
-860571
-860837
-861053
-861397
-861660
-861904
-862267
-862591
-862812
-863175
-863520
-863908
-864275
-864546
-864890
-865296
-865719
-866072
-866546
-867074
-867437
-867881
-868337
-868948
-869312
-869873
-870399
-870968
-871518
-872077
-872617
-873286
-873930
-874517
-875221
-875786
-876439
-877066
-877760
-878413
-879130
-879852
-880454
-881065
-881660
-882318
-883108
-883764
-884451
-884980
-885578
-886128
-886799
-887390
-888069
-888678
-889102
-889629
-890262
-890768
-891391
-891763
-892193
-892664
-893026
-893481
-893976
-894430
-894741
-895068
-895471
-895798
-896025
-896421
-896624
-896976
-897126
-897420
-897653
-897935
-898148
-898240
-898343
-898529
-898611
-898831
-898901
-898972
-899030
-899173
-899292
-899319
-899300
-899478
-899488
-899439
-899554
-899606
-899556
-899717
-899676
-899694
-899626
-899776
-899815
-899761
-899876
-899866
-899770
-899818
-899937
-899940
-900038
-900012
-900053
-900118
-900213
-900281
-900381
-900425
-900416
-900555
-900665
-900765
-900852
-900990
-901150
-901203
-901430
-901514
-901712
-901690
-901840
-902040
-902242
-902459
-902532
-902650
-902866
-903063
-903308
-903544
-903691
-903907
-904068
-904324
-904511
-904724
-905027
-905258
-905516
-905662
-906047
-906282
-906526
-906716
-906978
-907286
-907639
-907801
-908122
-908387
-908801
-909107
-909303
-909638
-909878
-910096
-910414
-910813
-911144
-911457
-911701
-911996
-912307
-912756
-912965
-913417
-913684
-913989
-914326
-914658
-915028
-915412
-915871
-916062
-916735
-917046
-917505
-917830
-918236
-918677
-919014
-919310
-919749
-920048
-920395
-920768
-921209
-921628
-921968
-922432
-922682
-923061
-923415
-923881
-924214
-924509
-924937
-925372
-925735
-926121
-926510
-926898
-927323
-927646
-928001
-928537
-928911
-929287
-929651
-929964
-930390
-930709
-931036
-931427
-931786
-932103
-932458
-932915
-933200
-933459
-933816
-934048
-934281
-934434
-934676
-934942
-934931
-934890
-934833
-934746
-934506
-934284
-933825
-933264
-932713
-932046
-931136
-930209
-929164
-928003
-926761
-925453
-924036
-922332
-920737
-919028
-917280
-915430
-913568
-911667
-909830
-907786
-905988
-904139
-902197
-900327
-898509
-896748
-895072
-893360
-891542
-889931
-888373
-886987
-885459
-884101
-882803
-881487
-880195
-879042
-877867
-876667
-875617
-874693
-873723
-872794
-871881
-871081
-870289
-869458
-868746
-867964
-867351
-866660
-866136
-865764
-865224
-864798
-864430
-863990
-863587
-863282
-862958
-862777
-862619
-862358
-862180
-861893
-861568
-861700
-861589
-861545
-861575
-861563
-861572
-861726
-861800
-861767
-861893
-861960
-862107
-862192
-862489
-862537
-862802
-863098
-863194
-863539
-863800
-864093
-864313
-864635
-864954
-865156
-865429
-865778
-866145
-866452
-866792
-867240
-867586
-867843
-868218
-868614
-868987
-869417
-869951
-870430
-870898
-871386
-871820
-872388
-872955
-873515
-874060
-874589
-875245
-875935
-876396
-877065
-877633
-878279
-878936
-879601
-880307
-881008
-881665
-882427
-882999
-883615
-884406
-885079
-885803
-886492
-887151
-887818
-888441
-889044
-889878
-890440
-891061
-891754
-892424
-892963
-893444
-894027
-894638
-895224
-895777
-896227
-896642
-897150
-897698
-898122
-898572
-899086
-899477
-899855
-900222
-900554
-900814
-901186
-901558
-901765
-902023
-902261
-902572
-902708
-902808
-902977
-903170
-903314
-903480
-903601
-903798
-904007
-904094
-904044
-904111
-904149
-904267
-904194
-904291
-904389
-904422
-904381
-904385
-904423
-904373
-904406
-904519
-904436
-904417
-904446
-904391
-904398
-904490
-904497
-904557
-904564
-904616
-904603
-904794
-905614
-905043
-904934
-904835
-904922
-904995
-905224
-905206
-905322
-905300
-905501
-905554
-905668
-905806
-905805
-906016
-906113
-906217
-906422
-906456
-906753
-907222
-907327
-907578
-907818
-908152
-908448
-908698
-908859
-909212
-909564
-909718
-910124
-910404
-910620
-910823
-911045
-911342
-911634
-911861
-912088
-912281
-912568
-912963
-913271
-913581
-913853
-914081
-914365
-914712
-914983
-915354
-915611
-915842
-916241
-916628
-916858
-917293
-917590
-917975
-918199
-918463
-918801
-919145
-919477
-919933
-920219
-920430
-920902
-921321
-921524
-921865
-922254
-922508
-922887
-923145
-923635
-924015
-924791
-924836
-925081
-925364
-925802
-926209
-926510
-926938
-927227
-927665
-927987
-928376
-928747
-929038
-929469
-929855
-930341
-930600
-930943
-931295
-931695
-932184
-932491
-932836
-933235
-933604
-933986
-934236
-934562
-934899
-935183
-935512
-935714
-935852
-936110
-936151
-936153
-936171
-936120
-936058
-935815
-935507
-935191
-934585
-933968
-933332
-932537
-931517
-930506
-929439
-928205
-926796
-925531
-923978
-922395
-920703
-918974
-917182
-915421
-913522
-911721
-909863
-907993
-906131
-904210
-902500
-900788
-899018
-897361
-895546
-894110
-892445
-890971
-889521
-888027
-886637
-885301
-884148
-882849
-881781
-880653
-879569
-878504
-877538
-876551
-875638
-874863
-874035
-873243
-872620
-871929
-871212
-870646
-870140
-869629
-869087
-868664
-868175
-867751
-867471
-867267
-866826
-866689
-866396
-866137
-866033
-865926
-865823
-865731
-865652
-865651
-865577
-865686
-865660
-865742
-865831
-865817
-865975
-866203
-866422
-866451
-866755
-866938
-867145
-867437
-867689
-867971
-868255
-868495
-868817
-869011
-869458
-869801
-870171
-870607
-870850
-871310
-871632
-872163
-872534
-872957
-873364
-873874
-874288
-874950
-875413
-875994
-876534
-877056
-877712
-878219
-878891
-879455
-880195
-880775
-881426
-882101
-882847
-883353
-884199
-884954
-885530
-886305
-886989
-887649
-888497
-889000
-889861
-890541
-891208
-891896
-892617
-893303
-893876
-894587
-895248
-895822
-896466
-897098
-897578
-898166
-898702
-899319
-899769
-900254
-900654
-901130
-901613
-902153
-902570
-902922
-903256
-903562
-903916
-904225
-904437
-904797
-905000
-905372
-905661
-905666
-905865
-905964
-906149
-906252
-906454
-906534
-906638
-906738
-906800
-906880
-906826
-906959
-907009
-906981
-907032
-907025
-907064
-906995
-907002
-907073
-907046
-907023
-906979
-906963
-907054
-907062
-907108
-907156
-907087
-906940
-907021
-906994
-907045
-907147
-907122
-907140
-907250
-907240
-907401
-907292
-907434
-907501
-907594
-907595
-907697
-907773
-907852
-908064
-908297
-908324
-908487
-908537
-908749
-908811
-908949
-909179
-909391
-909435
-909650
-909700
-909940
-910105
-910338
-910426
-910706
-910922
-911061
-911382
-911486
-911666
-911899
-912152
-912280
-913179
-912886
-912696
-913240
-913449
-913702
-913996
-914233
-914625
-914710
-914964
-915314
-915516
-915778
-916151
-916367
-916708
-916970
-917256
-917535
-917878
-918159
-918527
-918904
-919233
-919418
-919742
-920178
-920534
-920873
-921099
-921453
-921786
-922174
-922403
-922877
-923227
-923571
-923871
-924202
-924585
-924899
-925323
-925794
-926061
-926454
-926847
-927190
-927487
-927927
-928234
-928674
-929110
-929513
-929978
-930274
-930736
-931107
-931412
-931811
-932131
-932580
-932931
-933271
-933760
-934150
-934445
-934776
-935230
-935580
-935887
-936147
-936570
-936783
-937111
-937299
-937434
-937603
-937660
-937829
-937666
-937556
-937472
-937084
-936821
-936048
-935708
-934988
-934265
-933365
-932277
-931188
-930070
-928609
-927129
-925653
-924105
-922400
-920789
-918877
-917011
-915149
-913187
-911298
-909329
-907403
-905526
-903616
-901664
-899834
-898031
-896316
-894636
-893006
-891474
-889846
-888325
-886820
-885403
-884146
-882834
-881462
-880272
-879182
-878091
-876837
-875962
-875030
-874116
-873084
-872322
-871572
-870744
-869826
-869249
-868656
-868068
-867514
-866815
-866384
-865922
-865518
-865080
-864734
-864288
-864047
-863776
-863534
-863370
-863149
-862946
-862897
-862868
-862708
-862623
-862589
-862614
-862485
-862639
-862653
-862688
-862759
-863009
-863074
-863303
-863426
-863649
-863807
-863999
-864187
-864468
-864721
-864896
-865172
-865403
-865691
-866092
-866480
-866693
-867088
-867308
-867832
-868065
-868467
-868835
-869185
-869410
-869973
-870495
-870952
-871348
-871862
-872282
-872691
-873166
-873699
-874328
-874931
-875504
-875965
-876558
-877188
-877760
-878451
-879109
-879750
-880327
-880914
-881592
-882316
-882962
-883749
-884423
-885063
-885684
-886441
-887040
-887729
-888430
-889096
-889730
-890346
-890946
-891544
-892185
-892465
-893370
-894040
-894577
-895094
-895696
-896129
-896608
-897154
-897629
-898152
-898601
-898959
-899307
-899719
-900109
-900515
-900850
-901159
-901483
-901826
-902067
-902061
-902479
-902831
-902965
-903234
-903497
-903694
-903854
-903898
-904029
-904245
-904402
-904364
-904531
-904505
-904368
-904598
-904816
-904946
-904905
-904952
-905033
-905070
-905095
-905080
-905156
-905225
-905158
-905315
-905285
-905310
-905292
-905399
-905392
-905474
-905452
-905440
-905528
-905575
-905549
-905690
-905828
-905849
-905969
-905958
-905980
-906079
-906322
-906316
-906464
-906583
-906606
-906730
-906869
-907098
-907200
-907242
-907417
-907301
-907654
-907851
-908072
-908149
-908376
-908466
-908649
-908897
-908985
-909206
-909929
-909727
-909858
-910106
-910207
-910468
-910646
-910879
-911208
-911457
-911780
-911947
-912251
-912475
-912816
-913001
-913359
-913580
-913833
-914248
-914484
-914836
-915037
-915334
-915758
-915980
-916207
-916736
-917017
-917317
-917702
-918027
-918386
-918753
-919166
-919483
-919871
-920188
-920570
-921048
-921362
-921630
-921939
-922374
-922842
-923149
-923521
-923884
-924222
-924576
-924978
-925397
-925633
-926137
-926496
-926710
-927097
-927570
-928042
-928368
-928707
-929013
-929125
-929692
-930164
-930651
-931059
-931368
-931739
-932053
-932392
-932643
-933006
-933459
-933772
-934072
-934509
-934789
-935046
-935307
-935574
-935798
-935850
-936025
-936054
-936145
-935989
-935827
-935326
-935290
-934953
-934457
-933790
-933045
-932135
-931103
-930146
-928883
-927556
-926142
-924743
-923195
-921454
-919801
-917975
-915918
-914193
-912318
-910371
-908504
-906576
-904664
-902751
-900887
-899112
-897347
-895520
-893891
-892156
-890539
-889014
-887525
-886022
-884596
-883199
-881807
-880566
-879415
-878251
-877036
-875963
-874951
-874009
-873050
-872075
-871249
-870456
-869676
-869015
-868246
-867705
-866950
-866420
-865841
-865469
-865010
-864617
-864267
-863748
-863483
-863256
-862830
-862562
-862390
-862243
-862157
-861960
-861780
-861729
-861751
-861765
-861697
-861722
-861854
-861648
-861913
-861955
-862070
-862270
-862462
-862626
-862803
-863032
-863065
-863335
-863616
-863737
-864059
-864311
-864621
-864852
-865258
-865588
-865843
-866069
-866474
-866828
-867107
-867503
-867897
-868198
-868544
-869000
-869444
-869869
-870165
-870722
-870940
-871520
-872141
-872589
-873076
-873679
-874169
-874797
-875882
-876145
-876505
-877075
-877721
-878338
-878995
-879641
-880230
-881017
-881647
-882247
-882874
-883661
-884364
-885048
-885657
-886146
-886986
-887605
-888245
-888985
-889692
-890259
-890889
-891455
-892033
-892787
-893262
-893737
-894362
-894887
-895377
-895868
-896328
-896699
-897200
-897627
-898176
-898329
-898875
-899421
-899761
-900120
-900509
-900785
-901053
-901388
-901725
-901923
-902191
-902352
-902630
-902850
-903071
-903174
-903556
-903633
-903828
-903785
-903893
-904092
-904227
-904172
-904318
-904441
-904456
-904528
-904556
-904576
-904687
-904376
-904670
-904718
-904880
-904851
-904875
-904956
-904918
-905597
-905196
-905100
-905114
-905097
-905107
-905174
-905272
-905460
-905457
-905460
-905579
-905640
-905622
-905764
-905819
-906002
-906031
-906071
-906170
-906366
-906459
-906609
-906732
-906816
-906981
-907112
-907334
-907394
-907561
-907814
-907988
-908113
-908310
-908418
-908789
-909008
-909070
-909380
-909533
-909862
-910118
-910296
-910457
-910684
-910872
-911283
-911488
-911788
-912063
-912272
-912554
-912883
-913076
-913438
-913715
-914000
-914350
-914614
-914842
-915153
-915517
-915598
-916098
-916531
-916933
-917098
-917359
-917795
-918058
-918408
-918830
-919062
-919383
-919799
-920146
-920477
-920860
-921224
-921533
-921859
-922173
-922592
-923044
-923418
-923708
-924063
-924328
-924777
-925207
-925576
-925866
-926327
-926636
-926914
-927444
-927826
-928120
-928495
-928868
-929285
-929727
-929979
-930411
-930777
-931137
-931545
-932017
-932366
-932847
-933129
-933639
-933976
-934346
-934747
-935163
-935581
-936032
-936356
-936758
-937197
-937603
-938032
-938281
-938724
-939069
-939422
-939830
-940293
-940632
-940884
-941236
-941443
-941609
-942025
-942119
-942264
-942499
-942400
-942358
-942259
-942013
-941781
-941382
-940969
-940423
-939634
-938865
-937824
-936773
-935582
-934437
-933039
-931565
-929964
-928178
-926363
-924579
-922675
-920598
-918768
-916717
-914761
-912741
-910695
-908738
-906746
-904889
-902789
-901099
-899242
-897444
-895784
-894044
-892510
-890939
-889521
-888077
-886610
-885264
-884037
-882798
-881580
-880598
-879363
-879301
-877725
-876576
-875694
-874785
-873704
-873173
-872432
-871818
-871249
-870626
-870087
-869466
-868967
-868621
-868155
-867853
-867453
-867154
-866951
-866784
-866477
-866192
-866042
-865981
-865881
-865823
-865731
-865730
-865592
-865741
-865680
-865808
-865794
-865902
-865962
-866229
-866411
-866612
-866835
-867083
-867259
-867421
-867701
-867969
-868182
-868373
-868789
-868938
-869284
-869624
-869916
-870347
-870695
-871105
-871385
-871857
-872250
-872613
-873039
-873371
-873782
-874243
-874616
-875094
-875558
-876126
-876713
-877257
-877722
-878345
-878935
-879518
-880106
-880670
-881261
-881945
-882626
-883198
-883902
-884516
-885237
-886016
-886626
-887804
-888118
-888798
-889505
-890142
-890859
-891498
-892271
-892979
-893588
-894296
-894911
-895587
-896194
-896798
-897155
-897866
-898489
-899178
-899729
-900317
-900823
-901153
-901904
-902308
-902823
-903177
-903693
-904066
-904410
-904722
-905160
-905628
-905869
-906196
-906450
-906808
-907156
-907349
-907491
-907683
-907958
-908119
-908193
-908360
-908478
-908712
-908786
-908827
-908926
-909022
-909036
-909081
-909176
-909189
-909227
-909250
-909336
-909338
-909423
-909411
-909441
-909434
-909582
-909585
-909563
-909599
-909587
-909636
-909719
-909649
-909831
-909772
-909792
-909910
-910067
-910119
-910127
-910196
-910190
-910319
-910389
-910427
-910426
-910615
-910750
-910525
-910832
-910903
-911122
-911199
-911298
-911367
-911489
-911696
-911902
-912033
-912135
-912325
-912472
-912632
-912746
-912892
-913145
-913352
-913583
-913738
-914045
-914240
-914515
-914639
-914791
-915128
-915413
-915600
-915984
-916218
-916447
-916606
-916981
-917291
-917491
-917767
-918169
-918344
-919107
-919132
-919071
-919590
-919854
-920270
-920545
-920888
-921250
-921470
-921863
-922143
-922561
-922894
-923159
-923577
-923946
-924258
-924525
-924870
-925223
-925597
-925863
-926348
-926693
-926950
-927442
-927735
-928078
-928338
-928714
-929109
-929533
-929984
-930427
-930749
-931097
-931414
-931874
-932335
-932268
-932897
-933204
-933640
-934122
-934440
-934744
-935426
-935790
-935971
-936296
-936768
-937057
-937384
-937700
-938069
-938518
-939072
-939379
-939833
-940216
-940556
-940924
-941355
-941715
-941905
-942502
-942590
-943118
-943343
-943884
-944283
-944712
-945006
-945382
-945758
-945996
-946225
-946511
-946633
-946725
-946869
-946995
-946816
-947089
-946662
-946371
-945885
-945296
-944795
-944018
-943215
-942266
-941195
-940139
-938800
-937441
-935784
-934285
-932602
-930871
-929135
-927219
-925320
-923329
-921392
-919373
-917311
-915266
-913289
-911431
-909356
-907564
-905894
-904084
-902329
-900599
-898934
-897331
-895873
-894198
-892893
-891669
-890396
-889117
-888004
-886800
-885705
-884642
-883789
-882802
-881768
-880931
-880230
-879472
-878716
-877957
-877302
-876798
-876201
-875645
-875230
-874764
-874402
-873949
-873595
-873250
-873113
-872729
-872616
-872316
-872158
-872055
-872039
-871874
-871853
-871859
-871857
-871846
-871785
-871928
-872022
-872117
-872178
-872389
-872530
-872708
-872883
-873081
-873351
-873666
-873883
-874094
-874434
-874684
-874816
-875169
-875551
-875716
-876357
-876655
-877051
-877380
-877849
-878313
-878688
-879218
-879625
-880005
-880597
-881011
-881501
-882116
-882686
-883215
-883747
-884119
-884965
-885652
-886287
-886876
-887506
-888171
-888900
-889503
-890212
-890869
-891660
-892428
-893085
-893840
-894532
-895303
-895992
-896754
-897346
-897983
-898744
-899396
-900160
-900754
-901463
-902173
-902677
-903396
-903861
-904519
-905013
-905514
-906071
-906641
-907296
-907731
-908088
-908612
-909002
-909288
-909733
-910175
-910479
-910753
-911141
-911390
-911734
-911872
-912079
-912404
-912528
-912749
-912699
-912953
-913061
-913261
-913420
-913399
-913518
-913617
-913470
-914374
-913975
-913839
-913797
-913822
-913912
-914014
-913961
-914082
-913989
-914123
-914073
-913969
-914137
-914090
-914014
-914068
-914112
-914148
-914104
-914171
-914123
-914176
-914240
-914349
-914370
-914384
-914390
-914465
-914604
-914712
-914698
-915152
-914962
-915037
-915119
-915110
-915223
-915290
-915491
-915528
-915710
-915786
-915961
-916116
-916228
-916453
-916463
-916605
-916791
-917012
-917177
-917354
-917559
-917735
-917993
-918146
-918448
-918564
-918873
-918969
-919116
-919388
-919744
-919929
-920157
-920404
-920646
-920928
-921174
-921403
-921621
-921898
-922115
-922429
-922572
-922968
-923326
-923602
-923840
-924233
-924482
-924941
-925220
-925464
-925737
-926148
-926376
-926813
-927111
-927417
-927645
-928058
-928399
-928674
-928994
-929353
-929704
-930055
-930467
-930771
-931200
-931250
-931868
-932338
-932727
-933757
-933639
-933815
-934202
-934600
-934934
-935306
-935654
-935993
-936481
-936812
-937231
-937629
-937972
-938423
-938770
-939309
-939582
-939973
-940388
-940810
-941114
-941483
-941846
-942256
-942644
-943053
-943371
-943721
-943954
-944198
-944233
-944605
-944812
-945021
-945076
-945164
-944969
-944782
-944535
-944263
-943776
-943149
-942472
-941617
-940836
-939758
-938716
-937580
-936224
-935247
-933427
-931678
-929913
-928094
-926261
-924528
-922536
-920535
-918564
-916649
-915276
-912904
-910934
-908832
-907085
-905238
-903398
-901636
-899966
-898295
-896817
-895005
-893777
-892304
-890906
-889558
-888273
-887191
-885863
-884838
-883876
-882716
-881810
-880889
-879921
-879048
-878317
-877544
-876839
-876217
-875621
-874931
-875005
-873975
-873381
-872992
-872538
-872159
-871848
-871478
-871273
-870987
-870812
-870499
-870309
-870209
-870097
-870083
-869895
-870016
-869943
-869958
-870053
-870031
-870075
-870258
-870264
-870456
-870545
-870736
-870959
-871062
-871338
-871532
-871796
-871987
-872317
-872565
-872837
-873218
-873554
-873760
-874096
-874528
-874784
-875119
-875601
-875930
-876381
-876827
-877286
-877573
-878047
-878471
-878947
-879457
-879941
-880371
-880946
-881629
-882076
-882754
-883313
-883864
-884576
-885107
-885755
-886427
-887033
-887765
-888513
-889137
-889826
-890502
-891220
-891962
-892602
-893345
-894102
-894718
-895436
-896169
-896895
-897568
-898261
-898858
-899473
-900083
-900803
-901395
-902072
-902584
-903114
-903769
-904293
-904792
-905234
-905607
-906318
-906826
-907292
-907722
-907863
-908384
-908808
-909279
-909661
-909888
-910294
-910531
-910816
-911129
-911306
-911635
-911787
-911949
-912140
-912375
-912560
-912754
-912855
-912720
-913005
-913076
-913199
-913345
-913335
-913392
-913459
-913548
-913555
-913616
-913625
-913658
-913808
-913694
-913776
-913865
-913828
-913921
-913911
-913861
-913936
-913941
-913925
-913916
-913954
-914108
-914047
-914204
-914278
-914267
-914342
-914431
-914614
-914630
-914718
-914809
-914818
-914879
-915106
-915135
-915358
-915422
-915462
-915627
-915858
-915912
-916044
-916240
-916475
-916582
-916731
-916940
-917017
-917194
-917380
-917489
-917686
-917937
-918092
-918379
-918549
-918716
-918912
-919196
-919493
-919699
-919951
-920061
-920270
-920597
-920770
-921033
-921182
-921306
-921755
-922202
-922535
-922707
-923051
-923307
-923690
-923973
-924353
-924549
-924859
-925104
-925510
-925850
-926266
-926586
-926922
-927172
-927592
-927905
-928281
-928338
-928873
-929258
-929710
-930012
-930377
-930777
-931054
-931299
-931854
-932258
-932661
-932940
-933380
-933682
-934039
-934545
-934902
-935285
-935585
-935982
-936368
-936748
-937112
-937592
-937980
-938296
-938745
-939183
-939474
-939998
-940325
-940726
-941114
-941481
-941808
-942184
-942559
-942890
-943324
-943671
-944024
-944259
-944505
-944789
-945087
-945300
-945326
-945507
-945373
-945292
-945112
-944913
-944640
-944141
-943639
-942865
-942101
-941221
-940165
-939020
-937706
-936370
-934969
-933301
-931657
-929895
-928051
-926050
-924241
-922259
-920123
-918028
-916056
-913872
-911821
-909884
-907948
-905985
-904025
-902106
-900371
-898616
-896909
-895233
-893633
-892037
-890322
-889007
-887774
-886367
-885084
-883814
-882741
-881579
-880617
-879585
-878640
-877628
-876785
-875966
-875064
-874347
-873585
-872954
-872360
-871766
-871127
-870558
-870168
-869729
-869398
-869036
-868637
-868316
-867935
-867766
-867498
-867356
-867127
-866911
-866837
-866655
-866624
-866666
-866567
-866538
-866588
-866658
-866783
-866821
-866894
-867007
-867215
-867387
-867523
-867687
-867910
-868147
-868264
-868567
-868756
-869039
-869392
-869719
-869853
-869957
-870404
-870777
-871175
-871468
-871793
-872141
-872562
-872881
-873287
-873753
-873971
-874467
-874932
-875362
-875747
-876125
-876633
-877039
-877631
-878149
-878655
-879245
-879780
-880757
-881005
-881502
-882041
-882725
-883391
-883939
-884566
-885268
-886004
-886620
-887270
-887960
-888668
-889260
-889947
-890625
-891242
-892081
-892748
-893293
-894004
-894543
-895290
-895866
-896444
-897002
-897651
-897977
-898771
-899405
-899953
-900333
-900843
-901437
-902002
-902381
-902795
-903299
-903643
-904146
-904478
-904808
-905270
-905571
-905858
-906176
-906447
-906724
-907044
-907206
-907398
-907582
-907674
-907975
-908129
-908245
-908337
-908469
-908523
-908667
-908771
-908711
-908820
-908941
-908990
-909042
-909063
-909219
-909126
-909100
-909200
-909173
-909183
-909274
-909221
-909218
-909270
-909287
-909281
-909231
-909188
-909110
-909272
-909346
-909435
-909478
-909489
-909562
-909590
-909615
-909460
-909776
-909790
-909672
-909867
-909936
-910226
-910309
-910350
-910427
-910591
-910645
-910796
-910944
-911038
-911262
-911416
-911548
-911660
-911744
-912234
-912281
-912317
-912509
-912710
-912845
-913017
-913341
-913520
-913785
-913987
-914197
-914440
-914648
-914926
-915204
-915457
-915638
-915904
-916198
-916490
-916710
-916984
-917299
-917692
-917862
-918184
-918606
-918834
-919141
-919556
-919769
-920053
-920512
-920871
-921136
-921511
-921857
-922100
-922406
-922833
-923139
-923511
-923939
-924277
-924608
-925087
-925391
-925855
-926165
-926608
-926969
-927315
-927661
-928083
-928539
-928842
-929220
-929679
-929994
-930384
-930864
-931203
-931632
-932029
-932432
-932847
-933228
-933690
-933988
-934350
-934770
-935333
-935629
-936025
-936507
-936813
-937256
-937535
-937977
-938320
-938795
-939108
-939499
-939889
-940170
-940529
-940867
-941127
-941278
-941451
-941582
-941662
-941836
-941783
-941690
-941332
-941192
-940718
-940164
-939674
-939062
-938162
-937181
-936166
-934924
-933728
-932356
-930954
-929327
-927705
-925934
-924175
-922285
-920396
-918515
-916468
-914425
-912491
-910484
-908630
-906633
-904717
-902917
-901057
-899361
-897504
-895851
-894338
-892468
-891072
-889748
-888239
-886950
-885609
-884398
-883223
-882029
-880945
-879868
-878873
-877985
-877156
-876301
-875400
-874545
-873862
-873146
-872474
-871967
-871061
-870823
-870401
-869918
-869429
-869102
-868811
-868372
-868127
-867893
-867646
-867303
-867111
-866954
-866884
-866848
-866701
-866724
-866727
-866664
-866644
-866663
-866674
-866820
-866970
-867058
-867178
-867318
-867506
-867732
-868723
-868384
-868505
-868634
-868841
-869116
-869349
-869660
-870011
-870235
-870591
-870935
-871236
-871580
-871870
-872232
-872580
-873020
-873277
-873720
-874189
-874610
-874984
-875471
-875846
-876434
-876932
-877364
-878430
-878553
-878971
-879590
-880142
-880758
-881308
-881910
-882458
-883130
-883804
-884435
-885189
-885845
-886455
-887108
-887960
-888515
-889278
-889995
-890692
-891255
-891913
-892577
-893240
-893889
-894618
-895161
-896269
-896698
-897227
-897838
-898294
-898667
-899407
-900022
-900493
-900736
-901424
-902009
-902474
-902876
-903366
-903750
-904185
-904555
-904935
-905310
-905728
-906043
-906211
-906543
-906823
-907037
-907344
-907528
-907531
-907866
-908026
-908196
-908360
-908575
-908694
-908746
-908551
-908895
-909068
-909097
-909165
-909119
-909147
-909216
-909292
-909243
-909228
-909245
-909210
-909215
-909356
-909303
-909287
-909369
-909359
-909278
-909300
-909288
-909384
-909484
-909444
-909487
-909501
-909448
-909490
-909451
-909637
-909685
-909740
-909762
-909849
-909974
-910400
-910151
-910094
-910204
-910278
-910354
-910465
-910656
-910774
-910924
-911037
-911127
-911319
-911347
-911529
-911646
-911808
-912051
-912199
-912281
-912510
-912715
-913034
-913962
-913589
-913633
-913719
-913965
-914234
-914457
-914768
-915038
-915198
-915384
-915665
-915864
-916115
-916484
-916747
-916980
-917265
-918733
-919129
-919311
-919651
-920021
-920249
-920651
-921017
-921230
-921583
-921956
-922253
-922665
-923021
-923407
-923702
-924136
-924418
-924694
-925031
-925435
-925748
-926108
-926233
-926752
-927153
-927546
-928059
-928395
-928820
-929123
-929624
-929884
-930279
-930611
-931177
-931362
-931828
-932194
-932486
-933038
-933419
-933700
-934058
-934583
-935017
-935277
-935761
-936088
-936475
-936946
-937212
-937534
-937879
-938260
-938738
-939141
-939464
-939667
-939962
-940290
-940520
-940675
-940847
-940972
-941076
-941011
-940886
-940838
-940611
-940292
-939766
-939331
-939128
-938168
-937150
-936096
-935000
-933773
-932503
-931107
-929566
-928074
-926395
-924557
-922948
-920807
-919133
-917298
-915448
-913395
-911490
-909592
-907729
-905909
-904014
-902250
-900515
-898849
-897336
-895753
-894271
-892730
-891273
-889847
-888624
-887360
-886176
-884993
-883869
-882669
-881713
-880710
-879870
-878932
-878067
-877300
-876459
-875867
-875104
-874443
-873876
-873285
-872817
-872374
-871913
-871499
-871128
-870629
-870363
-870096
-869808
-869477
-869250
-869073
-869025
-868986
-868825
-868677
-868669
-868632
-868668
-868721
-868777
-868869
-868847
-869059
-869097
-869242
-869434
-869619
-869700
-869925
-870147
-870479
-870678
-870948
-871209
-871472
-871753
-872051
-872401
-872698
-872971
-873355
-873651
-873953
-874488
-874768
-875105
-875459
-875906
-876379
-876891
-877341
-877780
-878228
-878783
-879347
-879873
-880400
-880906
-881543
-882226
-882770
-883331
-884067
-884750
-885374
-885938
-886655
-887395
-888124
-888701
-889309
-889965
-890680
-891417
-892083
-892787
-893383
-894030
-894673
-895354
-895867
-896568
-897151
-897624
-898179
-898526
-899247
-899787
-900282
-900821
-901335
-901741
-902160
-902556
-902943
-903284
-903539
-903989
-904236
-904538
-904824
-904999
-905302
-905487
-905618
-905955
-906033
-906180
-906296
-906469
-906637
-906677
-906817
-906867
-906921
-907015
-906987
-907001
-907074
-907066
-907095
-906957
-907003
-907019
-906986
-907023
-907009
-907014
-907040
-906951
-907020
-906949
-906960
-906997
-906968
-907044
-907035
-907008
-906961
-906970
-906971
-907044
-907079
-907061
-907118
-907165
-907147
-907352
-907349
-907478
-907615
-907613
-907609
-907745
-907857
-907940
-908125
-908226
-908341
-908387
-908616
-908584
-908772
-908989
-909058
-909239
-909425
-909580
-909708
-909931
-910221
-910394
-910548
-910594
-910887
-911004
-911219
-911414
-911720
-911839
-912056
-912243
-912534
-912761
-913005
-913206
-913408
-913676
-913971
-914251
-914494
-914745
-915164
-915287
-915594
-915838
-916108
-916475
-916773
-917048
-917386
-917635
-917988
-918289
-918622
-918839
-919214
-919519
-919835
-920158
-920487
-920888
-921253
-921524
-921865
-922292
-922646
-922939
-923242
-923616
-923956
-924414
-924682
-925023
-925386
-925893
-926192
-926332
-926840
-927265
-927719
-928138
-928494
-928712
-929071
-929407
-929798
-930207
-930461
-930731
-931083
-931300
-931704
-931930
-932716
-932592
-932667
-932877
-932997
-933082
-933114
-933037
-932913
-932834
-932523
-932085
-931627
-931160
-930487
-929752
-928960
-927907
-926865
-925840
-924494
-923226
-921725
-920222
-918590
-916996
-915365
-913606
-911925
-910106
-908358
-906406
-904627
-902887
-901187
-899426
-897700
-895867
-894386
-892858
-891431
-889827
-888487
-887047
-885778
-884407
-883218
-881955
-880790
-879719
-878521
-877514
-876657
-875665
-875524
-874158
-873335
-872480
-871746
-870959
-870306
-869733
-869241
-868756
-868246
-867807
-867300
-866567
-866234
-865889
-865544
-865279
-865043
-864902
-864664
-864548
-864459
-864188
-864206
-864135
-864139
-864342
-864292
-864323
-864298
-864496
-865141
-864864
-864853
-864918
-865146
-865397
-865560
-865653
-865904
-866051
-866243
-866600
-866846
-867032
-867391
-867608
-867997
-868274
-868605
-868812
-869195
-869633
-869891
-870206
-870540
-870898
-871284
-871763
-872126
-872624
-873012
-873504
-874064
-874597
-875036
-875550
-876014
-876668
-877153
-877808
-878378
-879032
-879574
-880215
-880897
-881461
-882134
-882763
-883283
-883940
-884662
-885496
-886133
-886645
-887267
-888026
-888660
-889260
-889817
-890497
-891110
-891706
-892305
-892952
-893458
-894044
-894569
-895113
-895593
-896073
-896640
-897090
-897399
-897989
-898329
-898719
-899040
-899451
-899828
-900156
-900549
-900926
-901147
-901340
-901635
-901852
-902064
-902344
-902351
-902614
-902901
-903002
-903189
-903263
-903395
-903256
-903451
-903549
-903669
-903702
-903844
-903937
-903891
-903950
-904006
-903998
-904017
-903945
-904053
-904125
-904020
-904087
-904143
-904216
-904173
-904199
-904135
-904126
-904154
-904219
-904238
-904310
-904463
-904457
-904484
-904443
-904564
-904606
-904701
-904673
-904695
-904818
-904820
-904967
-905021
-905118
-905262
-905316
-905495
-905619
-905768
-905738
-905941
-906081
-906186
-906394
-906304
-906647
-906805
-906966
-907137
-907330
-907512
-907754
-907947
-908181
-908303
-908521
-908731
-908860
-909148
-909309
-909615
-909773
-910094
-910262
-910515
-910835
-910996
-911285
-911491
-911808
-912106
-912437
-912728
-912939
-913191
-913503
-913752
-914124
-914380
-914727
-914973
-915321
-915586
-915930
-916237
-916637
-916967
-917153
-917621
-917928
-918282
-918595
-918881
-919203
-919487
-919823
-920181
-920551
-920830
-921212
-921538
-921867
-922266
-922485
-922829
-923208
-923620
-924025
-924323
-924784
-925165
-925490
-925693
-926115
-926507
-926923
-927239
-927611
-928053
-928179
-928703
-929005
-929389
-929689
-929999
-930404
-930603
-930992
-931373
-931574
-931720
-932028
-932238
-932425
-932451
-932461
-932537
-932420
-932313
-931939
-931627
-931221
-930782
-930056
-929252
-928453
-927427
-926436
-925263
-923982
-922567
-921147
-919655
-917945
-916303
-914432
-912639
-910839
-908923
-907030
-905217
-903328
-901429
-899501
-897785
-896044
-894288
-892491
-890913
-889170
-887702
-886234
-884755
-883272
-881866
-880648
-879264
-877974
-877047
-875892
-874723
-873610
-872741
-871764
-870916
-870082
-869191
-868398
-867669
-866999
-866391
-866244
-865231
-864732
-864060
-863528
-863118
-862718
-862249
-861898
-861639
-861280
-860998
-860782
-860643
-860323
-860237
-860104
-859871
-859830
-859643
-859712
-859729
-860352
-859864
-859450
-859686
-859800
-859875
-859901
-860030
-860161
-860229
-860321
-860549
-860711
-860963
-861038
-861238
-861530
-861715
-861849
-862178
-862435
-862718
-862939
-863206
-863511
-863820
-864077
-864431
-864787
-865049
-865338
-865777
-866138
-866613
-866950
-867298
-867794
-868126
-868679
-869070
-869454
-869965
-870449
-870952
-871605
-872125
-872717
-873213
-873816
-874440
-875132
-875690
-876174
-876941
-877598
-878135
-878829
-879421
-880041
-880821
-881441
-881974
-882493
-883098
-883766
-884404
-885005
-885598
-886151
-886717
-887323
-887790
-888368
-888868
-889380
-889822
-890321
-890882
-891345
-891813
-892189
-892637
-893080
-893336
-893772
-894122
-894460
-894775
-895072
-895392
-895727
-896120
-896288
-896416
-896620
-896981
-897115
-897277
-897438
-897579
-897754
-897713
-897914
-898044
-898184
-898193
-898233
-898309
-898382
-898489
-898502
-898524
-898436
-898503
-898584
-898615
-898645
-898713
-898789
-898775
-898772
-898879
-898794
-898890
-898880
-898898
-898896
-898889
-898974
-899077
-899071
-899201
-899174
-899281
-899307
-899396
-899429
-899564
-899525
-899671
-899767
-899711
