PPG
-584003
-583982
-584257
-584495
-584674
-584766
-584769
-584798
-584787
-584660
-584768
-584805
-585015
-585164
-585309
-585521
-585533
-585369
-585410
-585346
-585463
-585565
-585639
-585755
-585924
-586032
-586063
-585918
-585867
-585915
-585961
-586019
-586114
-586230
-586330
-586295
-586393
-586312
-586279
-586245
-586244
-586277
-586332
-586532
-586654
-586736
-586785
-586703
-586589
-586620
-586752
-586828
-587046
-587306
-587404
-587591
-587566
-587492
-587480
-587560
-587633
-587670
-587645
-587797
-587936
-588002
-588009
-587886
-587758
-587797
-587744
-587760
-587798
-588018
-588153
-588097
-588082
-587888
-587815
-587737
-587779
-587824
-587926
-588000
-588110
-588204
-588178
-587991
-587863
-587902
-587924
-588020
-588018
-588251
-588278
-588291
-588378
-588198
-588159
-588215
-588138
-588178
-588316
-588458
-588616
-588623
-588549
-588480
-588432
-588363
-588496
-588527
-588592
-588725
-588915
-588965
-588871
-588827
-588696
-588798
-588885
-588983
-589066
-589285
-589549
-589626
-589657
-589582
-589512
-589493
-589537
-589634
-589793
-589913
-590019
-590074
-590135
-590097
-589983
-589970
-590052
-590057
-590206
-590376
-590467
-590545
-590509
-590428
-590391
-590330
-590450
-590487
-590562
-590789
-590984
-590974
-590933
-590827
-590708
-590796
-590904
-591492
-591173
-591279
-591308
-591373
-591393
-591339
-591170
-591212
-591279
-591391
-591653
-591781
-591920
-591865
-591836
-591846
-591906
-591928
-591991
-592039
-592215
-592459
-592512
-592462
-592393
-592292
-592356
-592420
-592422
-592575
-592735
-592826
-592793
-592788
-592624
-592627
-592745
-592841
-592836
-592884
-593038
-593226
-593197
-593170
-593161
-593077
-593144
-593139
-593239
-593392
-593494
-593629
-593558
-593590
-593469
-593417
-593461
-593521
-593474
-593536
-593678
-593772
-593835
-593778
-593697
-593567
-593596
-593678
-593670
-593764
-593870
-594023
-594057
-593919
-593801
-593684
-593564
-593574
-593572
-593498
-593528
-593498
-593338
-593121
-592896
-592492
-592209
-591984
-591601
-591356
-591090
-590860
-590439
-589880
-589402
-588935
-588459
-588116
-587728
-587370
-587190
-586865
-586401
-585911
-585509
-585048
-584741
-584495
-584199
-583996
-583748
-583620
-583326
-583037
-582822
-582518
-582436
-582234
-582022
-582128
-582038
-582077
-582009
-581866
-581788
-581692
-581674
-581736
-581925
-582180
-582260
-582291
-582276
-582253
-582225
-582272
-582360
-582459
-582645
-582820
-582901
-582995
-583005
-582933
-582972
-583059
-583078
-583204
-583271
-583454
-583555
-583507
-583594
-583462
-583445
-583326
-583320
-583293
-583440
-583563
-583636
-583675
-583580
-583480
-583350
-583391
-583392
-583469
-583530
-583679
-583830
-583910
-583797
-583796
-583815
-583776
-583881
-583968
-584069
-584268
-584475
-584496
-584366
-584374
-584273
-584288
-584374
-584444
-584615
-584803
-584933
-585065
-584979
-584976
-584847
-584994
-585064
-585235
-585428
-585625
-585534
-585586
-585565
-585525
-585543
-585657
-585672
-585834
-586041
-586065
-586103
-586043
-586089
-586001
-585953
-585973
-586011
-586213
-586328
-586373
-586443
-586261
-586260
-586152
-586156
-586228
-586211
-586193
-586280
-586422
-586371
-586278
-586163
-586068
-586070
-586101
-586128
-586148
-586326
-586316
-586387
-586323
-586140
-586170
-586260
-586291
-586302
-586477
-586717
-586762
-586871
-586852
-586777
-586746
-586833
-586926
-586947
-587105
-587332
-587441
-587373
-587212
-587150
-587205
-587212
-587195
-587160
-587246
-587361
-587461
-587411
-587315
-587161
-587046
-587088
-586985
-586926
-586947
-587124
-587231
-587058
-586992
-586923
-586816
-586882
-586935
-586927
-587144
-587177
-587373
-587524
-587463
-587437
-587431
-587507
-587566
-587651
-587771
-587976
-588225
-588186
-588128
-588103
-588029
-587987
-588125
-588159
-588247
-588458
-588540
-588495
-588406
-588328
-588290
-588295
-588237
-588275
-588436
-588597
-588614
-588550
-588606
-588523
-588381
-588383
-588418
-588429
-588566
-588824
-588993
-589113
-589146
-589089
-589199
-589288
-589260
-589374
-589588
-589734
-589836
-589871
-589780
-589749
-589642
-589698
-589791
-589767
-589897
-590066
-590282
-590278
-590152
-590053
-590065
-590108
-590163
-590307
-590415
-590575
-590523
-590431
-590329
-590204
-590260
-590304
-590336
-590432
-590460
-590509
-590386
-590215
-590069
-589937
-589818
-589725
-589528
-589392
-589386
-589153
-588845
-588529
-588125
-587765
-587361
-586887
-586672
-586377
-586230
-585988
-585503
-585064
-584583
-584095
-583618
-583275
-582947
-582708
-582449
-582229
-581815
-581425
-581047
-580719
-580522
-580286
-580075
-579887
-579934
-579806
-579674
-579359
-579307
-579104
-579081
-578901
-578891
-579022
-579054
-579228
-579116
-579081
-578982
-578965
-579013
-578978
-578972
-579180
-579370
-579442
-579432
-579381
-579271
-579307
-579340
-579435
-579515
-579633
-579729
-579908
-579895
-579834
-579877
-579876
-579846
-579931
-579887
-580051
-580190
-580280
-580267
-580135
-580206
-580171
-580163
-580237
-580242
-580382
-580471
-580514
-580545
-580434
-580443
-580486
-580527
-580518
-580503
-580608
-580778
-580850
-580931
-580782
-580735
-580741
-580791
-580767
-580766
-580848
-580896
-581127
-581069
-580969
-580855
-580907
-580906
-580940
-581035
-581231
-581327
-581487
-581484
-581434
-581455
-581508
-581494
-581651
-581619
-581907
-582159
-582220
-582268
-582309
-582235
-582272
-582345
-582385
-582313
-582499
-582624
-582687
-582752
-582576
-582607
-582606
-582577
-582611
-582577
-582684
-582874
-582998
-582906
-582777
-582781
-582642
-582646
-582661
-582624
-582814
-582892
-582984
-582944
-582752
-582827
-582741
-582709
-582778
-582747
-582999
-583093
-583136
-583090
-582879
-582855
-582803
-582845
-582902
-582897
-583119
-583262
-583355
-583301
-583220
-583134
-583082
-583208
-583187
-583184
-583287
-583410
-583500
-583445
-583385
-583388
-583315
-583367
-583394
-583475
-583662
-583848
-583879
-583920
-583838
-583893
-583969
-583988
-584005
-584066
-584311
-584512
-584599
-584528
-584439
-584340
-584344
-584451
-584445
-584601
-584806
-584879
-585082
-585117
-584828
-584841
-584905
-585009
-585044
-585111
-585279
-585412
-585527
-585486
-585387
-585352
-585467
-585420
-585495
-585500
-585740
-585888
-586071
-586000
-585933
-585785
-585817
-585864
-585911
-586133
-586269
-586376
-586356
-586189
-586149
-586179
-586258
-586282
-586394
-586531
-586705
-586854
-586831
-586748
-586745
-586836
-586884
-586874
-586972
-587300
-587353
-587508
-587561
-587601
-587639
-587865
-587994
-588032
-588021
-587922
-587942
-587868
-587924
-587946
-587949
-588113
-588320
-588351
-588266
-588149
-588076
-588049
-588064
-588067
-588164
-588186
-588297
-588176
-588020
-587798
-587683
-587603
-587381
-587237
-587193
-587127
-586925
-586673
-586341
-586030
-585514
-585183
-584715
-584332
-583924
-583615
-583232
-582882
-582313
-581752
-581271
-580775
-580330
-579972
-579614
-579244
-578973
-578558
-578185
-577700
-577217
-576846
-576527
-576192
-575941
-575783
-575640
-575415
-575080
-574827
-574466
-574326
-574176
-574120
-574047
-574106
-574072
-574057
-573910
-573770
-573697
-573611
-573605
-573703
-573789
-573912
-573968
-574021
-574005
-573836
-573782
-573846
-573894
-573952
-574073
-574297
-574346
-574336
-574341
-574236
-574267
-574153
-574308
-574387
-574484
-574807
-574928
-575020
-574973
-574831
-574823
-574889
-574949
-575021
-575153
-575229
-575385
-575360
-575328
-575234
-575195
-575241
-575236
-575190
-575304
-575394
-575493
-575494
-575396
-575266
-575238
-575257
-575299
-575407
-575593
-575722
-575696
-575612
-575651
-575583
-575597
-575706
-575870
-576023
-576212
-576410
-576514
-576478
-576418
-576475
-576530
-576658
-576829
-576985
-577178
-577288
-577277
-577349
-577387
-577256
-577278
-577407
-577423
-577706
-577794
-577937
-577833
-577866
-577675
-577673
-577751
-577759
-577860
-577963
-577912
-578015
-577908
-577760
-577761
-577750
-577729
-577656
-577770
-577842
-577787
-577774
-577590
-577442
-577391
-577313
-577337
-577326
-577500
-577642
-577679
-577700
-577384
-577466
-577366
-577473
-577477
-577557
-577612
-577846
-577886
-577875
-577805
-577706
-577642
-577675
-577669
-577743
-577904
-578020
-578138
-578131
-578002
-577960
-577865
-577902
-577951
-577966
-578132
-578253
-578316
-578202
-578151
-577993
-577937
-577878
-577966
-577969
-578082
-578266
-578399
-578390
-578343
-578322
-578162
-578221
-578196
-578257
-578431
-578581
-578726
-578833
-578753
-578694
-578708
-578840
-578976
-579040
-579198
-579376
-579426
-579435
-579446
-579490
-579383
-579489
-579512
-579593
-579775
-579932
-580108
-580121
-579986
-580013
-579981
-580030
-580149
-580234
-580329
-580563
-580684
-580743
-580684
-580606
-580578
-580542
-580609
-580777
-580900
-581073
-581228
-581177
-581185
-581061
-580981
-580974
-581043
-581057
-581102
-581383
-581435
-581461
-581316
-581336
-581361
-581387
-581394
-581381
-581497
-581629
-581805
-581759
-581681
-581726
-581639
-581582
-581728
-581768
-581816
-582031
-582075
-582124
-582036
-582015
-581984
-582064
-582104
-582082
-582214
-582408
-582523
-582568
-582450
-582311
-582344
-582378
-582425
-582382
-582534
-582697
-582926
-582841
-582870
-582840
-582739
-582808
-582801
-582916
-583034
-583113
-583155
-583186
-583177
-583113
-583059
-583078
-582959
-583042
-582984
-583094
-583108
-582930
-582782
-582569
-582237
-582044
-581844
-581444
-581377
-581251
-580935
-580481
-580020
-579586
-579142
-578739
-578326
-577880
-577529
-577249
-576886
-576738
-576053
-575449
-574985
-574750
-574325
-573965
-573709
-573529
-573320
-572935
-572592
-572214
-571927
-571731
-571479
-571318
-571164
-571050
-571001
-570826
-570621
-570385
-570248
-570242
-570161
-570042
-570047
-570120
-570045
-569896
-569871
-569786
-569796
-569857
-569929
-570018
-570189
-570307
-570258
-570194
-570161
-570124
-570166
-570275
-570160
-570376
-570527
-570682
-570645
-570629
-570525
-570593
-570609
-570644
-570720
-570804
-571015
-571028
-571044
-570960
-571021
-570727
-570879
-570871
-571085
-571249
-571341
-571363
-571328
-571347
-571308
-571345
-571398
-571451
-571501
-571735
-571867
-571961
-571995
-571870
-572017
-572043
-572223
-572304
-572382
-572489
-572749
-572886
-572903
-572893
-572859
-572925
-573048
-573152
-573275
-573504
-573628
-573781
-573904
-573802
-573888
-573903
-573971
-574069
-574154
-574332
-574574
-574744
-574735
-574699
-574676
-574736
-574687
-574804
-574809
-574873
-575004
-575109
-575159
-575094
-575106
-574997
-575040
-575076
-575089
-575166
-575294
-575412
-575332
-575184
-575000
-575074
-575592
-575234
-575053
-575099
-575167
-575277
-575294
-575077
-574972
-574887
-574925
-574871
-574873
-575025
-575044
-575108
-575078
-574992
-574860
-574853
-574907
-574863
-574847
-574975
-575101
-575170
-575243
-575091
-575036
-575051
-575127
-575140
-575147
-575343
-575413
-575580
-575518
-575417
-575354
-575337
-575390
-575368
-575404
-575559
-575592
-575665
-575596
-575526
-575493
-575457
-575480
-575424
-575864
-575832
-575869
-575969
-576005
-575961
-575883
-575886
-575964
-575998
-576041
-576266
-576464
-576563
-576525
-576460
-576619
-576647
-576734
-576920
-576968
-576894
-576782
-576764
-576858
-576920
-576936
-576991
-577125
-577238
-577307
-577266
-577174
-577071
-577116
-577201
-577568
-577249
-577344
-577467
-577620
-577557
-577488
-577463
-577339
-577371
-577413
-577515
-577675
-577772
-577838
-577862
-577773
-577787
-577671
-577813
-577747
-577787
-578010
-578221
-578354
-578364
-578375
-578254
-578199
-578368
-578456
-578467
-578612
-578825
-579022
-579026
-578913
-578847
-578866
-579039
-579029
-579120
-579278
-579521
-579681
-579641
-579503
-579561
-579609
-579758
-579791
-579934
-580125
-580301
-580406
-580440
-580411
-580400
-580356
-580486
-580549
-580593
-580882
-581034
-581148
-581480
-581115
-581055
-581051
-581056
-581133
-581270
-581505
-581556
-581760
-581651
-581554
-581577
-581646
-581696
-581778
-581824
-581973
-582084
-582289
-582216
-582141
-582104
-581972
-582006
-582056
-581961
-582122
-582209
-582123
-582023
-581691
-581475
-581241
-581015
-580741
-580535
-580405
-580051
-579792
-579396
-578847
-578317
-577827
-577423
-576997
-576518
-576265
-575867
-575501
-574940
-574351
-573952
-573381
-573069
-572674
-572363
-572128
-571919
-571525
-571225
-570897
-570561
-570292
-570106
-569824
-569736
-569726
-569597
-569560
-569403
-569155
-568942
-568870
-568895
-568855
-568821
-568934
-569051
-569041
-568986
-568838
-568763
-568806
-568832
-568826
-568902
-569119
-569192
-569270
-569273
-569155
-569087
-569083
-569117
-569146
-569019
-569301
-569429
-569496
-569424
-569419
-569275
-569413
-569480
-569504
-569588
-569829
-570126
-570183
-570140
-570002
-569968
-570041
-570060
-570045
-570172
-570293
-570439
-570399
-570411
-570331
-570290
-570179
-570191
-570221
-570274
-570447
-570473
-570457
-570342
-570126
-570033
-569876
-569972
-570006
-569890
-569993
-570096
-570140
-569983
-569834
-569780
-569880
-570013
-570087
-570249
-570400
-570602
-570650
-570717
-570621
-570607
-570624
-570728
-570837
-570938
-571121
-571275
-571542
-571399
-571262
-571187
-571155
-571232
-571239
-571377
-571588
-571743
-571736
-571681
-571601
-571599
-571668
-571675
-571738
-571939
-572039
-572075
-572026
-571935
-571898
-571996
-571938
-572007
-572137
-572303
-572393
-572430
-572311
-572163
-572178
-572223
-572230
-572260
-572406
-572567
-572653
-572668
-572687
-572567
-572553
-572636
-572674
-572763
-572927
-573115
-573227
-573261
-573525
-573236
-573061
-573106
-573151
-573169
-573319
-573580
-573634
-573709
-573545
-573507
-573582
-573539
-573521
-573828
-573811
-573917
-573900
-573929
-573891
-573816
-573773
-573717
-573835
-573815
-573927
-574138
-574192
-574257
-574124
-574050
-573900
-574099
-574243
-574251
-574290
-574505
-574581
-574690
-574626
-574592
-574550
-574610
-574608
-574678
-574859
-575002
-575095
-575159
-575081
-574999
-574941
-574927
-575019
-574987
-575059
-575303
-575379
-575315
-575225
-575087
-574977
-575420
-575169
-575131
-575099
-575279
-575387
-575419
-575413
-575376
-575318
-575440
-575450
-575470
-575593
-575842
-575853
-575941
-575837
-575779
-575729
-575874
-575881
-575886
-575997
-576156
-576275
-576326
-576286
-576312
-576326
-576339
-576280
-576409
-576604
-576722
-576924
-576936
-576824
-576765
-576673
-576747
-576769
-576888
-577048
-577166
-577267
-577287
-577214
-577165
-577079
-577074
-577106
-577137
-577204
-577276
-577385
-577412
-577367
-577337
-577385
-577300
-577341
-577481
-577636
-577779
-577834
-577937
-577876
-577844
-577855
-577920
-577925
-578087
-578293
-578463
-578618
-578709
-578661
-578667
-578754
-578766
-578816
-578992
-579135
-579317
-579473
-579571
-579513
-579540
-579621
-579635
-579705
-579794
-579890
-580103
-580178
-580349
-580258
-580241
-580281
-580333
-580340
-580439
-580458
-580575
-580691
-580552
-580360
-580225
-580036
-579906
-579723
-579449
-579302
-579229
-578945
-578626
-578065
-577748
-577295
-576941
-576567
-576173
-575789
-575460
-575151
-574719
-574255
-573811
-573285
-572913
-572611
-572303
-571984
-571867
-571561
-571233
-570901
-570532
-570263
-569978
-569792
-569427
-569529
-569552
-569490
-569379
-569194
-569069
-568935
-568881
-568880
-568855
-568974
-569126
-569220
-569140
-569083
-569085
-569069
-569083
-569127
-569080
-569217
-569358
-569483
-569417
-569325
-569326
-569313
-569254
-569438
-569435
-569603
-569794
-569912
-569859
-569885
-569874
-569759
-569783
-569661
-569890
-570052
-570232
-570262
-570316
-570138
-570102
-570039
-570049
-570171
-570093
-570250
-570520
-570636
-570606
-570544
-570380
-570370
-570404
-570431
-570501
-570703
-570894
-571024
-571113
-570974
-570924
-570885
-570923
-570979
-571004
-571198
-571453
-571598
-571606
-571479
-571427
-571475
-571492
-571572
-571544
-571691
-571964
-572140
-572180
-572114
-572079
-572052
-572147
-572269
-572355
-572503
-572869
-572963
-572919
-572803
-572805
-572696
-572808
-572922
-572868
-573062
-573293
-573399
-573442
-573301
-573286
-573226
-573156
-573365
-573438
-573622
-573931
-574165
-574046
-573949
-573805
-573730
-573809
-573866
-573852
-574020
-574114
-574179
-574020
-573912
-573802
-573638
-573698
-573706
-574076
-573955
-573959
-573825
-573841
-573737
-573638
-573533
-573434
-573328
-573257
-573309
-573475
-573389
-573228
-573118
-573122
-573276
-573476
-573422
-573259
-573222
-573302
-573376
-573431
-573517
-573729
-573977
-574140
-574068
-573917
-573908
-573959
-573891
-573959
-574261
-574384
-574548
-574553
-574415
-574324
-574233
-574224
-574188
-574211
-574464
-574560
-574598
-574565
-574269
-574279
-574166
-574139
-573997
-573905
-573789
-573865
-573668
-573550
-573289
-573034
-572901
-572868
-572880
-572819
-573052
-573184
-573227
-573109
-572959
-572831
-572825
-572830
-572868
-572910
-573098
-573359
-573944
-573560
-573506
-573352
-573440
-573561
-573689
-573755
-573892
-574146
-574239
-574277
-574226
-574321
-574317
-574275
-574349
-574421
-574552
-575060
-574941
-574815
-574677
-574591
-574572
-574624
-574757
-574842
-575023
-575134
-575272
-575213
-575101
-575087
-575054
-575118
-575112
-575197
-575378
-575463
-575502
-575510
-575477
-575510
-575561
-575588
-575631
-575519
-575766
-575970
-576010
-575983
-575923
-575904
-575921
-575945
-576036
-576017
-576318
-576478
-576567
-576579
-576901
-576645
-576552
-576701
-576819
-576839
-577100
-577270
-577426
-577419
-577499
-577471
-577525
-577705
-577832
-577989
-578307
-578573
-578689
-578708
-578769
-578812
-578948
-579090
-579325
-579502
-579832
-580093
-580354
-580585
-580569
-580593
-580842
-580987
-581204
-581364
-581551
-581737
-581919
-581916
-581708
-582006
-582005
-581953
-582030
-581956
-582075
-582110
-582045
-581784
-581564
-581202
-580936
-580690
-580317
-580173
-580071
-579793
-579427
-579099
-578558
-578018
-577529
-577106
-576685
-576196
-575852
-575469
-575147
-574669
-573918
-573379
-572813
-572373
-571928
-571519
-571286
-571094
-570757
-570379
-569947
-569620
-569420
-569199
-568961
-568837
-568768
-568769
-568728
-568547
-568417
-568256
-568078
-568073
-568118
-568098
-568295
-568331
-568462
-568335
-568257
-568279
-568310
-568421
-568430
-568605
-568818
-569052
-569151
-569230
-569153
-569177
-569343
-569430
-569552
-569663
-569966
-570088
-570224
-570050
-570018
-570058
-570098
-570054
-570115
-570069
-570168
-570149
-570062
-569921
-569731
-569594
-569541
-569514
-569388
-569352
-569422
-569415
-569396
-569351
-569275
-569185
-569333
-569368
-569505
-569612
-569959
-570168
-570353
-570489
-570619
-570627
-570845
-571154
-571226
-571503
-571742
-572051
-572165
-572289
-572380
-572353
-572503
-572710
-572801
-572977
-573172
-573278
-573434
-573502
-573389
-573338
-573428
-573489
-573629
-573736
-573940
-574085
-574093
-574037
-573971
-573830
-573841
-573875
-573757
-573721
-573766
-573741
-573737
-573495
-573297
-573062
-572919
-572744
-572691
-572611
-572596
-572645
-572318
-572133
-572143
-572004
-571947
-571958
-571921
-571907
-572001
-572020
-571999
-571906
-571853
-571649
-571653
-571699
-571708
-571806
-571970
-572035
-572068
-572130
-572034
-571996
-572099
-572169
-572243
-572472
-572783
-572977
-573102
-573189
-573276
-573382
-573722
-573919
-574125
-574422
-574810
-575086
-575262
-575464
-575572
-575660
-575672
-575777
-575942
-576087
-576206
-576344
-576402
-576470
-576414
-576409
-576423
-576524
-576564
-576628
-576765
-576956
-576880
-576850
-576800
-576666
-576774
-576802
-576873
-576960
-577118
-577028
-576959
-576866
-576649
-576409
-576351
-576311
-576202
-576213
-576234
-576277
-576279
-576190
-576037
-575984
-575813
-575925
-576034
-576079
-576223
-576417
-576464
-576364
-576473
-576383
-576486
-576563
-576669
-576795
-577006
-577100
-577101
-577062
-576927
-576863
-576852
-576869
-576831
-576794
-576729
-576815
-576637
-576460
-576343
-576509
-576614
-576659
-576684
-576823
-576941
-577029
-577095
-576852
-576962
-576952
-577025
-577117
-577131
-577305
-577498
-577635
-577771
-577850
-577808
-578026
-578055
-578658
-578556
-578769
-579099
-579291
-579478
-579541
-579718
-579861
-579948
-580049
-580228
-580471
-580771
-580918
-581054
-580982
-580987
-581111
-581192
-581349
-581397
-581562
-581764
-581886
-581969
-581908
-581906
-582009
-582099
-582187
-582343
-582493
-582667
-582870
-582958
-582989
-582986
-582949
-582981
-583070
-583057
-583171
-583262
-583363
-583218
-583042
-582975
-582849
-582859
-582870
-582906
-582833
-582831
-582688
-582509
-582141
-581936
-581757
-581590
-581239
-581057
-580997
-580655
-580439
-580001
-579759
-579312
-578954
-578699
-578426
-578181
-577872
-577676
-577285
-576864
-576519
-575975
-575828
-575495
-575144
-574967
-574835
-574727
-574485
-574126
-573812
-573419
-573644
-573172
-572986
-572939
-572860
-572900
-572610
-572490
-572487
-572298
-572271
-572254
-572202
-572255
-572383
-572410
-572499
-572407
-572329
-572288
-572329
-572401
-572472
-572600
-572873
-573064
-573076
-573121
-573233
-573225
-573477
-573548
-573874
-574024
-574420
-574675
-574768
-574728
-574888
-574969
-575032
-575094
-575133
-575319
-575487
-575654
-575611
-575603
-575553
-575811
-576086
-575866
-575720
-575681
-575576
-575617
-575510
-575524
-575640
-575835
-575927
-575861
-575809
-575768
-575717
-575726
-575774
-575784
-576006
-576145
-576247
-576262
-576240
-576228
-576091
-576242
-576300
-576456
-576524
-576794
-576792
-576820
-576785
-576733
-576798
-576871
-576973
-576924
-577066
-577310
-577344
-577154
-577188
-577153
-577553
-577201
-577067
-576822
-576930
-577068
-576980
-576846
-576731
-576603
-576463
-576466
-576544
-576471
-576631
-576836
-576794
-576821
-576724
-576757
-576798
-576844
-576994
-577133
-577304
-577550
-577691
-577850
-577861
-577851
-577864
-578015
-578039
-578203
-578351
-578525
-578598
-578653
-578442
-578466
-578540
-578640
-578712
-578819
-578927
-578982
-579027
-578872
-578886
-578835
-578786
-578868
-578836
-578944
-578957
-578992
-578953
-578840
-578803
-578694
-578826
-578794
-578683
-578752
-578685
-578890
-578860
-578797
-578688
-578623
-578500
-578565
-578635
-578711
-578812
-578854
-578835
-578721
-578645
-578591
-578619
-578615
-578606
-578756
-578892
-579174
-578890
-578807
-578763
-578736
-578695
-578781
-578898
-579071
-579179
-579294
-579326
-579282
-579377
-579395
-579806
-579645
-579713
-579835
-580056
-580101
-580143
-579960
-580022
-579938
-579922
-579921
-579849
-579897
-579957
-579819
-579821
-579582
-579544
-579494
-579530
-579709
-579860
-580028
-580196
-580409
-580381
-580420
-580455
-580432
-580605
-580633
-580766
-580983
-581134
-581371
-581451
-581460
-581572
-581745
-581935
-581988
-582231
-582572
-582912
-583211
-583435
-583709
-583874
-584163
-584442
-584749
-584878
-585321
-585613
-585815
-585880
-586019
-586029
-586145
-586260
-586328
-586443
-586581
-586760
-586852
-586806
-586677
-586672
-586708
-586767
-586709
-586712
-586740
-586810
-586779
-586543
-586382
-586025
-585756
-585548
-585238
-584941
-584795
-584477
-584120
-583628
-583110
-582378
-581946
-581548
-581247
-580854
-580531
-580269
-579939
-579427
-578881
-578403
-577968
-577664
-577322
-576982
-576731
-576443
-576187
-575849
-575540
-575222
-574921
-574787
-574546
-574494
-574451
-574487
-574452
-574369
-574198
-574221
-574216
-574324
-574453
-574661
-574938
-575271
-575460
-575565
-575720
-575708
-575941
-576126
-576273
-576442
-576705
-576790
-576994
-577498
-577057
-577012
-577049
-577036
-577068
-577203
-577435
-577521
-577553
-577510
-577478
-577403
-577484
-577442
-577551
-577677
-577827
-577963
-577977
-577948
-577909
-577936
-577884
-577886
-577799
-577851
-577924
-577972
-578107
-578016
-577896
-577697
-577732
-577676
-577601
-577526
-577519
-577464
-577437
-577250
-577083
-576972
-576895
-576898
-576797
-576853
-577031
-577108
-577124
-577056
-576930
-576791
-576851
-576776
-576710
-576856
-576893
-577080
-577181
-577242
-577118
-577037
-577093
-577062
-577117
-577208
-577424
-577627
-577772
-577799
-577835
-577908
-577990
-578046
-578214
-578480
-578830
-579048
-579360
-579471
-579588
-579725
-579952
-580165
-580432
-580572
-580853
-580968
-580838
-581006
-581044
-580982
-581108
-581177
-581381
-581459
-581631
-581803
-581974
-582022
-581899
-581846
-581851
-581937
-581970
-582113
-582274
-582157
-582432
-582389
-582245
-582201
-582202
-582128
-582116
-582211
-582326
-582568
-582438
-582328
-582555
-582108
-582026
-582025
-582046
-581955
-581982
-581920
-581845
-581712
-581461
-581257
-581055
-581025
-580853
-580790
-580868
-580899
-580923
-580914
-580792
-580672
-580609
-580628
-580634
-580723
-580826
-580870
-580923
-580886
-580679
-580588
-580532
-580518
-580513
-580626
-580745
-580751
-580774
-580766
-580678
-580593
-580591
-580643
-580507
-580678
-580886
-580964
-580901
-580873
-580759
-580754
-580786
-580765
-580697
-580901
-581149
-581204
-581195
-581277
-581208
-580900
-581064
-581152
-581240
-581389
-581595
-581666
-581680
-581794
-581772
-581793
-581775
-581960
-582080
-582179
-582241
-582475
-582505
-582397
-582356
-582152
-582164
-582115
-582175
-582243
-582314
-582420
-582606
-582568
-582505
-582203
-582403
-582434
-582574
-582722
-582903
-582965
-583034
-583048
-582938
-582900
-582954
-583113
-583164
-583430
-583663
-583938
-584021
-584072
-584178
-584320
-584466
-584643
-584854
-585033
-585356
-585984
-585865
-585793
-585848
-585838
-585941
-586073
-586082
-586396
-586490
-586631
-586665
-586656
-586637
-586546
-586461
-586528
-586553
-586644
-586622
-586647
-586540
-586305
-586034
-585877
-585587
-585335
-585144
-584882
-584698
-584419
-584120
-583732
-583302
-582814
-582537
-582093
-581722
-581532
-581325
-581071
-580730
-580292
-579892
-579449
-579094
-578818
-578496
-578302
-578245
-578106
-577814
-577591
-577329
-577144
-577119
-577049
-577041
-577319
-577765
-577738
-577782
-577762
-577781
-577717
-577636
-577663
-577777
-577989
-578070
-578266
-578279
-578156
-578087
-578094
-578102
-578139
-578269
-578497
-578657
-578396
-578380
-578288
-578133
-578121
-578466
-578536
-578461
-578493
-578504
-578517
-578657
-578870
-579233
-579355
-579301
-579282
-579233
-579319
-579395
-579553
-579762
-580012
-580225
-580380
-580318
-580371
-580426
-580541
-580583
-580708
-581283
-581221
-581339
-581397
-581381
-581384
-581282
-581317
-581388
-581391
-581509
-581698
-581900
-581795
-581793
-581763
-581696
-581649
-581604
-581696
-581706
-581832
-581783
-581701
-581567
-581367
-581193
-581160
-581018
-580885
-580852
-580911
-580811
-580711
-580628
-580522
-580408
-580435
-580440
-580514
-580561
-580662
-580815
-580731
-580726
-580684
-580658
-580588
-580679
-580690
-580786
-580941
-581122
-581081
-580981
-581018
-581005
-580927
-581117
-581104
-581177
-581358
-581597
-581643
-581617
-581599
-581536
-581497
-581613
-581656
-581921
-582068
-582285
-582272
-582229
-582291
-582358
-582380
-582511
-582636
-582937
-583070
-583155
-583071
-583142
-583432
-583326
-583320
-583436
-583568
-583782
-583930
-583917
-583960
-583822
-583951
-584076
-584168
-584269
-584557
-584714
-584718
-584642
-584648
-584580
-584633
-584734
-584742
-584890
-585120
-585327
-585180
-585322
-585318
-585411
-585503
-585708
-585807
-585985
-586288
-586536
-586561
-586538
-586606
-586682
-586809
-586815
-586910
-587127
-587281
-587238
-587386
-587502
-587421
-587321
-587450
-587532
-587606
-587724
-587895
-588015
-587916
-587847
-587765
-587585
-587732
-587803
-587725
-587787
-587956
-587961
-587851
-587825
-587705
-587676
-587604
-587690
-587721
-587715
-587868
-587959
-587822
-587439
-587589
-587590
-587634
-587688
-587749
-587869
-588082
-588201
-588168
-588175
-588240
-588208
-588253
-588401
-588526
-588777
-589044
-589289
-589313
-589389
-589416
-589450
-589612
-589794
-589894
-590151
-590347
-590421
-590487
-590394
-590243
-590271
-590136
-590218
-590159
-590221
-590262
-590237
-590158
-589909
-589585
-589266
-589005
-588758
-588443
-588321
-588086
-588165
-587391
-586977
-586575
-586163
-585881
-585520
-585199
-584946
-584798
-584633
-584264
-583854
-583504
-583242
-583043
-582753
-582619
-582554
-582480
-582532
-582314
-582116
-581994
-581866
-581843
-581726
-581611
-581619
-581786
-581942
-581833
-581690
-581689
-581650
-581586
-581670
-581863
-582044
-582125
-582095
-581963
-581834
-581775
-581760
-581787
-581788
-581937
-582049
-582143
-582299
-582231
-582235
-582320
-582419
-582482
-582681
-582952
-583185
-583363
-583501
-583546
-583494
-583669
-583866
-584035
-584118
-584331
-584559
-584798
-584919
-584992
-584960
-585042
-585110
-585018
-585300
-585472
-585745
-585812
-585859
-585799
-585780
-585816
-585838
-585826
-585902
-585951
-586124
-586189
-586069
-585921
-585907
-585899
-585814
-585797
-586188
-585991
-586065
-586099
-586070
-585970
-585914
-585865
-585926
-585931
-586135
-586349
-586514
-586768
-586859
-586826
-586909
-587026
-587186
-587265
-587378
-587613
-587784
-587919
-587889
-587883
-587759
-587751
-587786
-587798
-587920
-588094
-588252
-588436
-588366
-588363
-588309
-588398
-588415
-588495
-588519
-588784
-588838
-588857
-588816
-588725
-588515
-588662
-588705
-589010
-588858
-589022
-589060
-589147
-589080
-589075
-589008
-589005
-589036
-589163
-589181
-589271
-589377
-589386
-589364
-589212
-589197
-589049
-588965
-588921
-588889
-588861
-588958
-588855
-588806
-588703
-588515
-588465
-588548
-588561
-588616
-588806
-588871
-588986
-589156
-589070
-589083
-589113
-589291
-589368
-589479
-589650
-589782
-589922
-589898
-589794
-589806
-589821
-589864
-589863
-589987
-590186
-590351
-590354
-590381
-590325
-590403
-590459
-590556
-590679
-590696
-590956
-591080
-591135
-591230
-591257
-591115
-591092
-591336
-591352
-591446
-591635
-591802
-591832
-591783
-591717
-591734
-591679
-591781
-591819
-591903
-592087
-592213
-592262
-592257
-592212
-592283
-592345
-592435
-592557
-592641
-592827
-592974
-593041
-593213
-593052
-592990
-592987
-593101
-592951
-593217
-593343
-593345
-593616
-593633
-593583
-593604
-593632
-593666
-593834
-593996
-594108
-594407
-594488
-594529
-594573
-594529
-594698
-594815
-594913
-594990
-595215
-595254
-595330
-595382
-595330
-595219
-595155
-595068
-595155
-595078
-595174
-595184
-595073
-594941
-594590
-594387
-594155
-593975
-593707
-593429
-593234
-593079
-592761
-592466
-592422
-591791
-591377
-591054
-590768
-590527
-590286
-590164
-589853
-589577
-589198
-588886
-588630
-588306
-588197
-587928
-587911
-587835
-587744
-587545
-587288
-587080
-586941
-586869
-586765
-586814
-586824
-586827
-586758
-586684
-586565
-586435
-586424
-586346
-586389
-586581
-586564
-586686
-586725
-586656
-586572
-586581
-586550
-586593
-586643
-586759
-586962
-587042
-587188
-587229
-587622
-587804
-588027
-588085
-588212
-588255
-588302
-588411
-588497
-588639
-588810
-589019
-589212
-589331
-589367
-589344
-589404
-589468
-589541
-589624
-589792
-589962
-590045
-590109
-590029
-590030
-589958
-589910
-589957
-590124
-590235
-590357
-590437
-590461
-590385
-590354
-590404
-590424
-590499
-590645
-590809
-591004
-591164
-591225
-591242
-591128
-591068
-591118
-591193
-591236
-591427
-591551
-591634
-591738
-591630
-591593
-591549
-591635
-591652
-591748
-591959
-592141
-592146
-592200
-592314
-592171
-592176
-592253
-592359
-592371
-592484
-592763
-592904
-592979
-592925
-592971
-592906
-592969
-593076
-593225
-593288
-593459
-593495
-593522
-593489
-593408
-593356
-593352
-593348
-593365
-593436
-593587
-593662
-593678
-593651
-593507
-593491
-593538
-593610
-593719
-593701
-593837
-594005
-594110
-594003
-593869
-593874
-593937
-593989
-593993
-594145
-594316
-594447
-594457
-594463
-594449
-594407
-594380
-594343
-594442
-594546
-594717
-594868
-595204
-595006
-594961
-594982
-594937
-594943
-594993
-595108
-595254
-595461
-595479
-595403
-595345
-595256
-595317
-595348
-595353
-595509
-595673
-595797
-595864
-595751
-595722
-595645
-595755
-595729
-595907
-595944
-596226
-596352
-596399
-596321
-596307
-596393
-596394
-596470
-596539
-596694
-596871
-597068
-597139
-597004
-596967
-596954
-596934
-597102
-597121
-597192
-597300
-597550
-597654
-597632
-597600
-597568
-597587
-597646
-597773
-597916
-598054
-598242
-598322
-598241
-598202
-598178
-598208
-598239
-598326
-598431
-598582
-598745
-598879
-598834
-598759
-598715
-598799
-598762
-598876
-598939
-599085
-599262
-599365
-599297
-599271
-599170
-599138
-599078
-599163
-599245
-599252
-599326
-599219
-599104
-598720
-598582
-598408
-598169
-597946
-597779
-597773
-597581
-597226
-596846
-596474
-596018
-595732
-595500
-595162
-594937
-594779
-594559
-594222
-593780
-593414
-592983
-592656
-592393
-592103
-591937
-591891
-591734
-591486
-591132
-590860
-590582
-590394
-590231
-589950
-589858
-589853
-589843
-589630
-589393
-589264
-589038
-589073
-588951
-588959
-589058
-589240
-589415
-589512
-589540
-589500
-589351
-589418
-589514
-589489
-589615
-589691
-589704
-589547
-589189
-589043
-588824
-588764
-588807
-588851
-589001
-589200
-589402
-589394
-589384
-589432
-589459
-589418
-589755
-590117
-590481
-590990
-591270
-591374
-591345
-591524
-591371
-591416
-591506
-591642
-591808
-592042
-592203
-592139
-592137
-592046
-591959
-591963
-592038
-591963
-592044
-592109
-592095
-591960
-591754
-591647
-591525
-591423
-591545
-591473
-591632
-591849
-592128
-592096
-591935
-591964
-591916
-592005
-592098
-592115
-592205
-592447
-592711
-592646
-592746
-592560
-592554
-592708
-592712
-592731
-592763
-592998
-593043
-593092
-592995
-592918
-592898
-592984
-593001
-593129
-593255
-593527
-593758
-593721
-593669
-593718
-593657
-593659
-593800
-593753
-593973
-594159
-594281
-594248
-594328
-594221
-594135
-594127
-594164
-594113
-594143
-594307
-594298
-594164
-594026
-593989
-593819
-593798
-593826
-593754
-593795
-594019
-594010
-593971
-593886
-593797
-593847
-593846
-593827
-593888
-594032
-594192
-594193
-594179
-594090
-593946
-593949
-593831
-593826
-593840
-593981
-594079
-594312
-594323
-594227
-594142
-594187
-594260
-594230
-594317
-594442
-594619
-594681
-594720
-594632
-594545
-594615
-594536
-594556
-594580
-594777
-594912
-594990
-595007
-595012
-594905
-594908
-594928
-595020
-595146
-595213
-595485
-595611
-595567
-595623
-595562
-595541
-595517
-595608
-595639
-595805
-596025
-596187
-596161
-596054
-595977
-595852
-595962
-595939
-596007
-596278
-596415
-596609
-596581
-596517
-596497
-596493
-596507
-596595
-596630
-596841
-596976
-597091
-597100
-597063
-597044
-596939
-596960
-596992
-597013
-597262
-597474
-597659
-597911
-597689
-597497
-597618
-597671
-597691
-597770
-597977
-598171
-598348
-598367
-598365
-598270
-598332
-598349
-598411
-598371
-598510
-598681
-598793
-598665
-598510
-598437
-598297
-598177
-598042
-597849
-597830
-597787
-597536
-597298
-596869
-596519
-596082
-595724
-595332
-594995
-594869
-594650
-594411
-593953
-593537
-593089
-592663
-592359
-591992
-591713
-591500
-591268
-591090
-590756
-590428
-590012
-589688
-589451
-589213
-589084
-589075
-589069
-588967
-588798
-588574
-588357
-588132
-588051
-588034
-587959
-588073
-588118
-588050
-587983
-587852
-587681
-587661
-587664
-587549
-587567
-587688
-587805
-587901
-587832
-587789
-587704
-587760
-587773
-587875
-588146
-588255
-588426
-588380
-588283
-588381
-588347
-588384
-588427
-588512
-588734
-588919
-589026
-589113
-589014
-589002
-589009
-589084
-589109
-589247
-589356
-589505
-589735
-589768
-589700
-589664
-589659
-589656
-589692
-589684
-589897
-589809
-590005
-589850
-589852
-589797
-589685
-589754
-589865
-590299
-590116
-590157
-590222
-590096
-590270
-590556
-590699
-590796
-590881
-590835
-590746
-590718
-590870
-590917
-590983
-591228
-591530
-591758
-591713
-591655
-591573
-591660
-591636
-591774
-591860
-592042
-592234
-592371
-592301
-592276
-592320
-592314
-592401
-592452
-592487
-592683
-592879
-592973
-592933
-592781
-592674
-592703
-592720
-592666
-592703
-592838
-592958
-592997
-592862
-592762
-592669
-592653
-592705
-592752
-592778
-593058
-593073
-593047
-593114
-592970
-592862
-592867
-592969
-592938
-593025
-593259
-593344
-593458
-593424
-593346
-593368
-593386
-593439
-593416
-593579
-593827
-593963
-594050
-594065
-593983
-593897
-593892
-594052
-594059
-594127
-594314
-594486
-594665
-594660
-594534
-594522
-594516
-594501
-594557
-594673
-594916
-595158
-595215
-595086
-595174
-595122
-595191
-595194
-595341
-595428
-595668
-595839
-595746
-595613
-595513
-595540
-595789
-595669
-595749
-595944
-596113
-596161
-596108
-596025
-596014
-595925
-596075
-596188
-596318
-596500
-596620
-596627
-596721
-596559
-596524
-596605
-596617
-596636
-596764
-597007
-597137
-597234
-597162
-597089
-597106
-597095
-597090
-597158
-597268
-597375
-597591
-597711
-597567
-597623
-597639
-597693
-597790
-597894
-597934
-598197
-598814
-598594
-598407
-598374
-598301
-598283
-598355
-598396
-598499
-598649
-598721
-598675
-598665
-598439
-598419
-598381
-598313
-598401
-598375
-598469
-598493
-598344
-598179
-597947
-597663
-597409
-597213
-596986
-596782
-596697
-596511
-596107
-595730
-595333
-594740
-594409
-594041
-593725
-593558
-593293
-593070
-592658
-592314
-591840
-591463
-591005
-590769
-590389
-590239
-590148
-589955
-589692
-589549
-589163
-588978
-588734
-588473
-588374
-588422
-588411
-588398
-588305
-588137
-587951
-587844
-587879
-587824
-587772
-587878
-588002
-588161
-588062
-588091
-587959
-587809
-587816
-587821
-587897
-588057
-588218
-588439
-588373
-588420
-588377
-588362
-588393
-588409
-588391
-588547
-588790
-588942
-589028
-588988
-588951
-588896
-589018
-589079
-589015
-589221
-589436
-589562
-589616
-589492
-589425
-589429
-589554
-589586
-589688
-589828
-589913
-590227
-590141
-589978
-590049
-590080
-590135
-590514
-590311
-590399
-590633
-590696
-590732
-590759
-590765
-590826
-590828
-590789
-590882
-591158
-591353
-591324
-591229
-591263
-591208
-591148
-591204
-591250
-591376
-591491
-591654
-591744
-591628
-591567
-591498
-591483
-591479
-591592
-591621
-591910
-591970
-592086
-591907
-591958
-591890
-591888
-591913
-591873
-592085
-592347
-592444
-592457
-592396
-592432
-592309
-592407
-592414
-592437
-592622
-592847
-593050
-593096
-592893
-592819
-592997
-592938
-592880
-593008
-593345
-593388
-593304
-593307
-593216
-593183
-593149
-593158
-593202
-593260
-593370
-593476
-593377
-593323
-593184
-593079
-593043
-593089
-593025
-593063
-593243
-593314
-593366
-593190
-593117
-592966
-592997
-592982
-593080
-593189
-593308
-593471
-593489
-593362
-593374
-593316
-593320
-593461
-593476
-593624
-593840
-593925
-593937
-593977
-593895
-593655
-593812
-593894
-593975
-594078
-594271
-594516
-594460
-594521
-594428
-594479
-594431
-594523
-594652
-594909
-594997
-595035
-594933
-594875
-594860
-594774
-594898
-595046
-595125
-595278
-595467
-595515
-595365
-595359
-595283
-595303
-595380
-595365
-595481
-595756
-595893
-595832
-595800
-595646
-595643
-595772
-595828
-595921
-595949
-596259
-596311
-596399
-596295
-596239
-596069
-596214
-596178
-596130
-596232
-596457
-596660
-596382
-596454
-596481
-596488
-596490
-596506
-596550
-596596
-596758
-596970
-596857
-596899
-596872
-596635
-596672
-596721
-596799
-596826
-596995
-597143
-597090
-597000
-596933
-596771
-596736
-596730
-596769
-596808
-597014
-597044
-597055
-596846
-596732
-596627
-596553
-596454
-596370
-596292
-596254
-596139
-595908
-595580
-595251
-594882
-594581
-594324
-594053
-593768
-593609
-593451
-593028
-592601
-592124
-591754
-591394
-591005
-590700
-590493
-590343
-590100
-589760
-589305
-588835
-588530
-588188
-587965
-587561
-587394
-587340
-587173
-586933
-586679
-586330
-586045
-585941
-585829
-585642
-585571
-585672
-585546
-585428
-585306
-585212
-585125
-585026
-584975
-584992
-585035
-585143
-585331
-585239
-585093
-585103
-585081
-585127
-585064
-585173
-585294
-585422
-585555
-585492
-585408
-585280
-585281
-585322
-585272
-585223
-585443
-585494
-585615
-585552
-585456
-585434
-585376
-585369
-585330
-585370
-585426
-585621
-585667
-585683
-585589
-585511
-585505
-585475
-585466
-585361
-585545
-585666
-585796
-585649
-585557
-585438
-585400
-585326
-585280
-585392
-585544
-585593
-585778
-585687
-585663
-585594
-585626
-585679
-585691
-585760
-585984
-586182
-586397
-586357
-586379
-586305
-586347
-586400
-586388
-586442
-586688
-586855
-587060
-587070
-586945
-586875
-586882
-586953
-586916
-587012
-587174
-587266
-587344
-587369
-587325
-587179
-587048
-587081
-587067
-587096
-587104
-587045
-587092
-587088
-587047
-587138
-587301
-587373
-587456
-587293
-587259
-587132
-587243
-587288
-587240
-587355
-587534
-587633
-587623
-587485
-587474
-587442
-587437
-587370
-587360
-587561
-587690
-587744
-587730
-587625
-587558
-587519
-587522
-587442
-587411
-587656
-587839
-587882
-587799
-587739
-587714
-587611
-587721
-588244
-587930
-588082
-588154
-588233
-588248
-588142
-588089
-588050
-588107
-588147
-588175
-588414
-588710
-588921
-588932
-588822
-588833
-588801
-589022
-589220
-589301
-589581
-589755
-589830
-589899
-589738
-589820
-589774
-589744
-589654
-589824
-589861
-590169
-590275
-590281
-590163
-590149
-590138
-590132
-590117
-590182
-590387
-590417
-590577
-590434
-590408
-590319
-590318
-590390
-590407
-590376
-590527
-590714
-590786
-590782
-590664
-590667
-590554
-590568
-590536
-590445
-590772
-590951
-591022
-591018
-591040
-590962
-591028
-591085
-591093
-591151
-591394
-591541
-591729
-591628
-591577
-591568
-591587
-591559
-591640
-591690
-591887
-591929
-592015
-591995
-591894
-591927
-591937
-591876
-591889
-591971
-592160
-592274
-592343
-592322
-592194
-592178
-592209
-592216
-592201
-592288
-592602
-592684
-592827
-592787
-592736
-592758
-592794
-592839
-592947
-592956
-593280
-593516
-593604
-593718
-593666
-593643
-593691
-593745
-593771
-593862
-593932
-594137
-594279
-594160
-594415
-593999
-593771
-593700
-593527
-593411
-593494
-593447
-593278
-592959
-592513
-591964
-591490
-591068
-590767
-590454
-590169
-589918
-589598
-589140
-588605
-588061
-587735
-587405
-587040
-586798
-586582
-586329
-586034
-585690
-585085
-584832
-584487
-584129
-583957
-583819
-583665
-583601
-583402
-583090
-582714
-582537
-582439
-582363
-582286
-582590
-582316
-582276
-582267
-582148
-581999
-581877
-581922
-581936
-581827
-581843
-582043
-582145
-582224
-582161
-581946
-581894
-581874
-581961
-581903
-581863
-582108
-582241
-582392
-582374
-582105
-582037
-582039
-582015
-582018
-582079
-582214
-582358
-582404
-582437
-582253
-582186
-582109
-582074
-582096
-582050
-582192
-582279
-582412
-582304
-582098
-581937
-581942
-581906
-581824
-581843
-582039
-582150
-582066
-581970
-581831
-581741
-581726
-581686
-581712
-581934
-582062
-582184
-582343
-582112
-582176
-582187
-582311
-582346
-582423
-582633
-582935
-583012
-583052
-583057
-582949
-582879
-582838
-582896
-582932
-583046
-583206
-583203
-583325
-583171
-583064
-582995
-582974
-582924
-583013
-583157
-583266
-583309
-583445
-583362
-583373
-583202
-583291
-583358
-583470
-583600
-583818
-583902
-583968
-583985
-583902
-583771
-583806
-583789
-583996
-584076
-584263
-584400
-584411
-584407
-584399
-584261
-584278
-584288
-584230
-584393
-584563
-584601
-584673
-584571
-584426
-584333
-584367
-584301
-584332
-584466
-584619
-584617
-584653
-584484
-584395
-584343
-584393
-584313
-584329
-584431
-584493
-584635
-584697
-584626
-584490
-584448
-584396
-584451
-584522
-584639
-584812
-584876
-585000
-584891
-584793
-584762
-584796
-584779
-584914
-585014
-585128
-585292
-585367
-585292
-585235
-585124
-585221
-585200
-585241
-585327
-585500
-585627
-585684
-585644
-585525
-585422
-585512
-585525
-585542
-585569
-585802
-585877
-585965
-585799
-585750
-585649
-585676
-585620
-585672
-585742
-585859
-586018
-586047
-585966
-585860
-585747
-585704
-585793
-585786
-585945
-586081
-586210
-586306
-586554
-586162
-586064
-586108
-586056
-586081
-586305
-586440
-586577
-586617
-586555
-586462
-586377
-586414
-586397
-586486
-586567
-586721
-586928
-586935
-586916
-586859
-586690
-586765
-586777
-586786
-586926
-587038
-587148
-587216
-587142
-587076
-587027
-586907
-586939
-586981
-587127
-587274
-587425
-587418
-587360
-587214
-587168
-587135
-587141
-587171
-587250
-587847
-587602
-587411
-587357
-587165
-587166
-587265
-587226
-587197
-587323
-587334
-587424
-587496
-587319
-587224
-587149
-587109
-586903
-587044
-586989
-587412
-587414
-587469
-587457
-587378
-587356
-587449
-587524
-587478
-587626
-587844
-588026
-588038
-587953
-587963
-587864
-587885
-587945
-587851
-588028
-588241
-588330
-588297
-588125
-588009
-587766
-587726
-587585
-587402
-587328
-587332
-587215
-586886
-586538
-586146
-585790
-585523
-585214
-584838
-584600
-584524
-584250
-583841
-583370
-582916
-582482
-582055
-581733
-581364
-581021
-580913
-580656
-580253
-579900
-579637
-579205
-578763
-578536
-578191
-578090
-577990
-577908
-577659
-577395
-577112
-577185
-576869
-576394
-576409
-576448
-576473
-576509
-576230
-576124
-576050
-575896
-575692
-575760
-575827
-575883
-576026
-576137
-576084
-575949
-575815
-575694
-575740
-575730
-575712
-575791
-575955
-576053
-576021
-575923
-575847
-575690
-575678
-575723
-575999
-575933
-575961
-576115
-576045
-575914
-575876
-575804
-575865
-575864
-575795
-575953
-576151
-576218
-576285
-576049
-575978
-575891
-575838
-575980
-575964
-576124
-576378
-576444
-576340
-576051
-576100
-575879
-575982
-575998
-576008
-576079
-576321
-576488
-576388
-576300
-576339
-576317
-576234
-576291
-576248
-576407
-576695
-576729
-576734
-576684
-576615
-576542
-576597
-576599
-576488
-576740
-576901
-577061
-577078
-576971
-576978
-576890
-576854
-576938
-576739
-576986
-577226
-577368
-577335
-577334
-577255
-577233
-577246
-577181
-577173
-577312
-577458
-577624
-577506
-577352
-577301
-577271
-577282
-577171
-577181
-577330
-577399
-577455
-577471
-577322
-577186
-577075
-576971
-577025
-577011
-577139
-577220
-577380
-577286
-577163
-577085
-576960
-576955
-576997
-576989
-577090
-577276
-577307
-577297
-577157
-577062
-577012
-576978
-576994
-577024
-577114
-577195
-577296
-577310
-577180
-577146
-577618
-577198
-577083
-577015
-577204
-577367
-577557
-577509
-577422
-577386
-577348
-577327
-577397
-577472
-577579
-577716
-577931
-577952
-577891
-577787
-577689
-577794
-577805
-577952
-578060
-578146
-578312
-578338
-578248
-578256
-578121
-578188
-578197
-578354
-578573
-578717
-578757
-578616
-578610
-578555
-578657
-578714
-578704
-578852
-579020
-579208
-579145
-579082
-578994
-579391
-579084
-579021
-579050
-579234
-579330
-579503
-579460
-579368
-579291
-579191
-579258
-579335
-579363
-579566
-579763
-579913
-579835
-579769
-579723
-579685
-579642
-579742
-579744
-579938
-580028
-580160
-580211
-580130
-580071
-579986
-580039
-580017
-580058
-580208
-580380
-580488
-580512
-580469
-580348
-580307
-580359
-580360
-580386
-580485
-580662
-580695
-580728
-580619
-580554
-580444
-580415
-580333
-580437
-580543
-580622
-580713
-580754
-580453
-580529
-580535
-580527
-580509
-580494
-580748
-580911
-580993
-580946
-580868
-580877
-580841
-580919
-580861
-580916
-581208
-581286
-581383
-581400
-581394
-581405
-581277
-581258
-581345
-581304
-581583
-581687
-581809
-581785
-581654
-581974
-581723
-581709
-581571
-581669
-581856
-582038
-582132
-582087
-582026
-581894
-581990
-582001
-582019
-582057
-582180
-582344
-582401
-582387
-582265
-582184
-582191
-582174
-582195
-582183
-582272
-582423
-582489
-582414
-582241
-582320
-582039
-582028
-581924
-581834
-581799
-581871
-581815
-581640
-581388
-581185
-580904
-580682
-580350
-580146
-580019
-579938
-579656
-579240
-578825
-578350
-578016
-577685
-577259
-576994
-576823
-576504
-576313
-575881
-575441
-575164
-574816
-574472
-574235
-574036
-573891
-573771
-573556
-573320
-573080
-572762
-572539
-572351
-572213
-572031
-572028
-571963
-571957
-571806
-571613
-571327
-571266
-571143
-571129
-571099
-571232
-571204
-571339
-571247
-571126
-570974
-570916
-570867
-570928
-570923
-571133
-571197
-571309
-571228
-571131
-571049
-571092
-571110
-571206
-571350
-571457
-571663
-571759
-571762
-571717
-571662
-571789
-571903
-571932
-572072
-572279
-572420
-572535
-572658
-572509
-572476
-572489
-572597
-572623
-572717
-572886
-573013
-573191
-573081
-573126
-573086
-573061
-573122
-573167
-573205
-573420
-573600
-573621
-573612
-573548
-573429
-573243
-573359
-573246
-573363
-573567
-573744
-573799
-573775
-573637
-573521
-573579
-573615
-573621
-573701
-573780
-573959
-573999
-573982
-573939
-573801
-573762
-573792
-573774
-573853
-574052
-573962
-573840
-573874
-573850
-573871
-573987
-574115
-574134
-574045
-573867
-573768
-573668
-573703
-573653
-573741
-573814
-573722
-573755
-573722
-573521
-573393
-573295
-573320
-573265
-573253
-573425
-573458
-573480
-573377
-573212
-573023
-572988
-572969
-572921
-572970
-573154
-573169
-573141
-573065
-572852
-572756
-572668
-572608
-572638
-572555
-572686
-572689
-572786
-572826
-572775
-572627
-572666
-572686
-572732
-572810
-572967
-573044
-573138
-573168
-573110
-573028
-573085
-573130
-573174
-573303
-573555
-573658
-573667
-573769
-573659
-573646
-573598
-573706
-573768
-573914
-574129
-574328
-574343
-574328
-574315
-574174
-574180
-574265
-574258
-574394
-574498
-574619
-574615
-574499
-574488
-574392
-574374
-574263
-574325
-574432
-574475
-574704
-574741
-574594
-574542
-574497
-574462
-574474
-574431
-574557
-574764
-574837
-574948
-574879
-574837
-574725
-574824
-574897
-574940
-575095
-575262
-575343
-575400
-575332
-575248
-575202
-575185
-575273
-575401
-575578
-575705
-575897
-575925
-575952
-575916
-575863
-575897
-575889
-575970
-576144
-576365
-576480
-576481
-576379
-576392
-576279
-576278
-576274
-576299
-576415
-576492
-576622
-576544
-576478
-576352
-576282
-576204
-576245
-576224
-576364
-576542
-576666
-576504
-576524
-576376
-576268
-576223
-576296
-576305
-576337
-576536
-576740
-576759
-576638
-576566
-576430
-576386
-576369
-576450
-576549
-576726
-576782
-576885
-576778
-576707
-576630
-576658
-576601
-576680
-576818
-576924
-577080
-577127
-577000
-576860
-576871
-576834
-576769
-576788
-576894
-577171
-577301
-577231
-577140
-577112
-577092
-577110
-577028
-576986
-577150
-577279
-577389
-577344
-577259
-577149
-577114
-577130
-577156
-577229
-577301
-577517
-577633
-577621
-577573
-577500
-577412
-577505
-577447
-577533
-577640
-577689
-577755
-577754
-577618
-577528
-577344
-577176
-577054
-576929
-576867
-576802
-576782
-576585
-576240
-575973
-575711
-575471
-575340
-575055
-574893
-574887
-574750
-574457
-574158
-573815
-573457
-573188
-572806
-572422
-572262
-571996
-571701
-571316
-570598
-570116
-569496
-568953
-568551
-568225
-568090
-568211
-568020
-567761
-567440
-567175
-567334
-566930
-566895
-566893
-567007
-567298
-567563
-567657
-567709
-567712
-567689
-567813
-567848
-567936
-568041
-568329
-568387
-568448
-568375
-568341
-568267
-568339
-568373
-568371
-568454
-568717
-568575
-568705
-568573
-568494
-568412
-568368
-568320
-568213
-568306
-568510
-568536
-568532
-568399
-568396
-568433
-568475
-568559
-568736
-568813
-569189
-569395
-569401
-569402
-569385
-569244
-569243
-569302
-569226
-569370
-569535
-569641
-569656
-569456
-569394
-569188
-569240
-569252
-569312
-569444
-569644
-569854
-569855
-569888
-569887
-569939
-570012
-570095
-570119
-570307
-570530
-570674
-570659
-570471
-570527
-570504
-570419
-570214
-570366
-570499
-570723
-570743
-570647
-570514
-570356
-570301
-570230
-570324
-570177
-570242
-570455
-570538
-570445
-570312
-570208
-570030
-570056
-569999
-569857
-569976
-570110
-570063
-569950
-569729
-569609
-569856
-569564
-569401
-569315
-569405
-569523
-569651
-569555
-569433
-569359
-569220
-569218
-569182
-569210
-569429
-569588
-569603
-569696
-569598
-569529
-569512
-569531
-569550
-569604
-569685
-569908
-570048
-569996
-569909
-569893
-569857
-569862
-569958
-569951
-570058
-570264
-570419
-570400
-570268
-570136
-570147
-570189
-570249
-570322
-570452
-570599
-570775
-570820
-570683
-570721
-570731
-570642
-570826
-570878
-571052
-571361
-571301
-571348
-571343
-571221
-571122
-571145
-571222
-571250
-571394
-571591
-571754
-571636
-571672
-571677
-571727
-571714
-571701
-571876
-572030
-572215
-572312
-572295
-572179
-572237
-572325
-572374
-572375
-572540
-572732
-572883
-572867
-572786
-572764
-572711
-572743
-572830
-572727
-572915
-573046
-573159
-573136
-572998
-572880
-572867
-572934
-572958
-572949
-573081
-573178
-573329
-573305
-573178
-573115
-573204
-573261
-573206
-573194
-573325
-573474
-573583
-573634
-573495
-573432
-573444
-573457
-573454
-573525
-573605
-573795
-573917
-573912
-573809
-573707
-573701
-573800
-573848
-573819
-573991
-574160
-574161
-574114
-574023
-573949
-573872
-573917
-573976
-573924
-573890
-574138
-574270
-574267
-574122
-574030
-574085
-574183
-574182
-574204
-574362
-574610
-574600
-574682
-574757
-574981
-575079
-575139
-575112
-575065
-574995
-575080
-575134
-575183
-575193
-575396
-575492
-575504
-575492
-575324
-575283
-575273
-575188
-575198
-575197
-575266
-575207
-575155
-575058
-574849
-574576
-574343
-574027
-573800
-573600
-573478
-573340
-573116
-572698
-572282
-571904
-571573
-571144
-570901
-570572
-570362
-570127
-569882
-569473
-569074
-568633
-568312
-568037
-567700
-567525
-567383
-567246
-567074
-566811
-566385
-566276
-565987
-565853
-565758
-565677
-565648
-565738
-565766
-565546
-565428
-565326
-565170
-565190
-565205
-565197
-565316
-565480
-565533
-565464
-565323
-565315
-565328
-565738
-565614
-565594
-565780
-565960
-566063
-566082
-566007
-565864
-566263
-566136
-566232
-566256
-566478
-566688
-566871
-566819
-566872
-566738
-566774
-566818
-566926
-567039
-567164
-567384
-567541
-567368
-567451
-567379
-567356
-567454
-567610
-567676
-567858
-568044
-568062
-568020
-567947
-567903
-567922
-567993
-568051
-568093
-568198
-568306
-568396
-568346
-568285
-568137
-568050
-568126
-568087
-568245
-568437
-568562
-568567
-568547
-568476
-568459
-568416
-568442
-568548
-568603
-568688
-568844
-568868
-568855
-568732
-568653
-568744
-568717
-568682
-568840
-568983
-569115
-569099
-569091
-568991
-568954
-568853
-568812
-568830
-568773
-568922
-568938
-568934
-568914
-568680
-568599
-568554
-568431
-568467
-568444
-568541
-568498
-568494
-568372
-568252
-568000
-567990
-567884
-567850
-567837
-567947
-567826
-567734
-567575
-567537
-567436
-567401
-567422
-567517
-567650
-567707
-567765
-567691
-567558
-567511
-567615
-567601
-567604
-567721
-567901
-567991
-568084
-568054
-567950
-567922
-567863
-568029
-567951
-568092
-568240
-568295
-568331
-568296
-568134
-568200
-568182
-568252
-568270
-568387
-568462
-568615
-568651
-568576
-568508
-568437
-568540
-568590
-568654
-568824
-568907
-569032
-569081
-569080
-568940
-568844
-568935
-568986
-568994
-569133
-569283
-569301
-569345
-569368
-569241
-569082
-569136
-569116
-569182
-569280
-569428
-569499
-569625
-569519
-569527
-569419
-569485
-569584
-569623
-569650
-569930
-570085
-570192
-570228
-570046
-570051
-569989
-570164
-570252
-569984
-570391
-570363
-570579
-570587
-570467
-570337
-570319
-570420
-570306
-570412
-571039
-570814
-570749
-570720
-570497
-570394
-570455
-570516
-570575
-570692
-570815
-570964
-570900
-570838
-570748
-570650
-570660
-570738
-570823
-570837
-571412
-571224
-571279
-571186
-571065
-570982
-570914
-571058
-571142
-571155
-571125
-571406
-571278
-571891
-571449
-571349
-571335
-571782
-571459
-571498
-571666
-571720
-571745
-571703
-571651
-571596
-571588
-571667
-572037
-572005
-572007
-572140
-572082
-571986
-571874
-571806
-571793
-571806
-571786
-571743
-571799
-571890
-571794
-571625
-571410
-571157
-570984
-570830
-570661
-570516
-570410
-570216
-570002
-569627
-569273
-568970
-568624
-568329
-568580
-568004
-567598
-567336
-567034
-566603
-566175
-565792
-565472
-565532
-565042
-564884
-564620
-564399
-564116
-563806
-563465
-563166
-562965
-562782
-562658
-561807
-561660
-561544
-561480
-561548
-561540
-561637
-561597
-561437
-561295
-561311
-561357
-561358
-561371
-561479
-561634
-561758
-561888
-561824
-561751
-561766
-561906
-561942
-561987
-562152
-562283
-562509
-562615
-562663
-562595
-562527
-562593
-562622
-562777
-562876
-563064
-563223
-563152
-563296
-563227
-563181
-563220
-563338
-563416
-563481
-563676
-563828
-563811
-563690
-563715
-563763
-563694
-563740
-563938
-564018
-564070
-564101
-564109
-564069
-564000
-564011
-564215
-564353
-564417
-564646
-564869
-564825
-564719
-564690
-564721
-564709
-564770
-564928
-565053
-565188
-565267
-565317
-565259
-565185
-565183
-565122
-565198
-565233
-565331
-565438
-565532
-565568
-565509
-565405
-565419
-565439
-565397
-565458
-565473
-565642
-565641
-565626
-565596
-565453
-565615
-565488
-565333
-565268
-565359
-565440
-565504
-565424
-565243
-565168
-565046
-565016
-564886
-564875
-565010
-565089
-565124
-565131
-564988
-564854
-564771
-564751
-564640
-564628
-564702
-564854
-564898
-564859
-564839
-564715
-564652
-564706
-564642
-564627
-564747
-564894
-564994
-565043
-564866
-564813
-564794
-564806
-564719
-564755
-564852
-565020
-565113
-565141
-564985
-564979
-564932
-564968
-564899
-565004
-565105
-565251
-565331
-565648
-565286
-565163
-565128
-565200
-565206
-565188
-565303
-565435
-565468
-565545
-565475
-565353
-565321
-565400
-565331
-565374
-565506
-565767
-565832
-565905
-565760
-565797
-565668
-565659
-565794
-565872
-565922
-566184
-566276
-566342
-566304
-566148
-566370
-566240
-566231
-566178
-566352
-566479
-566686
-566640
-566622
-566528
-566518
-566490
-566554
-566562
-566615
-566875
-566986
-566936
-566735
-566745
-566690
-566653
-566633
-566785
-566855
-566990
-567166
-567126
-567083
-567100
-567048
-567029
-567040
-567126
-567237
-567404
-567538
-567445
-567407
-567373
-567222
-567286
-567405
-567464
-567490
-567678
-567798
-567779
-567594
-567627
-567640
-567663
-567778
-567794
-567938
-568130
-568186
-568278
-568173
-568047
-568005
-568143
-568174
-568158
-568228
-568519
-568654
-568580
-568491
-568515
-568456
-568493
-568544
-568571
-568660
-568737
-568943
-568933
-568890
-568946
-568851
-568866
-568966
-568932
-569001
-569209
-569300
-569228
-569041
-569014
-568832
-568668
-568753
-568700
-568856
-568929
-568815
-568590
-568448
-568224
-567961
-567750
-567615
-567380
-567132
-566980
-566779
-566451
-566024
-565578
-565163
-564924
-564570
-564313
-564111
-563921
-563663
-563223
-562857
-562538
-562163
-561975
-561801
-561495
-561317
-561370
-561104
-560855
-560926
-560410
-560175
-560048
-559952
-559804
-559892
-559967
-560002
-559829
-559669
-559646
-559611
-559591
-559582
-559627
-559735
-559914
-559954
-559971
-559894
-559874
-559827
-559895
-560065
-560104
-560247
-560312
-560568
-560552
-560511
-560531
-560542
-560628
-560690
-560904
-561071
-561180
-561244
-561320
-561376
-561368
-561325
-561359
-561441
-561545
-561612
-561879
-562010
-562044
-562039
-562000
-561949
-561977
-562091
-562127
-562296
-562495
-562691
-562636
-562493
-562523
-562452
-562491
-562619
-562700
-562887
-563066
-563204
-563203
-563086
-563038
-562963
-562977
-563073
-563081
-563170
-563396
-563546
-563459
-563397
-563288
-563305
-563288
-563313
-563353
-563582
-563684
-564186
-563831
-563602
-563616
-563553
-563515
-563540
-563608
-563720
-563794
-563906
-563798
-563659
-563584
-563526
-563535
-563479
-563425
-563549
-563601
-563766
-563575
-563490
-563414
-563299
-563230
-563191
-563139
-563206
-563324
-563381
-563342
-563234
-563429
-563147
-563063
-563086
-563057
-563137
-563372
-563362
-563405
-563298
-563262
-563233
-563260
-563234
-563260
-563418
-563562
-563635
-563611
-563541
-563495
-563424
-563363
-563435
-563537
-563664
-563746
-563857
-564237
-563909
-563798
-563680
-563783
-563879
-563940
-564010
-564147
-564247
-564315
-564269
-564152
-564141
-564190
-564225
-564249
-564416
-564514
-564712
-564697
-564653
-564626
-564607
-564737
-564788
-564854
-565055
-565214
-565386
-565307
-565395
-565360
-565357
-565422
-565509
-565550
-565694
-565920
-566031
-566012
-565975
-565912
-565899
-565930
-566075
-566145
-566251
-566450
-566523
-566452
-566459
-566364
-566415
-566360
-566452
-566519
-566703
-566796
-566847
-566788
-566752
-566710
-566650
-566748
-566726
-566708
-566963
-567005
-567126
-567076
-567012
-566986
-566966
-567028
-567126
-567062
-567303
-567449
-567557
-567602
-567522
-567494
-567471
-567573
-567643
-567729
-567905
-568028
-568142
-568158
-568055
-568062
-568042
-568145
-568183
-568216
-568428
-568573
-568672
-568635
-568519
-568432
-568392
-568417
-568499
-568543
-568554
-568713
-568830
-568752
-568633
-568601
-568568
-568650
-568621
-568583
-568774
-568972
-569040
-568991
-568932
-568893
-568945
-568925
-569017
-569040
-569225
-569372
-569423
-569448
-569454
-569479
-569424
-569524
-569617
-569662
-569843
-570081
-570106
-570166
-570119
-570046
-570033
-569956
-569989
-570066
-570143
-570186
-570228
-570063
-569898
-569787
-569672
-569515
-569387
-569252
-569148
-569110
-568957
-568608
-568220
-567897
-567544
-567223
-566943
-566677
-566557
-566370
-566083
-565800
-565405
-565089
-564691
-564502
-564231
-564060
-563903
-563785
-563551
-563275
-562961
-562728
-562531
-562271
-562251
-562011
-562111
-562050
-561968
-561772
-561547
-561427
-561300
-561171
-561228
-561173
-561243
-561373
-561425
-561354
-561265
-561210
-561152
-561168
-561175
-561233
-561404
-561640
-561726
-561697
-561500
-561593
-561651
-561797
-561853
-562072
-562289
-562456
-562596
-562735
-562658
-562736
-562801
-562895
-563110
-563242
-563449
-563665
-563838
-563855
-563840
-563891
-563930
-564090
-564164
-564278
-564495
-564707
-564842
-564800
-564748
-564734
-564756
-564856
-564990
-565068
-565274
-565415
-565483
-565463
-565389
-565415
-565376
-565711
-565624
-565633
-565775
-565854
-565879
-565921
-565822
-565811
-565829
-565850
-565896
-565967
-566111
-566229
-566349
-566263
-566283
-566203
-566162
-566310
-566292
-566345
-566515
-566668
-566688
-566563
-566470
-566387
-566424
-566509
-566408
-566476
-566500
-566596
-566572
-566551
-566409
-566293
-566236
-566276
-566207
-566248
-566331
-566395
-566373
-566329
-566171
-566008
-565987
-565952
-565971
-566020
-566172
-566162
-566234
-566230
-566068
-565887
-565872
-565906
-566031
-565965
-566231
-566290
-566350
-566272
-566161
-566028
-566076
-566140
-566130
-566196
-566400
-566535
-566548
-566543
-566397
-566368
-566350
-566373
-566408
-566545
-566730
-566906
-566931
-566942
-566835
-566756
-566852
-566928
-566993
-567018
-567213
-567402
-567472
-567498
-567402
-567406
-567486
-567420
-567545
-567646
-567983
-568056
-568159
-568088
-567841
-567969
-568044
-568121
-568120
-568278
-568488
-568642
-568719
-568516
-568590
-568550
-568599
-568683
-568774
-568875
-569106
-569154
-569325
-569285
-569141
-569237
-569294
-569329
-569437
-569575
-569602
-569701
-569756
-569700
-569600
-569607
-569712
-569708
-569812
-569972
-570069
-570121
-570062
-570064
-569977
-570021
-570048
-570083
-570270
-570399
-570489
-570588
-570475
-570377
-570241
-570225
-570213
-570298
-570359
-570499
-570627
-570639
-570647
-570394
-570340
-570375
-570407
-570409
-570458
-570717
-570811
-570873
-570776
-570670
-570629
-570544
-570545
-570619
-570721
-570838
-570975
-570955
-570982
-570890
-570752
-570784
-570740
-570870
-570952
-571024
-571186
-571220
-571156
-571131
-570985
-570998
-571013
-571105
-571213
-571371
-571419
-571298
-571365
-571294
-571262
-571308
-571857
-571751
-571743
-571659
-571761
-571849
-571902
-572060
-572271
-572484
-572477
-572431
-572331
-572286
-572369
-572304
-572315
-572452
-572542
-572699
-572687
-572651
-572488
-572324
-572221
-572154
-572057
-572177
-572139
-572133
-571983
-571730
-571410
-571119
-570943
-570706
-570588
-570346
-570249
-570093
-569847
-569514
-569150
-568822
-568404
-568166
-567811
-567687
-567801
-567434
-566944
-566623
-566308
-565810
-565640
-565360
-565212
-565093
-565079
-564926
-564788
-564429
-564251
-564046
-563843
-563751
-563703
-563711
-563832
-563866
-563759
-563703
-563557
-563416
-563373
-563424
-563445
-563649
-563719
-563928
-564036
-563872
-563789
-563736
-563814
-563834
-563969
-564148
-564370
-564535
-564547
-564485
-564467
-564445
-564512
-564651
-564748
-564923
-565227
-565394
-565415
-565371
-565378
-565311
-565360
-565476
-565546
-565782
-566082
-566299
-566341
-566234
-566142
-566109
-566138
-566264
-566271
-566501
-566737
-566946
-566956
-566771
-566769
-566699
-566806
-566890
-566871
-567013
-567312
-567502
-567385
-567319
-567269
-567183
-567253
-567280
-567301
-567457
-567694
-567754
-567755
-567680
-567587
-567615
-567644
-567647
-567624
-567722
-567944
-567979
-567973
-567854
-567783
-567669
-567688
-567524
-567505
-567691
-567887
-567963
-567857
-567744
-567604
-567468
-567536
-567452
-567349
-567475
-567618
-567649
-567569
-567307
-567251
-567066
-567044
-567063
-566840
-566945
-567057
-567130
-567205
-567095
-567046
-566939
-566923
-566848
-566885
-567017
-567198
-567255
-567210
-567185
-567067
-566955
-566945
-566927
-567011
-567090
-567336
-567444
-567473
-567425
-567706
-567364
-567336
-567346
-567343
-567428
-567638
-567809
-567860
-567704
-567628
-567533
-567639
-567674
-567714
-567929
-568157
-568233
-568195
-568080
-568096
-568055
-568105
-568100
-568174
-568287
-568533
-568634
-568748
-568635
-568508
-568458
-568529
-568635
-568699
-568815
-569107
-569270
-569281
-569127
-569087
-569059
-569011
-569125
-569145
-569318
-569573
-569757
-569666
-569526
-569535
-569897
-569656
-569628
-569607
-569878
-570049
-570195
-570175
-570042
-569980
-569845
-569919
-570018
-570079
-570245
-570523
-570615
-570606
-570478
-570489
-570411
-570507
-570566
-570537
-570711
-570990
-571196
-571202
-571049
-570989
-570895
-570929
-570972
-571041
-571145
-571363
-571533
-571475
-571349
-571220
-571141
-571212
-571227
-571140
-571325
-571630
-571676
-571624
-571495
-571366
-571249
-571184
-571239
-571328
-571493
-571757
-571826
-571849
-571604
-571552
-571430
-571612
-571570
-571561
-571739
-571996
-572203
-572082
-572022
-572001
-571849
-572038
-572116
-572143
-572344
-572583
-572771
-572814
-572641
-572637
-572680
-572782
-572801
-572832
-573070
-573353
-573450
-573395
-573262
-573217
-573029
-573052
-573067
-573031
-573115
-573292
-573270
-573029
-572722
-572492
-572186
-571859
-571800
-571472
-571366
-571399
-571127
-570700
-570334
-569966
-569483
-569174
-568883
-568567
-568281
-568331
-568062
-567645
-567191
-566824
-566381
-566188
-565934
-565734
-565571
-565717
-565607
-565372
-565004
-564845
-564585
-564464
-564382
-564286
-564398
-564582
-564612
-564531
-564362
-564278
-564122
-564201
-564232
-564446
-564685
-564795
-564777
-564609
-564527
-564418
-564533
-564616
-564684
-564933
-565169
-565423
-565374
-565304
-565317
-565261
-565401
-565461
-565636
-565812
-566034
-566305
-566324
-566154
-566106
-566178
-566284
-566280
-566315
-566569
-566780
-566863
-566826
-566784
-566745
-566676
-566670
-566763
-566859
-567024
-567232
-567472
-567442
-567325
-567235
-567215
-567306
-567269
-567377
-567648
-568391
-568223
-568158
-568045
-567898
-567849
-568267
-568087
-568018
-568298
-568537
-568651
-568607
-568509
-568500
-568359
-568447
-568421
-568473
-568766
-568991
-569054
-569012
-568849
-568736
-568665
-568698
-568660
-568689
-568801
-569035
-569262
-569042
-568928
-568814
-568698
-568691
-568651
-568718
-568827
-568952
-569102
-568912
-568802
-568581
-568464
-568486
-568383
-568360
-568468
-568614
-568680
-568591
-568373
-568239
-568133
-568092
-568017
-568003
-568133
-568238
-568340
-568202
-567978
-567876
-567829
-567919
-567903
-567915
-568066
-568301
-568379
-568403
-568292
-568126
-568143
-568200
-568331
-568399
-568600
-568693
-568807
-568727
-568526
-568540
-568488
-568463
-568448
-568496
-568696
-568972
-569096
-569008
-568949
-568852
-568698
-568708
-568799
-568849
-569017
-569098
-569191
-569120
-569051
-568964
-568830
-568859
-568858
-568825
-569034
-569159
-569250
-569132
-569019
-568915
-568903
-568904
-568942
-568981
-569171
-569307
-569429
-569407
-569317
-569245
-569187
-569165
-569215
-569359
-569607
-570067
-569922
-569851
-569747
-569554
-569542
-569617
-569599
-569665
-569789
-570035
-570143
-570025
-569929
-569797
-569803
-569876
-569890
-569938
-570105
-570256
-570270
-570321
-570134
-570063
-569949
-570021
-570026
-570109
-570321
-570477
-570582
-570542
-570404
-570401
-570304
-570435
-570359
-570451
-570656
-570894
-570999
-571003
-570886
-570839
-570792
-570868
-570891
-570898
-571170
-571367
-571505
-571452
-571406
-571348
-571272
-571333
-571410
-571346
-571611
-571739
-571965
-571828
-571727
-571570
-571502
-571561
-571636
-571675
-571914
-572033
-572108
-572057
-571896
-571852
-571826
-571833
-571862
-571990
-572174
-572427
-572544
-572472
-572335
-572281
-572209
-572165
-572178
-572217
-572451
-572539
-572738
-572567
-572467
-572330
-572175
-572156
-572057
-572014
-572184
-572157
-572066
-571750
-571313
-571091
-570799
-570597
-570230
-569998
-569953
-569748
-569569
-569142
-568648
-568125
-567700
-567391
-567066
-566778
-566683
-566538
-566369
-566020
-565537
-565073
-564773
-564507
-564315
-564053
-564058
-564055
-563943
-563699
-563345
-563088
-562898
-562766
-562700
-562665
-562769
-562870
-562836
-562813
-562604
-562440
-562366
-562442
-562451
-562509
-562728
-563034
-563120
-562994
-562877
-562911
-562869
-562877
-562938
-563062
-563388
-563582
-563754
-563680
-563514
-563499
-563434
-563596
-563531
-563667
-563978
-564049
-564155
-564152
-564031
-563892
-563852
-563777
-563834
-563940
-564152
-564267
-564297
-564301
-564140
-564052
-564049
-564130
-564061
-564120
-564457
-564499
-564576
-564534
-564401
-564402
-564388
-564439
-564474
-564632
-564868
-565054
-565230
-565182
-565066
-565036
-565026
-565128
-565129
-565276
-565556
-565738
-565819
-565799
-565630
-565588
-565642
-565680
-565653
-565794
-566058
-566153
-566253
-566162
-566040
-565877
-565813
-565781
-565600
-565753
-565957
-566094
-566164
-566056
-565763
-565606
-565527
-565587
-565475
-565521
-565631
-565686
-565642
-565652
-565438
-565200
-565112
-565152
-565119
-565088
-565286
-565316
-565309
-565237
-565014
-564885
-564764
-564715
-564692
-564618
-564805
-564874
-564931
-564772
-564582
-564355
-564344
-564332
-564222
-564295
-564519
-564559
-564594
-564526
-564241
-564131
-564100
-564139
-564140
-564279
-564404
-564486
-564509
-564480
-564359
-564171
-564211
-564276
-564299
-564311
-564496
-564676
-564839
-564759
-564619
-564502
-564455
-564587
-564574
-564673
-564865
-565036
-565144
-564963
-564822
-564759
-564753
-564837
-564806
-564941
-565140
-565275
-565252
-565205
-565035
-564902
-564855
-565202
-564981
-565019
-565163
-565310
-565362
-565346
-565193
-565086
-565142
-565234
-565264
-565323
-565600
-565840
-565867
-565934
-565907
-565756
-565845
-565963
-566062
-566234
-566586
-566689
-566737
-566743
-566670
-566581
-566616
-566736
-566834
-566956
-567141
-567298
-567296
-567247
-567119
-567021
-567039
-567038
-567209
-567313
-567542
-567761
-567828
-567803
-567607
-567717
-567810
-567860
-568058
-568196
-568200
-568167
-567929
-567730
-567724
-567718
-567752
-567790
-567964
-568066
-567993
-567829
-567728
-567511
-567460
-567482
-567439
-567533
-567792
-567884
-567905
-567829
-567690
-567601
-567589
-567561
-567612
-567696
-567837
-567918
-567965
-567708
-567648
-567487
-567636
-567756
-567757
-567887
-568066
-568179
-568238
-568178
-568105
-567998
-568049
-568087
-568205
-568317
-568703
-568836
-568907
-568910
-568929
-568782
-568850
-568881
-568916
-569069
-569110
-569379
-569434
-569304
-569113
-568869
-568748
-568600
-568340
-568229
-568226
-568031
-567692
-567332
-566915
-566392
-566037
-565660
-565317
-565095
-564958
-564752
-564369
-563925
-563445
-563037
-562707
-562295
-561992
-561759
-561649
-561481
-561114
-560789
-560277
-560000
-559724
-559533
-559456
-559344
-559304
-559221
-559011
-559389
-558738
-558307
-558222
-558146
-558002
-558192
-558384
-558476
-558480
-558316
-558274
-558236
-558220
-558230
-558254
-558620
-558840
-559056
-559079
-559096
-559013
-558938
-559042
-559075
-559193
-559395
-559603
-559838
-559893
-559687
-559667
-559577
-559547
-559520
-559602
-559901
-560055
-559947
-559764
-559711
-559547
-559846
-559642
-559684
-559961
-560111
-560332
-560313
-560184
-560098
-560031
-560059
-560105
-560182
-560396
-560617
-560900
-560892
-560814
-560669
-560617
-560668
-560722
-560811
-560966
-561222
-561430
-561453
-561325
-561223
-561102
-561047
-561059
-561066
-561299
-561527
-561668
-561663
-561497
-561449
-561295
-561356
-561348
-561320
-561528
-561659
-561828
-561788
-561637
-561427
-561431
-561345
-561299
-561318
-561454
-561685
-561793
-561717
-561506
-561383
-561254
-561384
-561258
-561173
-561325
-561530
-561641
-561619
-561431
-561263
-561138
-561075
-560988
-560944
-561119
-561319
-561412
-561369
-561124
-561029
-560972
-560839
-560852
-560814
-560925
-561125
-561233
-561266
-561090
-560903
-560774
-560705
-560822
-560835
-560931
-561250
-561301
-561323
-561199
-561152
-561157
-561179
-561214
-561139
-561309
-561511
-561693
-561647
-561463
-561420
-561214
-561230
-561237
-561366
-561470
-561724
-561906
-561903
-561704
-561570
-561607
-561609
-561555
-561552
-561741
-561974
-562203
-562258
-562152
-562077
-562011
-562014
-562007
-562067
-562188
-562419
-562611
-562683
-562624
-562502
-562415
-562438
-562531
-562658
-562840
-563217
-563304
-563405
-563298
-563222
-563183
-563194
-563319
-563396
-563498
-563870
-564008
-563924
-563839
-563764
-563717
-563735
-563655
-563800
-563945
-564097
-564300
-564342
-564114
-564086
-564048
-564113
-564041
-564126
-564322
-564647
-564790
-564839
-564642
-564713
-564642
-564685
-564816
-564871
-565157
-565392
-565581
-565495
-565543
-565461
-565462
-565528
-565463
-565553
-565771
-566034
-566111
-566053
-565949
-565820
-565682
-565748
-565697
-565763
-565841
-566128
-566256
-566280
-566107
-566007
-565894
-565940
-565998
-566237
-566535
-566703
-566612
-566557
-566441
-566363
-566389
-566516
-566580
-566755
-567023
-567151
-567073
-567018
-566924
-566793
-566892
-566847
-566848
-567078
-567328
-567476
-567404
-567257
-567179
-567062
-567147
-567187
-567169
-567414
-567697
-567892
-567767
-567751
-567774
-567601
-567616
-567764
-567786
-567878
-568287
-568438
-568304
-568170
-568099
-568036
-567996
-568011
-567968
-568148
-568330
-568415
-568238
-568011
-567896
-567603
-567547
-567319
-567228
-567101
-567161
-566990
-566625
-566103
-565745
-565316
-564988
-564546
-564239
-564466
-564018
-563732
-563213
-562811
-562357
-561966
-561593
-561346
-560981
-560766
-561075
-560675
-560188
-559590
-559372
-559025
-558779
-558547
-558326
-558324
-558351
-558274
-558023
-557746
-557507
-557165
-557177
-557095
-556984
-557082
-557358
-557510
-557357
-557261
-557189
-557078
-557169
-557156
-557249
-557391
-557692
-557872
-557816
-557801
-557730
-557719
-557800
-558006
-558120
-558141
-558598
-558874
-558980
-558925
-558927
-559012
-559076
-559282
-559281
-559506
-559926
-560321
-560276
-560193
-560225
-560221
-560339
-560349
-560366
-560650
-561055
-561107
-560992
-560712
-560713
-560687
-560682
-560759
-560659
-560932
-561153
-561350
-561222
-561136
-561024
-560922
-560924
-560942
-560959
-561281
-561536
-561666
-561590
-561396
-561398
-561314
-561430
-561386
-561494
-562166
-562092
-562527
-562024
-561844
-561763
-561754
-561810
-561837
-561892
-562030
-562297
-562342
-562355
-562209
-562050
-562011
-561976
-562090
-562052
-562254
-562426
-562605
-562472
-562261
-562075
-561957
-561958
-561878
-561866
-562059
-562247
-562325
-562196
-561828
-561727
-561613
-561579
-561381
-561325
-561453
-561534
-561602
-561493
-561240
-561071
-560993
-560773
-560664
-560695
-560810
-560862
-560994
-560854
-560628
-560478
-560269
-560373
-560308
-560353
-560379
-560816
-560965
-560888
-560788
-560608
-560615
-560675
-560717
-560812
-561113
-561247
-561512
-561524
-561503
-561444
-561381
-561462
-561461
-561541
-561883
-562155
-562341
-562294
-562170
-562070
-561942
-561989
-562016
-562050
-562352
-562469
-562685
-562572
-562270
-562237
-562154
-562272
-562193
-562416
-562582
-562793
-562397
-562399
-562433
-563222
-563515
-563820
-563775
-563809
-564089
-564359
-564491
-564316
-564744
-564601
-564414
-564437
-564433
-564380
-564439
-564415
-564758
-564984
-565051
-564976
-564808
-564661
-564624
-564659
-564677
-564715
-564982
-565215
-565295
-565217
-564998
-564983
-564834
-564943
-564961
-565018
-565259
-565511
-565692
-565638
-565418
-565304
-565314
-565393
-565479
-565581
-565878
-566028
-566210
-566173
-566040
-566041
-566083
-566177
-566284
-566408
-566744
-566890
-567143
-567159
-567129
-567057
-567100
-567248
-567317
-567423
-567730
-567977
-568107
-567942
-567933
-567791
-567677
-567672
-567741
-567848
-568058
-568244
-568304
-568075
-567970
-567936
-567778
-567759
-567757
-567711
-567929
-568004
-568067
-567950
-567675
-567501
-567486
-567465
-567335
-567376
-567541
-567724
-567656
-567501
-567273
-567053
-566980
-566839
-566814
-566655
-566756
-566785
-566674
-566351
-565985
-565691
-565397
-565195
-564857
-564625
-564606
-564525
-564365
-563896
-563403
-563026
-562633
-562383
-562045
-561770
-561684
-561555
-561312
-560957
-560421
-560020
-559767
-559517
-559186
-558985
-558959
-558811
-558688
-558663
-557999
-557483
-557337
-557182
-557025
-556910
-557074
-557086
-557199
-557041
-556795
-556562
-556478
-556438
-556428
-556461
-556739
-556883
-556944
-556856
-556742
-556581
-556547
-556626
-556638
-556593
-556963
-557184
-557338
-557415
-557194
-557081
-557091
-557161
-557257
-557344
-557690
-557871
-557992
-557968
-557915
-557825
-557931
-558025
-558176
-558444
-558668
-558870
-558924
-558781
-558776
-558848
-559076
-559109
-559331
-559691
-559834
-560117
-560083
-559926
-559969
-559932
-559995
-560055
-560257
-560540
-560687
-560853
-560793
-560677
-560511
-560552
-560668
-560649
-560821
-561050
-561246
-561407
-561306
-561242
-561190
-561243
-561283
-561407
-561489
-561700
-561974
-562035
-561945
-561804
-561683
-561770
-561790
-561793
-561836
-562113
-562219
-562288
-562238
-561973
-561794
-561705
-561674
-561657
-561695
-561909
-562055
-561942
-561891
-561614
-561554
-561454
-561459
-561532
-561769
-561873
-561858
-561773
-561622
-561502
-561433
-561341
-561279
-561249
-561480
-561676
-561681
-561553
-561371
-561233
-561071
-561262
-561164
-561256
-561813
-561735
-561835
-561725
-561570
-561549
-561534
-561774
-561631
-561671
-562006
-562186
-562337
-562308
-562304
-562107
-562150
-562246
-562302
-562482
-562710
-562916
-563000
-562933
-562843
-562738
-562780
-562842
-562858
-562912
-563152
-563277
-563254
-563245
-563046
-562929
-562915
-562933
-562978
-563159
-563361
-563562
-563614
-563599
-563454
-563367
-563512
-563608
-563664
-563872
-564234
-564353
-564448
-564397
-564356
-564231
-564247
-564300
-564432
-564492
-564831
-564932
-564961
-564932
-564807
-564638
-564718
-564711
-564720
-564779
-564981
-565129
-565124
-565132
-565021
-564915
-564797
-564776
-564793
-564968
-565265
-565425
-565459
-565439
-565180
-565039
-565022
-565142
-565159
-565264
-565549
-565709
-565786
-565709
-565574
-565488
-565519
-565530
-565578
-565702
-565999
-566125
-566071
-566080
-565866
-565760
-565844
-565804
-565845
-566044
-566240
-566380
-566323
-566309
-566107
-566063
-565933
-566041
-566068
-566176
-566457
-566655
-566653
-566631
-566406
-566358
-566404
-566446
-566441
-566563
-566908
-566953
-566989
-566981
-566942
-566699
-566722
-566687
-566792
-566914
-567068
-567242
-567160
-567110
-566895
-566724
-566606
-566632
-566582
-566571
-566795
-566823
-566830
-566725
-566451
-566212
-566138
-565961
-565905
-565752
-565799
-565741
-565390
-564934
-564493
-564023
-563750
-563323
-563087
-562898
-562551
-562302
-561934
-561510
-560857
-560330
-559985
-559578
-559227
-559071
-559044
-558851
-558511
-558016
-557536
-557161
-556817
-556614
-556383
-556283
-556369
-556394
-556249
-555858
-555649
-555397
-555189
-555167
-555089
-555141
-555339
-555368
-555265
-555200
-554928
-554787
-554790
-554771
-554945
-555225
-555253
-555150
-555017
-554852
-554736
-554707
-554655
-554738
-554963
-555065
-555132
-555106
-554964
-554766
-554663
-554765
-554777
-554759
-554892
-555136
-555418
-555432
-555260
-555188
-555103
-554992
-555154
-555013
-555429
-555609
-555875
-555898
-555817
-555808
-555815
-555852
-555971
-556032
-556272
-556592
-556773
-556877
-556871
-556828
-556769
-556945
-557027
-557129
-557433
-557746
-558048
-558190
-558049
-558132
-558023
-558162
-558255
-558375
-558656
-558889
-559095
-559106
-558942
-558884
-558603
-558835
-558748
-558755
-558888
-559144
-559299
-559237
-559039
-558875
-558750
-558697
-558640
-558602
-558807
-559091
-559208
-559231
-558991
-558818
-558713
-558592
-558616
-558618
-558752
-559054
-559247
-559186
-559028
-558940
-558793
-558843
-558868
-558832
-558987
-559165
-559294
-559183
-559039
-558893
-558796
-558756
-558702
-558689
-558793
-559077
-559168
-559093
-558851
-558765
-558598
-558606
-558492
-558516
-558629
-558862
-558947
-558934
-558682
-558560
-558402
-558382
-558325
-558345
-558520
-558843
-559046
-558972
-558787
-558629
-558518
-558540
-558467
-558515
-558572
-558779
-558844
-558823
-558573
-558393
-558285
-558220
-558139
-558082
-558211
-558342
-558525
-557867
-557835
-557868
-557883
-558188
-558292
-558270
-558114
-558004
-557996
-558007
-557985
-557978
-558156
-558554
-558742
-558732
-558531
-558549
-558408
-558532
-558592
-558638
-558848
-559257
-559369
-559395
-559331
-559286
-559260
-559323
-559330
-559435
-559670
-560022
-560094
-560116
-560039
-560231
-559987
-559981
-559933
-559971
-560113
-560463
-560732
-560617
-560499
-560415
-560402
-560462
-560517
-560554
-560747
-561151
-561324
-561319
-561195
-561137
-561250
-561168
-561154
-561241
-561397
-561652
-561923
-561898
-561855
-561719
-561716
-561799
-561838
-561843
-562058
-562308
-562479
-562420
-562299
-562206
-562022
-562028
-562197
-562130
-562325
-562626
-562647
-562568
-562391
-562340
-562107
-562146
-562171
-562248
-562357
-562621
-562799
-562658
-562517
-562449
-562272
-562203
-562291
-562272
-562499
-562779
-562818
-562722
-562529
-562421
-562299
-562335
-562351
-562219
-562299
-562544
-562526
-562281
-561977
-561753
-561503
-561265
-561044
-560752
-560674
-560588
-560445
-559909
-559443
-559057
-558438
-558148
-557677
-557300
-557096
-556951
-556653
-556173
-555609
-555133
-554646
-554305
-554021
-553690
-553450
-553448
-553252
-552902
-552445
-552160
-551811
-551666
-551467
-551292
-551221
-551411
-551387
-551126
-550922
-550681
-550485
-550425
-550285
-550445
-550738
-550748
-550658
-550504
-550383
-550259
-550310
-550355
-550387
-550549
-550832
-550973
-550822
-550753
-550734
-550666
-550710
-550763
-550795
-550992
-551240
-551454
-551342
-551272
-551187
-551162
-551252
-551279
-551257
-551496
-551821
-551838
-551848
-551830
-551846
-551761
-551959
-551914
-552006
-552184
-552540
-552657
-552661
-552564
-552490
-552360
-552517
-552491
-552595
-552776
-553149
-553296
-553227
-553135
-552980
-552966
-553008
-553000
-552971
-553116
-553342
-553538
-553367
-553225
-553084
-552911
-552912
-552949
-552924
-553135
-553299
-553473
-553341
-553162
-553109
-552998
-553052
-553017
-553180
-553351
-553562
-553671
-553700
-553420
-553354
-553246
-553269
-553279
-553195
-553311
-553548
-553691
-553566
-553332
-553171
-553048
-553013
-552961
-553133
-553222
-553359
-553566
-553087
-552845
-552729
-552683
-552573
-552500
-552668
-552835
-552915
-552804
-552590
-552408
-552334
-552327
-552253
-552276
-552457
-552537
-552677
-552610
-552528
-552372
-552306
-552364
-552376
-552510
-552703
-552882
-553061
-552982
-552855
-552779
-552689
-552821
-552777
-552764
-552988
-553276
-553354
-553349
-553174
-553134
-553054
-553027
-553031
-553041
-553282
-553443
-553513
-553478
-553306
-553140
-553077
-553093
-553040
-553018
-553240
-553372
-553460
-553501
-553400
-553383
-553198
-553310
-553340
-553394
-553640
-553941
-554110
-554143
-554036
-553966
-553901
-553994
-554042
-554133
-554439
-554639
-554812
-554868
-554721
-554639
-554588
-554726
-554750
-554814
-555096
-555259
-555439
-555355
-555269
-555171
-555123
-555168
-555162
-555264
-555421
-555677
-555798
-555753
-555541
-555474
-555447
-555439
-555492
-555465
-555694
-555961
-556125
-555989
-555828
-555795
-555706
-555579
-555699
-555771
-555925
-556104
-556226
-556007
-555910
-556250
-555598
-555577
-555507
-555486
-555684
-555830
-555956
-555806
-555558
-555439
-555290
-555342
-555370
-555381
-555659
-555692
-555802
-555642
-555520
-555409
-555376
-555350
-555455
-555518
-555718
-556071
-556149
-556057
-555982
-555879
-555797
-555874
-555852
-556032
-556340
-556512
-556621
-556613
-556476
-556401
-556358
-556431
-556467
-556470
-556719
-556898
-557019
-556834
-556699
-556452
-556368
-556285
-556229
-556164
-556251
-556322
-556364
-556046
-555713
-555329
-555123
-554864
-554561
-554339
-554323
-554252
-553997
-553569
-553073
-552661
-552218
-551873
-551540
-551315
-551290
-550976
-550792
-550350
-549811
-549372
-549031
-548670
-548363
-548116
-548133
-548002
-547971
-547615
-547187
-546787
-546498
-546256
-546021
-545910
-545983
-546078
-546032
-545864
-545536
-545312
-545053
-544998
-545015
-545021
-545206
-545411
-545458
-545357
-545134
-545033
-545049
-545019
-544956
-545073
-545376
-545599
-545720
-545655
-545450
-545375
-545372
-545499
-545490
-545540
-545875
-546160
-546352
-546283
-546125
-546088
-545996
-546007
-546090
-546091
-546420
-546737
-546961
-546890
-546665
-546542
-546509
-546549
-546600
-546721
-547035
-547310
-547399
-547313
-547170
-547081
-546986
-547087
-547119
-547316
-547577
-547970
-548086
-548070
-547867
-547748
-547729
-547723
-547701
-547860
-548145
-548366
-548572
-548511
-548259
-548090
-548001
-548018
-548044
-548014
-548274
-548425
-548519
-548435
-548207
-548032
-547936
-547968
-547938
-547856
-548263
-548390
-548585
-548414
-548308
-548083
-548008
-548015
-547888
-547952
-548266
-548520
-548622
-548437
-548212
-548020
-547932
-547925
-547844
-547856
-548181
-548462
-548499
-548341
-548035
-547895
-547755
-547823
-547780
-547678
-548045
-548331
-548422
-548355
-548109
-547974
-548697
-548809
-548717
-548598
-548462
-548351
-548442
-548401
-548568
-548975
-549279
-549488
-549352
-549088
-548868
-548878
-548889
-548866
-548884
-549264
-549529
-549657
-549586
-549324
-549117
-549054
-549021
-549035
-549008
-549397
-549696
-549757
-549645
-549369
-549176
-549092
-549058
-549066
-549109
-549306
-549711
-549876
-549845
-549639
-549379
-549393
-549430
-549487
-549593
-549941
-550189
-550443
-550317
-550180
-549956
-549924
-549980
-550110
-550211
-550697
-550918
-550997
-551024
-550828
-550608
-550495
-550586
-550580
-550721
-551243
-551483
-551550
-551623
-551368
-551180
-551128
-551226
-551276
-551399
-551812
-552095
-552126
-552091
-551880
-551577
-551583
-551552
-551575
-551713
-552044
-552274
-552276
-552143
-551893
-551576
-551560
-551434
-551420
-551483
-551896
-552115
-552097
-551942
-551639
-551350
-551304
-551308
-551317
-551392
-551737
-551947
-551998
-551795
-551498
-551310
-551333
-551412
-551446
-551562
-551824
-552288
-552400
-552463
-552207
-552185
-552301
-552457
-552613
-552888
-553432
-553684
-553802
-553734
-553548
-553296
-553272
-553391
-553441
-553584
-554049
-554281
-554293
-554193
-553884
-553722
-553597
-553571
-553568
-553560
-553867
-554022
-553849
-553582
-553257
-552871
-552716
-552503
-552328
-552416
-552746
-552842
-552812
-552570
-552190
-551878
-551724
-551620
-551353
-551364
-551470
-551539
-551335
-550988
-550484
-550044
-549652
-549387
-549110
-548983
-549083
-549020
-548735
-548296
-547661
-547100
-546677
-546286
-545910
-545675
-545740
-545617
-545151
-544646
-544007
-543445
-542989
-542648
-542164
-542060
-541993
-541957
-541599
-541172
-540764
-540139
-539815
-539587
-539427
-539393
-539518
-539556
-539234
-539125
-538875
-538579
-538476
-538295
-538250
-538345
-538587
-538762
-538648
-538572
-538224
-537959
-537912
-537873
-537748
-537859
-538176
-538444
-538277
-538032
-537865
-537533
-537372
-537225
-537108
-537163
-537370
-537448
-537507
-537274
-537069
-536831
-536747
-536764
-536742
-537025
-537354
-537135
-537204
-537174
-537271
-537530
-537870
-538251
-538321
-538181
-538136
-538094
-538148
-538094
-538185
-538524
-539068
-539463
-539641
-539657
-539660
-539551
-539706
-539743
-539959
-540353
-540818
-541189
-541313
-541145
-541005
-540848
-540885
-541002
-540993
-541207
-541611
-541913
-541914
-541813
-541658
-541846
-541573
-541472
-541491
-541601
-541977
-542361
-542328
-542179
-541897
-541708
-541639
-541527
-541503
-541770
-542055
-542114
-542086
-541891
-541645
-541291
-541205
-541143
-541098
-541351
-541535
-541762
-541635
-541425
-541158
-540899
-540719
-540578
-540450
-540605
-540845
-541114
-540894
-540659
-540367
-540122
-539928
-539807
-539790
-539903
-540123
-540322
-540274
-539994
-539684
-539397
-539132
-538934
-538903
-539058
-539216
-539388
-539271
-539018
-538744
-538472
-538244
-538161
-538140
-538339
-538751
-538943
-538975
-538749
-538666
-538370
-538330
-538378
-538319
-538673
-539039
-539413
-539494
-539335
-539317
-539214
-539357
-539485
-539691
-540067
-540745
-541189
-541317
-541302
-541332
-541325
-541343
-541471
-541605
-541821
-542281
-542591
-542647
-542568
-542404
-542271
-542219
-542297
-542307
-542554
-543005
-543181
-543117
-542824
-542642
-542321
-542103
-542106
-542002
-542205
-542481
-542686
-542578
-542248
-542017
-541667
-541601
-541421
-541354
-541510
-541866
-542130
-541995
-541790
-541505
-541216
-541269
-541180
-541080
-541262
-541580
-541781
-541729
-541450
-541202
-540918
-540996
-540945
-540851
-541092
-541418
-541639
-541590
-541347
-541186
-540925
-540923
-540891
-540910
-541076
-541352
-541644
-541594
-541294
-541142
-540873
-540830
-540806
-540815
-540996
-541400
-541729
-541639
-541458
-541294
-541078
-541121
-541176
-541152
-541407
-541910
-542163
-542062
-541927
-541817
-541614
-541619
-541577
-541605
-541855
-542272
-542483
-542384
-542175
-542020
-541753
-541600
-541608
-541465
-541518
-541842
-541917
-541625
-541278
-540857
-540374
-540040
-539842
-539601
-539531
-539671
-539509
-539146
-538599
-538148
-537586
-537274
-536982
-536666
-536600
-536759
-536753
-536379
-535837
-535424
-534938
-534576
-534412
-534137
-534155
-534404
-534360
-534111
-533740
-533384
-532939
-532862
-532664
-532419
-532611
-532981
-533064
-532838
-532650
-532384
-532117
-532112
-532149
-532018
-532180
-532593
-532779
-532648
-532460
-532171
-531957
-531902
-531931
-531967
-532225
-532616
-532869
-532867
-532664
-532637
-532497
-532561
-532664
-532692
-532987
-533524
-533879
-533910
-533820
-533737
-533630
-533788
-533924
-533943
-534261
-534801
-535182
-535187
-535035
-535005
-534914
-534973
-535168
-535221
-535566
-536080
-536301
-536335
-536134
-536089
-535973
-535977
-536109
-536062
-536427
-536975
-537243
-537167
-537086
-536878
-536769
-536864
-536937
-536943
-537117
-537567
-537682
-537548
-537511
-537184
-536900
-536848
-536995
-537721
-537585
-537238
-537080
-536977
-536979
-536929
-536919
-537105
-537564
-537734
-537616
-537390
-537187
-536961
-536984
-537025
-537004
-537254
-537688
-537884
-537775
-537565
-537334
-537174
-537123
-537206
-537108
-537315
-537718
-537912
-537834
-537590
-537337
-537149
-537135
-537046
-537043
-537277
-537603
-537780
-537531
-537278
-537098
-536790
-536742
-536721
-536607
-536875
-537237
-537447
-537302
-537085
-536889
-536661
-536670
-536625
-536567
-536831
-537082
-537396
-537328
-537102
-536924
-536796
-536728
-536797
-536788
-536991
-537427
-537746
-537695
-537406
-537265
-537134
-537192
-537189
-537042
-537432
-537818
-538068
-537988
-537678
-537565
-537447
-537483
-537480
-537492
-537749
-538208
-538488
-538402
-538223
-538031
-537988
-538066
-538023
-537980
-538316
-538683
-538872
-538789
-538530
-538452
-538353
-538403
-538379
-538410
-538799
-539115
-539307
-539235
-538963
-538811
-538689
-538588
-538539
-538522
-538825
-539137
-539375
-539264
-538989
-538753
-538623
-538720
-538634
-538643
-539017
-539305
-539556
-539507
-539290
-539143
-538913
-538982
-538884
-538995
-539324
-539658
-540003
-539845
-539682
-539523
-539432
-539438
-539381
-539449
-539821
-540123
-540420
-540346
-540159
-540103
-539960
-539911
-539884
-539953
-540321
-540643
-540905
-540832
-540564
-540435
-540256
-540270
-540219
-540189
-540533
-540723
-540917
-540884
-540548
-540386
-540132
-540045
-539952
-539774
-540102
-540339
-540537
-540260
-539881
-539571
-539241
-539067
-538804
-538604
-538647
-538768
-538708
-538362
-537799
-537282
-536860
-536489
-536095
-535826
-535906
-535865
-535643
-535193
-534695
-534226
-533807
-533514
-533212
-532913
-532902
-533188
-533165
-532850
-532399
-532026
-531714
-531555
-531443
-531321
-531622
-531721
-531987
-531809
-531527
-531277
-531045
-531029
-530902
-530887
-531612
-531619
-531708
-531557
-531392
-531124
-531046
-530960
-531316
-531539
-531651
-531822
-532120
-532039
-531886
-531776
-531627
-531667
-531653
-531776
-532197
-532580
-532824
-532743
-532550
-532423
-532266
-532239
-532340
-532351
-532683
-533026
-533244
-533477
-533004
-532903
-533044
-533134
-532876
-532812
-533296
-533528
-533694
-533686
-533476
-533129
-533177
-533210
-533234
-533235
-533610
-533924
-534087
-534071
-533730
-533508
-533399
-533442
-533431
-533532
-533931
-534290
-534535
-534508
-534219
-534137
-533913
-534010
-533988
-534063
-534451
-534878
-535169
-535051
-534816
-534615
-534555
-534591
-534541
-534607
-535006
-535293
-535936
-535499
-535075
-534769
-534676
-534681
-534578
-534631
-534879
-535154
-535262
-535092
-534769
-534592
-534257
-534196
-534060
-534009
-534393
-534606
-534667
-534355
-534069
-533878
-533810
-533904
-533806
-533754
-534112
-534355
-534555
-534542
-534146
-533964
-533818
-533803
-533747
-533827
-534211
-534472
-534691
-534786
-534357
-533964
-533916
-533913
-533840
-533866
-534280
-534580
-534781
-534657
-534313
-534137
-534057
-534058
-534085
-534050
-534524
-534848
-535091
-534954
-534734
-534592
-534495
-534563
-534538
-534648
-535128
-535820
-535719
-535689
-535511
-535396
-535469
-535511
-535695
-536202
-536549
-536830
-537049
-536642
-536504
-536437
-536310
-536468
-536966
-537145
-537451
-537641
-537522
-537619
-537115
-537110
-537158
-537164
-537226
-537670
-537995
-538148
-537998
-537822
-537622
-537507
-537522
-537506
-537620
-538091
-538276
-538486
-538413
-538203
-537944
-537917
-537948
-537874
-537952
-538366
-538680
-538897
-538809
-538561
-538342
-538086
-538054
-538125
-538271
-538739
-538963
-539189
-539154
-538847
-538589
-538551
-538619
-538583
-538635
-539049
-539375
-539534
-539528
-539707
-539202
-538980
-539073
-538993
-539192
-539511
-539807
-540067
-539936
-539627
-539490
-539465
-539492
-539476
-539442
-539896
-540107
-540235
-540594
-539853
-539647
-539491
-539409
-539301
-539286
-539648
-539809
-539783
-539409
-538956
-538521
-538183
-538037
-537671
-537540
-537813
-537684
-537311
-536950
-536352
-535740
-535482
-535701
-535050
-534723
-534859
-534736
-534547
-534126
-533541
-533052
-532720
-532514
-532233
-532171
-532389
-532414
-532285
-531989
-531604
-531152
-530936
-530776
-530738
-530784
-531041
-531213
-531254
-531056
-530761
-530483
-530406
-530329
-530288
-530314
-530662
-530836
-530962
-530929
-530476
-530470
-530689
-531068
-531367
-531465
-531362
-531215
-530938
-530879
-531004
-530878
-531121
-531583
-531844
-531961
-531924
-531658
-531594
-531322
-531482
-531917
-531753
-532418
-532409
-532426
-532261
-531929
-531805
-531655
-531591
-531503
-531731
-532147
-532556
-532612
-532444
-532167
-531909
-531726
-531931
-531943
-532088
-532365
-532800
-532919
-532889
-532682
-532435
-532527
-532599
-532660
-532918
-533806
-533798
-533836
-533763
-533646
-533548
-533484
-533559
-533720
-534135
-534465
-534516
-534369
-534185
-533929
-533899
-533812
-533741
-533892
-534164
-534387
-534367
-534112
-533823
-533540
-533518
-533386
-533312
-533470
-533783
-534081
-534092
-533923
-533753
-533469
-533382
-533415
-533371
-533557
-533865
-534168
-534207
-533990
-533788
-533498
-533550
-533454
-533457
-533678
-533955
-534268
-534198
-534080
-533818
-533612
-533480
-533548
-533554
-533741
-534056
-534415
-534411
-534214
-533965
-533771
-533801
-533812
-533774
-534049
-534399
-534684
-534752
-534642
-534415
-534228
-534161
-534158
-534065
-534237
-534731
-534914
-534745
-534470
-534204
-534212
-534162
-534181
-534537
-534872
-535158
-535162
-534900
-534766
-534650
-534539
-534608
-534696
-534883
-535324
-535613
-535670
-535476
-535387
-535176
-535152
-535262
-535251
-535572
-535990
-536267
-536305
-536132
-536045
-535888
-535883
-535886
-535920
-536122
-536599
-536945
-536950
-536755
-536662
-536479
-536423
-536363
-536406
-536681
-537012
-537291
-537375
-537189
-537070
-536794
-536737
-536607
-536669
-536915
-537252
-537580
-537539
-537362
-537206
-536945
-536933
-536980
-536949
-537199
-537639
-537977
-538011
-537878
-537654
-537490
-537495
-537434
-537546
-537763
-538223
-538568
-538642
-538444
-538324
-538154
-538172
-538043
-538041
-538370
-538744
-539092
-539151
-538916
-538632
-538433
-538347
-538253
-538128
-538189
-538425
-538523
-538422
-537905
-537438
-536988
-536680
-536351
-536013
-535881
-535971
-535802
-535461
-534729
-534182
-533660
-533247
-532836
-532481
-532407
-532456
-532365
-532053
-531417
-530904
-530338
-529961
-529696
-529435
-529381
-529464
-529512
-529314
-528822
-528419
-527993
-527790
-527599
-527437
-527505
-527775
-527892
-527787
-527426
-527087
-526961
-526772
-526795
-526660
-526845
-527337
-527569
-527545
-527343
-527163
-526970
-527038
-527001
-526961
-527184
-527695
-528098
-528030
-527777
-527597
-527419
-527460
-527404
-527438
-527652
-528130
-528383
-528420
-528228
-528074
-527889
-527903
-527961
-528191
-528601
-528867
-528841
-528660
-528587
-528359
-528442
-528419
-528412
-528624
-529116
-529415
-529366
-529173
-529064
-528888
-528844
-528904
-528927
-529138
-529512
-529777
-529773
-529483
-529356
-529096
-529083
-529070
-529064
-529214
-529600
-529932
-529915
-529708
-529511
-529289
-529396
-529372
-529395
-529664
-530098
-530426
-530358
-530241
-530152
-529930
-529908
-529884
-529962
-530177
-530652
-530878
-530842
-530667
-530505
-530258
-530225
-530230
-530245
-530464
-530925
-531117
-531038
-530774
-530647
-530389
-530279
-530197
-530124
-530329
-530758
-530893
-530746
-530465
-530168
-529898
-529936
-529852
-529762
-529948
-530349
-530563
-530440
-530185
-529997
-529731
-529810
-529808
-529730
-529970
-530503
-530720
-530569
-530423
-530225
-529978
-529983
-529914
-529922
-530148
-530555
-530759
-530778
-530566
-530385
-530138
-530185
-530214
-530211
-530419
-530957
-531225
-531121
-530940
-530772
-530533
-530596
-530677
-530717
-530994
-531492
-531721
-531629
-531434
-531287
-531066
-531075
-531138
-531153
-531366
-531875
-532156
-532142
-531901
-531765
-531643
-531660
-531687
-531671
-531913
-532445
-532782
-532628
-532453
-532394
-532324
-532428
-532541
-532671
-533215
-533480
-533322
-533205
-533039
-532955
-532953
-533006
-532988
-533211
-533640
-533783
-533648
-533384
-533100
-532937
-532867
-532956
-532979
-533329
-533843
-534103
-533980
-533864
-533760
-533538
-533608
-533715
-533879
-534164
-534651
-534981
-534937
-534640
-534474
-534198
-534096
-534063
-534050
-534290
-534665
-534954
-534921
-534659
-534484
-534281
-534177
-534201
-534087
-534333
-534745
-534853
-534764
-534561
-534271
-533961
-533900
-533830
-533627
-533798
-534034
-534105
-533756
-533380
-532947
-532483
-532220
-531914
-531584
-531588
-531568
-531590
-531099
-530598
-530024
-529483
-529074
-528794
-528335
-528320
-528396
-528274
-527740
-527227
-526748
-526292
-526010
-525794
-525397
-525447
-525500
-525584
-525197
-524855
-524513
-524190
-524095
-523926
-523892
-523975
-524208
-524422
-524196
-523832
-523552
-523311
-523266
-523141
-523059
-523196
-523505
-523699
-523639
-523456
-523330
-523133
-523103
-523117
-523104
-523416
-523850
-524075
-523994
-523782
-523614
-523473
-523523
-523530
-523818
-524222
-524492
-524438
-524181
-523980
-523883
-523829
-523808
-523858
-524148
-524544
-524826
-524757
-524462
-524353
-524164
-524166
-524122
-524187
-524747
-524578
-524499
-524493
-524454
-524485
-524922
-525241
-525601
-525537
-525249
-525204
-525142
-525143
-525152
-525200
-525661
-526119
-526382
-526430
-526224
-526132
-526059
-526041
-526109
-526180
-526626
-526987
-527312
-527178
-527018
-526814
-526721
-526725
-526646
-526635
-527044
-527310
-527582
-527535
-527306
-527228
-527020
-527079
-527101
-527034
-527397
-527680
-527896
-527898
-527633
-527578
-527377
-527414
-527477
-527514
-527831
-528127
-528406
-528308
-528006
-527854
-527764
-527678
-527623
-527636
-527882
-528173
-528418
-528279
-528048
-527773
-527608
-527637
-527599
-527517
-527962
-528205
-528327
-528337
-528033
-527889
-527687
-527650
-527687
-527693
-527958
-528280
-528477
-528427
-528128
-527967
-527823
-527833
-527780
-527729
-528104
-528381
-528575
-528503
-528217
-528045
-527917
-527903
-527907
-527962
-528330
-528650
-528880
-528758
-528537
-528290
-528171
-528114
-528227
-528199
-528493
-528872
-529123
-528972
-528815
-528620
-528471
-528512
-528414
-528377
-528709
-529066
-529263
-529176
-528873
-528734
-528517
-528560
-528500
-528474
-528847
-529162
-529379
-529302
-529022
-528847
-528808
-528822
-528730
-528820
-529151
-529486
-529771
-529724
-529440
-529263
-529157
-529254
-529228
-529274
-529650
-529979
-530215
-530156
-529897
-529800
-529629
-529702
-529646
-529729
-530078
-530431
-530694
-530473
-530327
-530022
-529969
-529952
-529918
-529965
-530281
-530630
-530828
-530670
-530349
-530167
-530012
-530029
-529908
-529988
-530226
-530462
-530661
-530441
-530033
-529771
-529630
-529487
-529334
-529202
-529377
-529562
-529588
-529316
-528837
-528433
-528112
-527969
-527762
-527555
-527640
-527643
-527513
-527031
-526545
-526054
-525633
-525321
-524951
-524626
-524669
-524605
-524484
-523976
-523406
-522813
-522413
-522118
-521744
-521424
-521482
-521470
-521345
-520946
-520503
-519993
-519680
-519484
-519201
-519015
-519235
-519367
-519395
-519048
-518660
-518335
-518176
-518081
-518008
-517963
-518273
-518512
-518665
-518467
-518293
-518036
-517893
-517855
-517919
-517934
-518326
-518676
-518861
-518754
-518458
-518353
-518264
-518317
-518265
-518350
-518728
-519083
-519305
-519156
-518912
-518749
-518697
-518791
-518693
-518847
-519229
-519443
-519626
-519470
-519188
-518944
-518929
-518946
-518874
-518910
-519356
-519606
-519719
-519597
-519291
-519247
-519207
-519289
-519275
-519478
-519858
-520168
-520407
-520307
-520048
-519887
-519869
-520005
-519898
-520032
-520435
-520674
-520991
-520840
-520616
-520355
-520244
-520386
-520346
-520396
-520750
-520931
-521160
-520941
-520720
-520469
-520363
-520352
-520303
-520299
-520741
-521027
-521199
-521020
-520788
-520698
-520576
-520601
-520583
-520681
-521084
-521298
-521471
-521318
-521082
-520855
-520792
-520833
-520765
-520871
-521186
-521425
-521541
-521506
-521194
-520976
-520936
-520864
-520832
-520995
-521257
-521472
-521674
-521483
-521160
-520912
-520815
-520781
-520741
-520815
-521189
-521440
-521462
-521405
-521107
-520922
-520820
-520844
-520784
-520842
-521198
-521419
-521516
-521443
-521243
-520991
-520982
-520977
-520946
-521072
-521453
-521688
-521802
-521708
-521469
-521380
-521306
-521366
-521319
-521484
-521897
-522184
-522320
-522242
-522017
-521768
-521732
-521802
-521852
-522022
-522447
-522683
-522812
-522703
-522514
-522373
-522404
-522553
-522617
-522738
-523120
-523447
-523615
-523596
-523344
-523210
-523225
-523255
-523379
-523452
-523940
-524201
-524195
-524113
-523785
-523644
-523515
-523615
-523680
-523765
-524139
-524357
-524362
-524371
-524170
-523900
-523811
-523754
-523831
-523896
-524273
-524544
-524623
-524479
-524280
-524018
-523991
-524037
-523989
-524169
-524453
-524829
-524901
-524758
-524475
-524238
-524269
-524256
-524290
-524450
-524732
-525055
-525160
-525079
-524809
-524682
-524586
-524703
-524691
-524836
-525280
-525633
-525568
-525500
-525262
-525103
-525030
-525037
-525062
-525297
-525683
-525923
-525919
-525771
-525554
-525313
-525247
-525180
-525299
-525445
-525774
-525982
-526006
-525889
-525420
-525292
-525221
-525213
-525155
-525295
-525529
-525667
-525585
-525453
-524920
-524648
-524412
-524171
-523943
-523830
-524001
-524042
-523741
-523304
-522751
-522141
-521822
-521506
-521056
-520909
-520922
-520869
-520426
-519862
-519343
-518677
-518313
-517975
-517670
-517550
-517613
-517524
-517271
-516881
-516338
-515872
-515666
-515367
-515198
-515182
-515470
-515612
-515484
-515213
-514840
-514268
-514517
-514773
-515006
-514982
-514711
-514487
-514247
-514127
-514053
-514133
-514354
-514688
-514901
-514933
-514854
-514664
-514445
-514437
-514223
-514267
-514566
-514956
-515174
-515207
-515020
-514784
-514398
-514408
-514372
-514396
-514581
-514906
-515138
-515108
-514832
-514581
-514401
-514395
-514309
-514278
-514465
-514837
-515040
-515050
-514881
-514537
-514383
-514335
-514267
-514334
-514542
-515000
-515288
-515316
-515071
-514858
-514599
-514605
-514561
-514636
-514972
-515394
-515746
-515708
-515556
-515232
-515017
-515089
-515025
-515027
-515291
-515702
-516059
-515981
-515763
-515471
-515190
-515124
-515068
-515107
-515442
-515821
-516148
-516134
-515853
-515612
-515294
-515281
-515282
-515361
-515641
-516057
-516379
-516471
-516226
-515981
-515690
-515625
-515594
-515604
-515920
-516383
-516815
-516737
-516433
-516148
-515827
-515742
-515685
-515646
-515893
-516353
-516546
-516563
-516231
-515991
-515595
-515471
-515394
-515731
-515677
-516034
-516275
-516216
-516008
-515715
-515309
-515266
-515101
-515009
-515362
-515897
-516117
-516049
-515711
-515444
-515210
-515152
-515041
-515037
-515326
-515846
-516081
-516004
-515669
-515511
-515009
-515099
-515051
-515023
-515331
-515779
-516112
-516118
-515690
-515524
-515173
-515152
-515147
-515168
-515370
-515859
-516184
-516116
-515877
-515668
-515410
-515346
-515332
-515322
-515618
-516144
-516490
-516422
-516129
-515959
-515720
-515706
-515631
-515565
-515779
-516292
-516625
-516541
-516145
-515915
-515609
-515587
-515489
-515452
-515718
-516212
-516529
-516419
-516065
-515795
-515441
-515424
-515411
-515374
-515552
-516026
-516321
-516229
-515902
-515722
-515428
-515364
-515341
-515346
-515448
-516101
-516420
-516364
-516148
-515983
-515731
-515685
-515704
-515633
-515981
-516507
-516835
-516809
-516544
-516305
-515954
-515974
-515946
-515873
-516144
-516691
-516971
-516817
-516551
-516373
-516063
-516013
-516044
-515990
-516180
-516642
-517002
-516832
-516519
-516305
-516028
-515964
-515878
-515889
-516111
-516675
-516943
-516747
-516385
-516217
-515916
-515933
-515974
-515923
-516216
-516703
-516984
-516877
-516594
-516394
-516063
-516144
-516124
-516076
-516355
-516923
-517238
-516997
-516781
-516500
-516183
-516233
-516118
-516141
-516519
-517048
-517253
-517120
-516838
-516695
-516360
-516416
-516328
-516645
-517134
-517393
-517263
-516901
-516730
-516473
-516435
-516575
-516504
-516852
-517489
-517663
-517492
-517303
-517479
-516989
-517024
-517087
-517050
-517338
-517925
-518224
-518049
-517805
-517594
-517305
-517395
-517371
-517324
-517600
-518155
-518377
-518285
-517945
-517781
-517547
-517496
-517434
-517430
-517753
-518313
-518631
-518415
-518079
-517888
-517508
-517383
-517395
-517222
-517307
-517656
-517796
-517503
-516956
-516543
-515998
-515671
-515395
-515077
-515055
-515191
-514957
-514532
-513826
-513303
-512772
-512337
-511907
-511539
-511530
-511711
-511556
-511046
-510430
-509869
-509333
-508975
-508730
-508367
