PPG
-619528
-619621
-619741
-619785
-619962
-620241
-620455
-620393
-620661
-620808
-620910
-620812
-620840
-620548
-620685
-620667
-620536
-620460
-620446
-620444
-620574
-620806
-620771
-620871
-620989
-621076
-621172
-621213
-621292
-621475
-621641
-621736
-621846
-621853
-621980
-622050
-622202
-622296
-622337
-622466
-622552
-622571
-622764
-622774
-622997
-623060
-623231
-623310
-623401
-623475
-623644
-623721
-623737
-623850
-624002
-624100
-624164
-624312
-624411
-624423
-624523
-624666
-624770
-624940
-625070
-625315
-625533
-625676
-625727
-625741
-625784
-625793
-625819
-625872
-625960
-626058
-626045
-626166
-626268
-626270
-626348
-626469
-626525
-626566
-626694
-626867
-627030
-627228
-627442
-627727
-627843
-627989
-628038
-628421
-628532
-628641
-629124
-630028
-630238
-630578
-630774
-630978
-631173
-631343
-631408
-631689
-631822
-632012
-632136
-632149
-632241
-632393
-632551
-632613
-632729
-632891
-632954
-633100
-633274
-633420
-633533
-633675
-633706
-633818
-633975
-634162
-634307
-634412
-634507
-634624
-634742
-634868
-634942
-635141
-635268
-635438
-635571
-635762
-635870
-636096
-636218
-636363
-636523
-636627
-636794
-636924
-637055
-637310
-637476
-637665
-638042
-637930
-638047
-638134
-638247
-638212
-638432
-638586
-638727
-638817
-638866
-639053
-639155
-639274
-639424
-639510
-639679
-639827
-640027
-640026
-640148
-640370
-640458
-640616
-640790
-640936
-641095
-641251
-641373
-641513
-641619
-641807
-641950
-642143
-642325
-642458
-642603
-642739
-642898
-643069
-643283
-643393
-643515
-643649
-643851
-643934
-644145
-644141
-644316
-644397
-644581
-644649
-644911
-644960
-644994
-645281
-645328
-645481
-645597
-645743
-645866
-645936
-646025
-646108
-646233
-646362
-646606
-646679
-646819
-646937
-647064
-647068
-647212
-647251
-647439
-647545
-647564
-647635
-647709
-647774
-647965
-648081
-648124
-648193
-648274
-648332
-648492
-648547
-648613
-648546
-648723
-648818
-648811
-648912
-649015
-649123
-649043
-649138
-649249
-649139
-649178
-649161
-649135
-649147
-649144
-649132
-649234
-649236
-649225
-649164
-649168
-649163
-649204
-649152
-649343
-649389
-649425
-649410
-649493
-649588
-649559
-649654
-649689
-649813
-649941
-650109
-650178
-650225
-650349
-650490
-650525
-650546
-650686
-650714
-650761
-650898
-650990
-650941
-651026
-650970
-651071
-651075
-651041
-651093
-651157
-651101
-651160
-651085
-651059
-651097
-651087
-651105
-651144
-651140
-651084
-651124
-651670
-651313
-651180
-651166
-651188
-651217
-651295
-651321
-651424
-651518
-651652
-651809
-651839
-651900
-651985
-651970
-652116
-652134
-652302
-652272
-652412
-652529
-652526
-652602
-652716
-652758
-652761
-652798
-652881
-653062
-653139
-653062
-653204
-653316
-653372
-653445
-653494
-653575
-653546
-653671
-653737
-653761
-653787
-653715
-653733
-653702
-653766
-653890
-653852
-653873
-653886
-653843
-653906
-654009
-653954
-654025
-654041
-654115
-654235
-654225
-654330
-654296
-654336
-654310
-654420
-654433
-654565
-654623
-654698
-654786
-654861
-654904
-654928
-655047
-655049
-655019
-655104
-654972
-655136
-655124
-655047
-655016
-654991
-654969
-654750
-654822
-654702
-654561
-654483
-654335
-654170
-654035
-653948
-653836
-653743
-653630
-653498
-653403
-653310
-653171
-653191
-653605
-654011
-653875
-653625
-653377
-653163
-653122
-652968
-652996
-652970
-652947
-652903
-652893
-652837
-652820
-652928
-652988
-652982
-652915
-652875
-652901
-652832
-652941
-652995
-653056
-653016
-652984
-653127
-653057
-653040
-653247
-653177
-653217
-653122
-653180
-653298
-653358
-653448
-653540
-653602
-653675
-653657
-653555
-653636
-653742
-653743
-653752
-653773
-653814
-653852
-653848
-653706
-653737
-653835
-653942
-653932
-653948
-653944
-653935
-654036
-654033
-653968
-654034
-654001
-654078
-654062
-654133
-654095
-654052
-654059
-654019
-654058
-654034
-654058
-654099
-654040
-654088
-653945
-653982
-653874
-653965
-653918
-653866
-653939
-653826
-653859
-653835
-653814
-653817
-653730
-653773
-653810
-653812
-653752
-653909
-653865
-653888
-653873
-653965
-653956
-654058
-654151
-654218
-654285
-654386
-654513
-654686
-654793
-654805
-654906
-655023
-655051
-655058
-655244
-655432
-655509
-655645
-655802
-655804
-655683
-655946
-656135
-656298
-656485
-656605
-656772
-656916
-656996
-657206
-657421
-657538
-657728
-657907
-658111
-658274
-658595
-658759
-658928
-659221
-659339
-659527
-659762
-659814
-659900
-660062
-660247
-660292
-660432
-660558
-660725
-660842
-660940
-661201
-661336
-661445
-661538
-661610
-661740
-661849
-662079
-662182
-662264
-662421
-662547
-662674
-662859
-663056
-663111
-663284
-663307
-663500
-663555
-663695
-663834
-663990
-664039
-664114
-664194
-664284
-664324
-664413
-664493
-664664
-664748
-664808
-664945
-664905
-664934
-664935
-665024
-665102
-665159
-665124
-665098
-665045
-664939
-665025
-665598
-665276
-665176
-665224
-665313
-665278
-665266
-665344
-665188
-665301
-665313
-665230
-665266
-665277
-665250
-665258
-665266
-665263
-665245
-665256
-665143
-665139
-665034
-665091
-665094
-665076
-665015
-664938
-664974
-664915
-664825
-664770
-664692
-664482
-664465
-664409
-664349
-664376
-664291
-664228
-664171
-664160
-664110
-664061
-663981
-663893
-663957
-663914
-664040
-663896
-664011
-664025
-663993
-664098
-664167
-664108
-664186
-664219
-664230
-664374
-664410
-664666
-664563
-664728
-664760
-664840
-664898
-665055
-665060
-665115
-665133
-665228
-665266
-665273
-665364
-665505
-665529
-665586
-665629
-665711
-665779
-665751
-665851
-665834
-665934
-665978
-666031
-666036
-666108
-666205
-666250
-666319
-666290
-666415
-666373
-666445
-666479
-666449
-666530
-666576
-666527
-666618
-666710
-666751
-666867
-666906
-666977
-667141
-667217
-667187
-667302
-667307
-667464
-667481
-667593
-667746
-667914
-668059
-668138
-668201
-668321
-668358
-668427
-668621
-668759
-668722
-668836
-668933
-668941
-669075
-669148
-669142
-669167
-669182
-669142
-669041
-668974
-668931
-668945
-668933
-668886
-668860
-668811
-668806
-668752
-668769
-668630
-668616
-668587
-668517
-668404
-668409
-668471
-668406
-668484
-668453
-668364
-668349
-668545
-668451
-668304
-668267
-668284
-668311
-668344
-668216
-668180
-668247
-668227
-668294
-668254
-668265
-668246
-668370
-668343
-668307
-668310
-668402
-668321
-668434
-668277
-668350
-668348
-668341
-668344
-668385
-668683
-668238
-668108
-668123
-668018
-667971
-667946
-667965
-667903
-667840
-667824
-667701
-667551
-667559
-667500
-667367
-667261
-667144
-667107
-666971
-666704
-666791
-666695
-666650
-666654
-666530
-666467
-666499
-666344
-666243
-666220
-666056
-665934
-665872
-665758
-665657
-665582
-665494
-665343
-665249
-665139
-665041
-664893
-664779
-664613
-664427
-664355
-664270
-664136
-664155
-664073
-663923
-663870
-663729
-663565
-663566
-663484
-663362
-663265
-663168
-663102
-663045
-662969
-662859
-662710
-662678
-662636
-662634
-662603
-662498
-662435
-662427
-662369
-662265
-662142
-662166
-662118
-662045
-661912
-661896
-661859
-661834
-661737
-661738
-661652
-661605
-661635
-661651
-661632
-661592
-661591
-661545
-661607
-661641
-661610
-661622
-661669
-661612
-661667
-661797
-661850
-661829
-661850
-661968
-662009
-661959
-662044
-662131
-662091
-662060
-662121
-662103
-662115
-662107
-662193
-662239
-662191
-662291
-662183
-662184
-662180
-662236
-662270
-662291
-662189
-662198
-662187
-662242
-662229
-662225
-662381
-662361
-662370
-662466
-662506
-662522
-662509
-662571
-662550
-662517
-662611
-662565
-662555
-662582
-662665
-662671
-662799
-662879
-662901
-662886
-662938
-663031
-663107
-663191
-663367
-663554
-663718
-663906
-664062
-664241
-664362
-664556
-664655
-664675
-664837
-665092
-665250
-665407
-665674
-665909
-666063
-666367
-666550
-666702
-666932
-667122
-667335
-667547
-667726
-667877
-667981
-668135
-667857
-667303
-667252
-667496
-667738
-667744
-667810
-667788
-667905
-668139
-668201
-668290
-668324
-668436
-668555
-668684
-668844
-668869
-669094
-669157
-669265
-669355
-669447
-669624
-669826
-669870
-670208
-670285
-670402
-670560
-670612
-670716
-670814
-670962
-670965
-671046
-671133
-671334
-671386
-671438
-671607
-671756
-671790
-671953
-672058
-672203
-672217
-672269
-672360
-672425
-672514
-672637
-672729
-672918
-672891
-673019
-673101
-673150
-673203
-673267
-673379
-673344
-673464
-674093
-673793
-673837
-673906
-674005
-674119
-674143
-674149
-674247
-674351
-674435
-674489
-674553
-674687
-674773
-674918
-674962
-675146
-675210
-675362
-675398
-675512
-675668
-675796
-675968
-675972
-676194
-676235
-676359
-676533
-676679
-676843
-676929
-677042
-677155
-677421
-677511
-677597
-677851
-678414
-678357
-678406
-678479
-678660
-678855
-678929
-678945
-679174
-679267
-679443
-679635
-679821
-680013
-680133
-680230
-680375
-680516
-680660
-680830
-680936
-681158
-681220
-681009
-680515
-680379
-680674
-680823
-681037
-681124
-681181
-681238
-681379
-681483
-681626
-681693
-681779
-681852
-681908
-681950
-682201
-682289
-682394
-682482
-682479
-682721
-682714
-682821
-682847
-682963
-683538
-683578
-683654
-683517
-683561
-683487
-683511
-683565
-683485
-683548
-683684
-683594
-683630
-683672
-683605
-683611
-683644
-683598
-683607
-683712
-683692
-683766
-683772
-683831
-683849
-683868
-683964
-684008
-684124
-684150
-684288
-684314
-684412
-684516
-684639
-684778
-684783
-684867
-684812
-684911
-685029
-684711
-684916
-684913
-685019
-685051
-685117
-685106
-684931
-684954
-685003
-685148
-685085
-685081
-685070
-685234
-685288
-685296
-685271
-685313
-685302
-685415
-685457
-685351
-685349
-685439
-685451
-685456
-685383
-685303
-685271
-685139
-685138
-685068
-685012
-684897
-684942
-684864
-684871
-684849
-684797
-684816
-684713
-684746
-684569
-684635
-684602
-684533
-684507
-684319
-684176
-684028
-684084
-683847
-683703
-683615
-683461
-683233
-683345
-683357
-683243
-683271
-683297
-683208
-683145
-683293
-683285
-683236
-683237
-683472
-683578
-685891
-685901
-686395
-686570
-687109
-686938
-686799
-687059
-687029
-686929
-686882
-686851
-686770
-686826
-686653
-686592
-686574
-686428
-686334
-686205
-686196
-686176
-686192
-686242
-686178
-686221
-686113
-686120
-686233
-686143
-686179
-686193
-686261
-686241
-686257
-686234
-686263
-686248
-686294
-686295
-686299
-686316
-686352
-686342
-686375
-686447
-686450
-686580
-686477
-686647
-686710
-686727
-686731
-686681
-686699
-686810
-686837
-686922
-686826
-686796
-686919
-686942
-687002
-687108
-687158
-687194
-687199
-687120
-687203
-687240
-687266
-687309
-687298
-687444
-687505
-687570
-687595
-687592
-687476
-687490
-687585
-687572
-687574
-687536
-687560
-687596
-687593
-687639
-687673
-687622
-687660
-687652
-687679
-687687
-687695
-687660
-687675
-687718
-687728
-687806
-687813
-687845
-687810
-687779
-687893
-687835
-687814
-687945
-687846
-687832
-687877
-687939
-687782
-687840
-687831
-687741
-687667
-687628
-687625
-687663
-687540
-687572
-687565
-687417
-687451
-687415
-687155
-687319
-687334
-687126
-687192
-687220
-687314
-687258
-687429
-687595
-687817
-687880
-687809
-687826
-687758
-687826
-687906
-687872
-687858
-687868
-687694
-687961
-688022
-688157
-688297
-688330
-688431
-688558
-688581
-688570
-688625
-688756
-688856
-688960
-689014
-689011
-689156
-689317
-689430
-689458
-689584
-689726
-689821
-689899
-690030
-690149
-690301
-690494
-690594
-690649
-692421
-692455
-692573
-692457
-692612
-692790
-692791
-692771
-692837
-692867
-692905
-692898
-692845
-692768
-692825
-692695
-692773
-692763
-692718
-692716
-692709
-692665
-692598
-692609
-692522
-692568
-692483
-692498
-692435
-692451
-692492
-692433
-692450
-692371
-692346
-692397
-692374
-692415
-692538
-692510
-692479
-692469
-692436
-692441
-692513
-692470
-692555
-692591
-692520
-692566
-692555
-692980
-693177
-693215
-693133
-692881
-692893
-692879
-692750
-692763
-692716
-692646
-692641
-692792
-692819
-692927
-693232
-693407
-693273
-693200
-693157
-693171
-693302
-693264
-693166
-693106
-693100
-693022
-693019
-693092
-693429
-693509
-693459
-693379
-693311
-693280
-693279
-693321
-693446
-693534
-693523
-693447
-693458
-693456
-693493
-693342
-693379
-693323
-693320
-693309
-693262
-693115
-693103
-693220
-692963
-692854
-692762
-692739
-692513
-692418
-692353
-692266
-692187
-692075
-691981
-691859
-691756
-691713
-691521
-691429
-691295
-691211
-691062
-690902
-690815
-690728
-690566
-690329
-690249
-690078
-690102
-689985
-689827
-689834
-689796
-689773
-689819
-689695
-689769
-689739
-689821
-689828
-689847
-689781
-689853
-689906
-690017
-689978
-690037
-690033
-690131
-690086
-690028
-690059
-690033
-690205
-690216
-690147
-690209
-690270
-690224
-690303
-690708
-691334
-691713
-691724
-691552
-691429
-691409
-691414
-691329
-691364
-691296
-691239
-691298
-691213
-691209
-691277
-691247
-691136
-691091
-691147
-691122
-690985
-691245
-691335
-691654
-691829
-691912
-691919
-691888
-691889
-691936
-691988
-692006
-692082
-692087
-692076
-692116
-692137
-692127
-692149
-692183
-692307
-692392
-692507
-692571
-692669
-692721
-692749
-692878
-692918
-692925
-692912
-692945
-693173
-693187
-693336
-693445
-693557
-693632
-693669
-693772
-693902
-694049
-694092
-694331
-694373
-694515
-694578
-694689
-694799
-694759
-695000
-695121
-695316
-695454
-695592
-695747
-695847
-695997
-696156
-696256
-696530
-696640
-697117
-697113
-697173
-697333
-697289
-697617
-697815
-697724
-698011
-698147
-698122
-698382
-698663
-698820
-698873
-699022
-699077
-699257
-699350
-699426
-699608
-699676
-699786
-699985
-700078
-700210
-700321
-700436
-700547
-700624
-700876
-701073
-701171
-701314
-701437
-701479
-701586
-701670
-701862
-701926
-702089
-702281
-702341
-702435
-702967
-703191
-704264
-706174
-706240
-706300
-706379
-706496
-706569
-706667
-706913
-706981
-707132
-707258
-707319
-707441
-707560
-707654
-707679
-707743
-707901
-707980
-708116
-708261
-708419
-708429
-708435
-708628
-708622
-708715
-708644
-708715
-708768
-708957
-708989
-709106
-709254
-709415
-709504
-709610
-709670
-709858
-709958
-710008
-710201
-710247
-710382
-710445
-710544
-710697
-710763
-710827
-710943
-710953
-711033
-711098
-711176
-711236
-711324
-711554
-711592
-711476
-711684
-711779
-711833
-711940
-712065
-712020
-712157
-712193
-712314
-712408
-712424
-712433
-712554
-712590
-712662
-712706
-712842
-712795
-712857
-712893
-712961
-713134
-713188
-713248
-713311
-713476
-713466
-713711
-713780
-713907
-713994
-714043
-714119
-714216
-714262
-714392
-714456
-714486
-714628
-714595
-714621
-714786
-714919
-714949
-714980
-715072
-715338
-715308
-715315
-715363
-715374
-715477
-715476
-715540
-715552
-715750
-715815
-715791
-715749
-715823
-715861
-715897
-716050
-716001
-716140
-716251
-716388
-716425
-716586
-716666
-716745
-716813
-716924
-717145
-717205
-717394
-717439
-717561
-717665
-717660
-717746
-717862
-718030
-718062
-718070
-718190
-718270
-718428
-718448
-718494
-718533
-718643
-718663
-718774
-718856
-718935
-719001
-719128
-719085
-719102
-719221
-719292
-719315
-719258
-719315
-719445
-719463
-719519
-719540
-720007
-719604
-719436
-720091
-719597
-719406
-719212
-719262
-719184
-719131
-719144
-719072
-718952
-718965
-718802
-718770
-718766
-718819
-718761
-718704
-718706
-718744
-718707
-718518
-718421
-718484
-718373
-718126
-717688
-717343
-717296
-717266
-717096
-717031
-716976
-716906
-716779
-716733
-716671
-716667
-716517
-716484
-716320
-716218
-716203
-716119
-716209
-716192
-716181
-716227
-716186
-716289
-716261
-716273
-716467
-716554
-716633
-716757
-716849
-716904
-716970
-717198
-717224
-717349
-717515
-717631
-717816
-717827
-717962
-718065
-718112
-718173
-718275
-718370
-718484
-718471
-718591
-718615
-718704
-718781
-718853
-718833
-718829
-718977
-718940
-718907
-718979
-719022
-719054
-718988
-719085
-719058
-719040
-719049
-719107
-719144
-719119
-719165
-719245
-719131
-719113
-719150
-719123
-719114
-719227
-719269
-719343
-719301
-719320
-719389
-719406
-719447
-719398
-719450
-719593
-719730
-719735
-719751
-719813
-719904
-719990
-720075
-720149
-720327
-720321
-720459
-720522
-720723
-720756
-720887
-720935
-721012
-721126
-721244
-721465
-721559
-722278
-721899
-721878
-722033
-722088
-722073
-722225
-722251
-722382
-722409
-722453
-722586
-722649
-722803
-722770
-722779
-722841
-722853
-722984
-723033
-723058
-723182
-723355
-723390
-723393
-723426
-723473
-723669
-723660
-723784
-723896
-723986
-724197
-724202
-724337
-724418
-724436
-724462
-724622
-724753
-724838
-724908
-725045
-725092
-725177
-725279
-725310
-725355
-725332
-725475
-725545
-725713
-725711
-725693
-725758
-725725
-725720
-725770
-725732
-725860
-726418
-726078
-726017
-726003
-726137
-726111
-726147
-726283
-726335
-726405
-726516
-726352
-726567
-726679
-726763
-726848
-727082
-727105
-727181
-727332
-727413
-728079
-727819
-728382
-728121
-728185
-728214
-728316
-728432
-728674
-728714
-728825
-729091
-729235
-729542
-729758
-729999
-730214
-730855
-731633
-733752
-733901
-733981
-735468
-735619
-735598
-735753
-735697
-735852
-735884
-736046
-736080
-736156
-736255
-736333
-736393
-736511
-736516
-736664
-736733
-736842
-736972
-737061
-737124
-737240
-738482
-739005
-739677
-739841
-739961
-740125
-740162
-740337
-740680
-740824
-740950
-741287
-741481
-741543
-741914
-741999
-742053
-742163
-742221
-742241
-742297
-742394
-742408
-742537
-742639
-742655
-742761
-742710
-742728
-742784
-742941
-742990
-743064
-743089
-743121
-743342
-743282
-743432
-743449
-743571
-743732
-743877
-744056
-744024
-744122
-744229
-744303
-744334
-744513
-744525
-744564
-744532
-744679
-744769
-744706
-744756
-744748
-744638
-744554
-744586
-744598
-744557
-744507
-744400
-744267
-744052
-743879
-743829
-743673
-743557
-743459
-743274
-743225
-743077
-742980
-742905
-742857
-742770
-742592
-742547
-742419
-742377
-742276
-742249
-742173
-742140
-742230
-742155
-742111
-742127
-742170
-742158
-742062
-742006
-742061
-742140
-742051
-742154
-742260
-742249
-742278
-742342
-742297
-742328
-742364
-742409
-742890
-742850
-742982
-743561
-743662
-743721
-743834
-743904
-744082
-744125
-744263
-744281
-744482
-744546
-744634
-744784
-744911
-744939
-745000
-745034
-745143
-745383
-745463
-745488
-745583
-745635
-745815
-745831
-745882
-745902
-746043
-746003
-746094
-746153
-746216
-746251
-746382
-746461
-746437
-746484
-746592
-746591
-746691
-746794
-746815
-746916
-746865
-746932
-747213
-747215
-747264
-747317
-747368
-747476
-747588
-747672
-747716
-747893
-747966
-748011
-748160
-748191
-748218
-747856
-747629
-747652
-747787
-747971
-748096
-748175
-748315
-748388
-748544
-748620
-748697
-748901
-748963
-749041
-749166
-749285
-749325
-749465
-749620
-749715
-749642
-749695
-749826
-749799
-749961
-749946
-750029
-750174
-750257
-750320
-750412
-750479
-750421
-750564
-750638
-750653
-750788
-750874
-750967
-750966
-751027
-751178
-751296
-751341
-751371
-751419
-751559
-751723
-751854
-751830
-751899
-752039
-752048
-752107
-752265
-752381
-752466
-752584
-752602
-752751
-752709
-752736
-752834
-752598
-752880
-752978
-753063
-753275
-753323
-753422
-753398
-753414
-753492
-753690
-753654
-753679
-753799
-753951
-753978
-754089
-754406
-754237
-754226
-754387
-754457
-754474
-754702
-754719
-754822
-754937
-754996
-755100
-755255
-755307
-755379
-755564
-755759
-755916
-756020
-756080
-756115
-756317
-756411
-756581
-756631
-756704
-756824
-757051
-757243
-757280
-757421
-757535
-757523
-757656
-757787
-757880
-758021
-758206
-758262
-758406
-758465
-758523
-758715
-758725
-758808
-758871
-758924
-759015
-759080
-759192
-759200
-759311
-759483
-759427
-759551
-759647
-759661
-759798
-760560
-760224
-760200
-760280
-760365
-760535
-760589
-760818
-760956
-761061
-761156
-761348
-761442
-761459
-761658
-761682
-761844
-761922
-762117
-762230
-762311
-762454
-762566
-762667
-762738
-762836
-762901
-762907
-763106
-763225
-763330
-763470
-763516
-763576
-763765
-763825
-763903
-763971
-764176
-764243
-764315
-764426
-764516
-764579
-764739
-764705
-764929
-764989
-765178
-765241
-765364
-765431
-765692
-765714
-765859
-765915
-766106
-766243
-766308
-766346
-766500
-766553
-766688
-766739
-766860
-766947
-767045
-767087
-767247
-767295
-767346
-767486
-767369
-767584
-767593
-767663
-767853
-768047
-768116
-768147
-768328
-768393
-768473
-768789
-768877
-768972
-769189
-769304
-769354
-769471
-769640
-769794
-769798
-769951
-770009
-770213
-770350
-770528
-770581
-770657
-770674
-771325
-770987
-771059
-771089
-771268
-771376
-771466
-771585
-771570
-771628
-771642
-771763
-771852
-772022
-772150
-772249
-772234
-772331
-772456
-772550
-772651
-772650
-772745
-772809
-772943
-773036
-773146
-773129
-773159
-773170
-773262
-773064
-773266
-773381
-773452
-773393
-773360
-773336
-773330
-773342
-773229
-773248
-773064
-773023
-773018
-773045
-772872
-772842
-772805
-772719
-772575
-772466
-772320
-772172
-771994
-771833
-771808
-771693
-771646
-771385
-771203
-771220
-771129
-771067
-770864
-770716
-770706
-770520
-770461
-770434
-770364
-770373
-770341
-770339
-770398
-770414
-770379
-770327
-770331
-770400
-770414
-770589
-770681
-770618
-770737
-770864
-770872
-770987
-770999
-771158
-771249
-771255
-771335
-771602
-771757
-771725
-771833
-771815
-772015
-772089
-772105
-772194
-772327
-772415
-772937
-772598
-772596
-772658
-773235
-772929
-772814
-772746
-772587
-773131
-773189
-773158
-773286
-773725
-773529
-773610
-773662
-773762
-773824
-773938
-774098
-774177
-773962
-773541
-773170
-773230
-773318
-773435
-773524
-773499
-773523
-773560
-773475
-773507
-773508
-773605
-773688
-773639
-773803
-773849
-773861
-773852
-773938
-773963
-774109
-774116
-774072
-774213
-774255
-774501
-774451
-774671
-774641
-774819
-774818
-774997
-775111
-775283
-775433
-775378
-775510
-775565
-775743
-775801
-775800
-775971
-775982
-776117
-776347
-776392
-776450
-776495
-776575
-776608
-776673
-776830
-776962
-776999
-777202
-777253
-777275
-777173
-777213
-777188
-777089
-777120
-777150
-777251
-777343
-777529
-777689
-777526
-777821
-778087
-778299
-778469
-778733
-778584
-778267
-778043
-778133
-778420
-779023
-778793
-778716
-778853
-779127
-779040
-778993
-778911
-778835
-778901
-778766
-778665
-778742
-778753
-778684
-778627
-778651
-778558
-778439
-778512
-778521
-778440
-778472
-778534
-778491
-778572
-778644
-778707
-778725
-778869
-778886
-779007
-779112
-779202
-779314
-779457
-779645
-779720
-779794
-779864
-780131
-780161
-780381
-780516
-780610
-780759
-780894
-781037
-781110
-781202
-781317
-781166
-781432
-781568
-781576
-781640
-781647
-781673
-781693
-781821
-781757
-781767
-781834
-781859
-781892
-781926
-782051
-781964
-782064
-782074
-781914
-782074
-782136
-782303
-782267
-782000
-782340
-782378
-782397
-782429
-782469
-782463
-782497
-782590
-782601
-782636
-782614
-782704
-782698
-782742
-782818
-782842
-782906
-783005
-782914
-783002
-783173
-783189
-783603
-783576
-783665
-783824
-784017
-783980
-784087
-784093
-784132
-784235
-784356
-784337
-784400
-784394
-784454
-784404
-784444
-784510
-784556
-784582
-784646
-784560
-784636
-784641
-784734
-784638
-784644
-784573
-784552
-784608
-784712
-784859
-785093
-785153
-785292
-785340
-785379
-785470
-785451
-785652
-785683
-785827
-785838
-785845
-785894
-785903
-786026
-786009
-785984
-785991
-785988
-786038
-786086
-786116
-786248
-786198
-786277
-786266
-786319
-786357
-786394
-786507
-786462
-786596
-786635
-786571
-786746
-786702
-786641
-786583
-786586
-786616
-786541
-786622
-786726
-786654
-786734
-786766
-786813
-786918
-786990
-787052
-786970
-787079
-787182
-787114
-787206
-787291
-787411
-787498
-787438
-787537
-787534
-787503
-787456
-787428
-787420
-787306
-787256
-787383
-787209
-786979
-786786
-786739
-786685
-786568
-786348
-786077
-785967
-785787
-785596
-785424
-785267
-785087
-784825
-784769
-784520
-784311
-784049
-783948
-783646
-783504
-783186
-783438
-783092
-782953
-782748
-782738
-782546
-782378
-782265
-782139
-782084
-781953
-781794
-781729
-781612
-781447
-781457
-781316
-781226
-781193
-781101
-781019
-781067
-780990
-780996
-780950
-780943
-780974
-780954
-780921
-781013
-781020
-780974
-781058
-781117
-781091
-781161
-781178
-781202
-781186
-781263
-781337
-781392
-781311
-781414
-781445
-781459
-781507
-781639
-781610
-781639
-781652
-781698
-781759
-781776
-781842
-781783
-781732
-781810
-781800
-781765
-781673
-781817
-781746
-781708
-781746
-781634
-781627
-781555
-781548
-781568
-781572
-781448
-781384
-781411
-781355
-781425
-781274
-781255
-781238
-781311
-781259
-781357
-781228
-781204
-781245
-781198
-781287
-781349
-781335
-781420
-781346
-781387
-781477
-781519
-781463
-781543
-781504
-781483
-781627
-781732
-781883
-781925
-781926
-782023
-782016
-782113
-781789
-782115
-782084
-782194
-782206
-782256
-782340
-782418
-782436
-782433
-782424
-782347
-782424
-782372
-782549
-782590
-782480
-782569
-782641
-782770
-782880
-782874
-782959
-783073
-783126
-783238
-783195
-783332
-783294
-783434
-783386
-783443
-783514
-783603
-783589
-783655
-783618
-783682
-783673
-783731
-783693
-783632
-783779
-783740
-783770
-783704
-783851
-783868
-783767
-783795
-783691
-783780
-783877
-783800
-783817
-783768
-783760
-783788
-783880
-783878
-783886
-784052
-784005
-783989
-783962
-783992
-784122
-784125
-784088
-784076
-784218
-784292
-784301
-784334
-784510
-784520
-784542
-784595
-784648
-784696
-784749
-785084
-784974
-784951
-784965
-785064
-785108
-785145
-785178
-785086
-785092
-785159
-785240
-785201
-785314
-785371
-785294
-785359
-785482
-785548
-785589
-785557
-785578
-785472
-785779
-785764
-785867
-785944
-785952
-785969
-786024
-786059
-786072
-786215
-786098
-786141
-786130
-786200
-786138
-786149
-786190
-786250
-786412
-786445
-786449
-786380
-786435
-786592
-786697
-786660
-786778
-786816
-786757
-786894
-786900
-786984
-786872
-786862
-786880
-786999
-787041
-787133
-787161
-787197
-787222
-787271
-787334
-787325
-787369
-787366
-787444
-787556
-787612
-787631
-787775
-787848
-787800
-787766
-787840
-787940
-788022
-788045
-788084
-788147
-788192
-788203
-788347
-788317
-788435
-788466
-788451
-788563
-788478
-788638
-788688
-788637
-788651
-788625
-788757
-788797
-788862
-788907
-789005
-788906
-788985
-788940
-789045
-789040
-788998
-788960
-789082
-789236
-789351
-789383
-789398
-789437
-789529
-789596
-789735
-789756
-789795
-789818
-789828
-789882
-789936
-789998
-790097
-790007
-790179
-790121
-790120
-790205
-790281
-790346
-790392
-790548
-790602
-790565
-790637
-790679
-790749
-790875
-790848
-790919
-790976
-791082
-791007
-791112
-791103
-791108
-791175
-791325
-791330
-791447
-791381
-791421
-791470
-791548
-791552
-791665
-791800
-791777
-791747
-791802
-791831
-791907
-791837
-791831
-791785
-791768
-791776
-791746
-791744
-791763
-791638
-791599
-791571
-791439
-791325
-791261
-791157
-791111
-791040
-790936
-790851
-790662
-790475
-790350
-790268
-790126
-789912
-789740
-789544
-789419
-789274
-789030
-788843
-788646
-788546
-788380
-788166
-787846
-787763
-787678
-787476
-787490
-787357
-787209
-787180
-787128
-787021
-787054
-786948
-786988
-786953
-786946
-786902
-786852
-786840
-786837
-786918
-786990
-786952
-786925
-786906
-786847
-786865
-786838
-786879
-786889
-786861
-786859
-786908
-786934
-786922
-786923
-786871
-786752
-786796
-786907
-786948
-786988
-786964
-786991
-787099
-787119
-787196
-787106
-787246
-787254
-787220
-787186
-787133
-787241
-787164
-787243
-787250
-787178
-787132
-787090
-787091
-787044
-786982
-786860
-786890
-786889
-786927
-786811
-786736
-786708
-786722
-786647
-786643
-786545
-786603
-786533
-786556
-786479
-786437
-786418
-786479
-786421
-786372
-786414
-786379
-786418
-786471
-786387
-786428
-786450
-786504
-786462
-786436
-786437
-786417
-786388
-786444
-786532
-786481
-786587
-786469
-786567
-786467
-786499
-786626
-786707
-786807
-786825
-786876
-786900
-786941
-787035
-787073
-787048
-787068
-787056
-787105
-787136
-787070
-787152
-787135
-787106
-787097
-787121
-787140
-787167
-787118
-787199
-787182
-787114
-787084
-787098
-787078
-787103
-787162
-787200
-787234
-787240
-787247
-787311
-787261
-787284
-787213
-787275
-787341
-787337
-787479
-787502
-787489
-787417
-787491
-787422
-787391
-787402
-787391
-787506
-787436
-787459
-787557
-787447
-787512
-787527
-787573
-787593
-787683
-787673
-787698
-787684
-787840
-787800
-787833
-787886
-787827
-787920
-787999
-788000
-788059
-788219
-788129
-788212
-788223
-788370
-788350
-788386
-788234
-788526
-788595
-788624
-788819
-788816
-788871
-788890
-788976
-788946
-789124
-789087
-789076
-789138
-789250
-789236
-789328
-789294
-789368
-789334
-789292
-789347
-789392
-789416
-789405
-789444
-789458
-789521
-789578
-789688
-789734
-789712
-789776
-789772
-789963
-789938
-789946
-790136
-790121
-790315
-790423
-790452
-790464
-790499
-790540
-790605
-790618
-790622
-790699
-790747
-790807
-790788
-790868
-790935
-791001
-791014
-790994
-791102
-791197
-791149
-791273
-791251
-791349
-791353
-791331
-791347
-791423
-791465
-791518
-791683
-791709
-791680
-791663
-791704
-791691
-791725
-791859
-791894
-792002
-792549
-792172
-792200
-792167
-792151
-792196
-792242
-792230
-792269
-792419
-792345
-792339
-792445
-792474
-792546
-792447
-792459
-792546
-792636
-792607
-792775
-792795
-792720
-792874
-792835
-792928
-792819
-792877
-792989
-793005
-793051
-793104
-793153
-793125
-793297
-793292
-793348
-793488
-793474
-793496
-793597
-793574
-793664
-793602
-793752
-793799
-793860
-794027
-793927
-794026
-794140
-794196
-794201
-794234
-794280
-794330
-794453
-794519
-794547
-794559
-794588
-794618
-794646
-794672
-794798
-794824
-795002
-795004
-794989
-795063
-795065
-795122
-795114
-795290
-795258
-795339
-795370
-795431
-795456
-795338
-795642
-795445
-795386
-795288
-795257
-795182
-795188
-795200
-795175
-794988
-794871
-794696
-794632
-794523
-794296
-794230
-794126
-794000
-793801
-793640
-793453
-793226
-793095
-792854
-792638
-792543
-792225
-792194
-792000
-791772
-791629
-791401
-791245
-791007
-790829
-790781
-790649
-790447
-790305
-790204
-790176
-790033
-789970
-789847
-789718
-789597
-789578
-789416
-789491
-789287
-789281
-789236
-789137
-789126
-789138
-789043
-789078
-789121
-789167
-789092
-789128
-789147
-789108
-789181
-789135
-789171
-789294
-789251
-789220
-789221
-789272
-789323
-789401
-789379
-789345
-789448
-789475
-789504
-789492
-789424
-789500
-789423
-789388
-789355
-789416
-789472
-789430
-789387
-789386
-789306
-789282
-789271
-789289
-789235
-789248
-789232
-789201
-789212
-789142
-789203
-789183
-789082
-788984
-788952
-788943
-788896
-788903
-788914
-788949
-788884
-788886
-788909
-788820
-788863
-788901
-788810
-788820
-788850
-788853
-788758
-788786
-788829
-788770
-788709
-788792
-788895
-788901
-788944
-788973
-788928
-788952
-788886
-788933
-788952
-788977
-789025
-788924
-789106
-789072
-789091
-789134
-789112
-789178
-789144
-789229
-789188
-789193
-789283
-789193
-789332
-789251
-789304
-789266
-789303
-789333
-789396
-789315
-789330
-789328
-789282
-789263
-789125
-789265
-789366
-789345
-789444
-789370
-789430
-789345
-789314
-789297
-789271
-789267
-789287
-789311
-789211
-789326
-789313
-789269
-789261
-789284
-789308
-789328
-789531
-789408
-789387
-789393
-789500
-789460
-789400
-789459
-789554
-789556
-789603
-789563
-789542
-789562
-789534
-789607
-789683
-789593
-789665
-789670
-789720
-789739
-789782
-789804
-789810
-789777
-789740
-789699
-789704
-789671
-789686
-789635
-789784
-789778
-789737
-789655
-789749
-789806
-789714
-789800
-789750
-789803
-789879
-790015
-790004
-790079
-790123
-790100
-790215
-790288
-790353
-790408
-790356
-790454
-790474
-790509
-790574
-790535
-790562
-790585
-790616
-790588
-790566
-790567
-790536
-790590
-790559
-790595
-790619
-790662
-790733
-790717
-790738
-790762
-790884
-790749
-790813
-790848
-790849
-790881
-791072
-791112
-791049
-790975
-791062
-791043
-791048
-791057
-791089
-791182
-791102
-791123
-791188
-791145
-791208
-791157
-791222
-791218
-791173
-791267
-791259
-791251
-791395
-791407
-791488
-791444
-791326
-791459
-791515
-791565
-791740
-791813
-791834
-791836
-791893
-791934
-791893
-791997
-792039
-792028
-792140
-792132
-792106
-792216
-792187
-792224
-792170
-792221
-792216
-792298
-792378
-792369
-792353
-792412
-792366
-792380
-792484
-792545
-792506
-792642
-792721
-792647
-792718
-792812
-792765
-792864
-792787
-792819
-792917
-792920
-793024
-793045
-793057
-793113
-793179
-793339
-793239
-793295
-793261
-793303
-793395
-793483
-793447
-793504
-793502
-793538
-793360
-793393
-793500
-793516
-793569
-793523
-793564
-793472
-793594
-793481
-793442
-793346
-793223
-793278
-793193
-793209
-792991
-792883
-792822
-792515
-792498
-792251
-792185
-792096
-791912
-791811
-791617
-791406
-791138
-791012
-790805
-790560
-790451
-790288
-790057
-789879
-789720
-789468
-789390
-789250
-789067
-788910
-788876
-788729
-788554
-788415
-788348
-788130
-788113
-787908
-787835
-787631
-787590
-787551
-787506
-787434
-787366
-787389
-787217
-787184
-787012
-786958
-786851
-786925
-786828
-786771
-786808
-786700
-786688
-786710
-786720
-786745
-786726
-786679
-786790
-786772
-786746
-786778
-786769
-786726
-786742
-786822
-786835
-786874
-786917
-786912
-787026
-786874
-786854
-786902
-786742
-786688
-786752
-786698
-786739
-786687
-786603
-786624
-786484
-786469
-786451
-786251
-786234
-786194
-786147
-786097
-786058
-786019
-785960
-786476
-786024
-785898
-785799
-785777
-785691
-785629
-785544
-785526
-785507
-785379
-785284
-785299
-785118
-785079
-785116
-785065
-785037
-785016
-785024
-785049
-785045
-784927
-784988
-784980
-784988
-785001
-784834
-785602
-785252
-785262
-785234
-785212
-785275
-785262
-785252
-785288
-785376
-785441
-785391
-785397
-785404
-785485
-785499
-785490
-785538
-785616
-785656
-785645
-785682
-785664
-785659
-785618
-785621
-785701
-785685
-785617
-785655
-785526
-785498
-785491
-785478
-785524
-785560
-785546
-785322
-785323
-785415
-785443
-785408
-785430
-785532
-785510
-785548
-785616
-785567
-785677
-785640
-785598
-785654
-785613
-785574
-785735
-785718
-785686
-785720
-785715
-785799
-785769
-785751
-785765
-785709
-785785
-785732
-785856
-785866
-785699
-785642
-785702
-785763
-785680
-785775
-785757
-785728
-785819
-785743
-785729
-785724
-785689
-785720
-785843
-785770
-785734
-785755
-785819
-785869
-785850
-785900
-785832
-785847
-785793
-785926
-785920
-785971
-785876
-785903
-786033
-786087
-786058
-786060
-786069
-786132
-786159
-786176
-786200
-786161
-786147
-786198
-786203
-786243
-786393
-786430
-786528
-786554
-786677
-786720
-786687
-786624
-786748
-786705
-786762
-786772
-786847
-786877
-786905
-786907
-786892
-786857
-786755
-786704
-786715
-786769
-786829
-786790
-786873
-786807
-786651
-786804
-786968
-787027
-787035
-787116
-787170
-787238
-787208
-787191
-787326
-787285
-787252
-787393
-787323
-787446
-787424
-787516
-787550
-787498
-787551
-787628
-787508
-787668
-787626
-787598
-787696
-787741
-787716
-787682
-787716
-787732
-787728
-787674
-787793
-787738
-787866
-787874
-787929
-787905
-787827
-787834
-787874
-787989
-787947
-788066
-788026
-788114
-788103
-788094
-788198
-788202
-788113
-788077
-788101
-788296
-788389
-788384
-788329
-788365
-788497
-788524
-788546
-788569
-788716
-788759
-788800
-788784
-788756
-788854
-788831
-788906
-788827
-788949
-788978
-789004
-788990
-789113
-789081
-789031
-789083
-789143
-789145
-789280
-789324
-789317
-789285
-789325
-789355
-789502
-789586
-789501
-789546
-789712
-789739
-789818
-789852
-789865
-789876
-789968
-790075
-790189
-790262
-790459
-790539
-790490
-789755
-789041
-789271
-789318
-789572
-789608
-789609
-789716
-789766
-789701
-789795
-789802
-789923
-789887
-789862
-789913
-789947
-789937
-789829
-789832
-789712
-789674
-789607
-789587
-789453
-789375
-789334
-789114
-788913
-788896
-788650
-788543
-788351
-788239
-788086
-787948
-787874
-787635
-787459
-787192
-787128
-786852
-786656
-786508
-786384
-786178
-786026
-785821
-785724
-785635
-785395
-785220
-785137
-785047
-784918
-784804
-784726
-784588
-784638
-784637
-784490
-784467
-784427
-784367
-784288
-784236
-784360
-784275
-784364
-784287
-784165
-784100
-784014
-783957
-783936
-783916
-783826
-783981
-783900
-783749
-783842
-783882
-783847
-783917
-783802
-783877
-783880
-783814
-783854
-783885
-783750
-783820
-783837
-783847
-783806
-783775
-783837
-783720
-783734
-783703
-783675
-783641
-783666
-783578
-783464
-783439
-783375
-783426
-783413
-783373
-782992
-783121
-783187
-783141
-783156
-783044
-783038
-783063
-782983
-782970
-782888
-782969
-782845
-782848
-782857
-782746
-782683
-782782
-782572
-782646
-782605
-782660
-782617
-782636
-782616
-782493
-782500
-782393
-782385
-782327
-782438
-782428
-782976
-782594
-782393
-782415
-782422
-782446
-782452
-782554
-782636
-782670
-783181
-782859
-782793
-782825
-782885
-782941
-782972
-783013
-783075
-783076
-783110
-783153
-783170
-783254
-783249
-783293
-783254
-783326
-783319
-783465
-783377
-783298
-783232
-783292
-783336
-783335
-783381
-783357
-783368
-783289
-783382
-783312
-783318
-783363
-783334
-783395
-783384
-783416
-783413
-783397
-783373
-783262
-783300
-783402
-783346
-783298
-783333
-783439
-783401
-783332
-783238
-783262
-783259
-783262
-783298
-783308
-783197
-783196
-783246
-783264
-783206
-783266
-783230
-783182
-783153
-783178
-783279
-783170
-783199
-783238
-783213
-783296
-783285
-783225
-783224
-783327
-783273
-783339
-783292
-783308
-783291
-783324
-783350
-783334
-783375
-783517
-783576
-783621
-783660
-783766
-783787
-783773
-783835
-783796
-783975
-783950
-783977
-784038
-784086
-784197
-784188
-783984
-784115
-784156
-784188
-784223
-784203
-784277
-784237
-784323
-784288
-784224
-784838
-784475
-784436
-784383
-784427
-784488
-784458
-784577
-784520
-784540
-784602
-784739
-784753
-784817
-784799
-784987
-785077
-784980
-784977
-785076
-785154
-785162
-785209
-785319
-785338
-785383
-785355
-785367
-785425
-785461
-785500
-785596
-785647
-785605
-785587
-785701
-785691
-785803
-785831
-785901
-785940
-785954
-785724
-785440
-785070
-785102
-785142
-785285
-785384
-785412
-785441
-785372
-785479
-785492
-785557
-785630
-785703
-785808
-785937
-786033
-786092
-786042
-785967
-786151
-786229
-786104
-785716
-785896
-785987
-786135
-786145
-786181
-786254
-786272
-786389
-786436
-786492
-786640
-786570
-786527
-786559
-786495
-786581
-786565
-786479
-786447
-786376
-786347
-786246
-786210
-786081
-786138
-786143
-785962
-785844
-785725
-785686
-785672
-785634
-785500
-785422
-785444
-785378
-785242
-785097
-785163
-784988
-784913
-784835
-784829
-784776
-784743
-784742
-784712
-784693
-784749
-784661
-784747
-784770
-784756
-784795
-784880
-784924
-785082
-785170
-785179
-785252
-785390
-785341
-785439
-785458
-785494
-785503
-785680
-785748
-785889
-785945
-785988
-786092
-786192
-786173
-786364
-786421
-786610
-786673
-786896
-787034
-787105
-787212
-787254
-787354
-787364
-787508
-787644
-787602
-787584
-787553
-787685
-787635
-787510
-787397
-787379
-787302
-787189
-787115
-786915
-786809
-786596
-786418
-786229
-785979
-785945
-785765
-785512
-785257
-785144
-784909
-784690
-784459
-784187
-784035
-783780
-783691
-783522
-783258
-783226
-782898
-782679
-782479
-782342
-782060
-781915
-781861
-781670
-781605
-781508
-781263
-781169
-781102
-781004
-780985
-780868
-780849
-780748
-780695
-780639
-780628
-780601
-780606
-780541
-780585
-780558
-780595
-780497
-780549
-780497
-780311
-780290
-780197
-780088
-780122
-780091
-780040
-780065
-779899
-779836
-779697
-779776
-779623
-779523
-779445
-779512
-779439
-779432
-779453
-779478
-779513
-779338
-779360
-779218
-779207
-779245
-779218
-779177
-779049
-779036
-778908
-778861
-778763
-778630
-778539
-778517
-778484
-778406
-778257
-778161
-778053
-778091
-777958
-777993
-777886
-777897
-777910
-777785
-777760
-777845
-777824
-777935
-777833
-777891
-777965
-778020
-777955
-777965
-777939
-778019
-777989
-777976
-777964
-777903
-777939
-777941
-778047
-777989
-777936
-777879
-778041
-778050
-778028
-777942
-777947
-777903
-777945
-777914
-777941
-778025
-778004
-777860
-777892
-777870
-777720
-777668
-777650
-777600
-777495
-777420
-777272
-777211
-777273
-777070
-777099
-776931
-776944
-776856
-776914
-776517
-776596
-776457
-776486
-776434
-776338
-776265
-776289
-776277
-776154
-776033
-776061
-775958
-776002
-775879
-775821
-775780
-775638
-775589
-775556
-775503
-775553
-775496
-775343
-775256
-775303
-775311
-775222
-775093
-775089
-775014
-775073
-775072
-775030
-775029
-774886
-774904
-774952
-774882
-774886
-774929
-774932
-774793
-774792
-774673
-774739
-774609
-774677
-774614
-774604
-774685
-774661
-774729
-774819
-774752
-774608
-774728
-774861
-774918
-775044
-774973
-775025
-775076
-775185
-775243
-775149
-775164
-775179
-775316
-775093
-775116
-775024
-775141
-775196
-775156
-775183
-774961
-775142
-775299
-775371
-775321
-775344
-775415
-775766
-775605
-775625
-776881
-776933
-776972
-777015
-777003
-777061
-777046
-777129
-777201
-777357
-777487
-777443
-777512
-777469
-777513
-777641
-777777
-777729
-777815
-777794
-777898
-777821
-777627
-777749
-777918
-777921
-777960
-777999
-778044
-778054
-777939
-778033
-778103
-778089
-778057
-778186
-778199
-778330
-778423
-778540
-778625
-778634
-778737
-778681
-778746
-778791
-778917
-778968
-779132
-779282
-779799
-779542
-779423
-779366
-779489
-779590
-779643
-779720
-779729
-779752
-779778
-779837
-780036
-780075
-780157
-780259
-780367
-780467
-780548
-780612
-780663
-780775
-780849
-780890
-781149
-781153
-781041
-781099
-781159
-781201
-781232
-781234
-781265
-781262
-781232
-781098
-781041
-780903
-780802
-780805
-780639
-780563
-780340
-780293
-780100
-779987
-779720
-779691
-779466
-779342
-779272
-778998
-778882
-778687
-778517
-778483
-778354
-778119
-777954
-777848
-777842
-777640
-777238
-777289
-777394
-777290
-777207
-777078
-776986
-776884
-776807
-776841
-776811
-776723
-776682
-776721
-776610
-776706
-776710
-776610
-776569
-776582
-776606
-776617
-776726
-776602
-776673
-776648
-776622
-776682
-776784
-776727
-776720
-776864
-776916
-776972
-776948
-777045
-777063
-777160
-777148
-777173
-777160
-777252
-777192
-777232
-777163
-777171
-777044
-777096
-777137
-776983
-777006
-776959
-776860
-776756
-776750
-776716
-776585
-776667
-776622
-776561
-776576
-776534
-776566
-776558
-776516
-776495
-776578
-776494
-776527
-776609
-776597
-776560
-776687
-776565
-776619
-776593
-776654
-776640
-776646
-776502
-776659
-776594
-776660
-776605
-776569
-776553
-776550
-776558
-776555
-776536
-776602
-776679
-776685
-776754
-776841
-776977
-776961
-776979
-777031
-777047
-777105
-777099
-777250
-777304
-777317
-777333
-777447
-777469
-777527
-777619
-777721
-777670
-777692
-777740
-777847
-777835
-778010
-778037
-778003
-778148
-778299
-778355
-778414
-778409
-778620
-778607
-778604
-778657
-778738
-778741
-778739
-778786
-778743
-778842
-778742
-778822
-778689
-778641
-778573
-778622
-778515
-778910
-778613
-778633
-778485
-778435
-778380
-778341
-778493
-778523
-778496
-778562
-778548
-778539
-778659
-778677
-778807
-778888
-778861
-778915
-778917
-779057
-779148
-779254
-779178
-779307
-779312
-779339
-779472
-779491
-779564
-779493
-779543
-779718
-779735
-779715
-779895
-779957
-779973
-780012
-780074
-780178
-780165
-780346
-780416
-780397
-780446
-780413
-780554
-780684
-780757
-780728
-780753
-780899
-780811
-781021
-781040
-781004
-781180
-781130
-781269
-781296
-781422
-781353
-781462
-781452
-781515
-781484
-781692
-781640
-781610
-781675
-781798
-781874
-781960
-782003
-781965
-782043
-782217
-782231
-782196
-782313
-782419
-782478
-782576
-782353
-782529
-782564
-782653
-782823
-782735
-782739
-782855
-782807
-782914
-782909
-782940
-783062
-783126
-782942
-783129
-783173
-783153
-783191
-783352
-783255
-783329
-783311
-783348
-783439
-783433
-783489
-783502
-783500
-783619
-783767
-783840
-783987
-783891
-784023
-784062
-784181
-784282
-784411
-784431
-784453
-784500
-784562
-784589
-784561
-784620
-784643
-784757
-784789
-784885
-784795
-784781
-784792
-784867
-784844
-784931
-785040
-785128
-785115
-785136
-785184
-785332
-785348
-785364
-785383
-785519
-785593
-785532
-785653
-785706
-785677
-785659
-785775
-785869
-785891
-785895
-785997
-786115
-786023
-786091
-786099
-786135
-786200
-786140
-786144
-786088
-786259
-786274
-786131
-786263
-786212
-786218
-786191
-786295
-786230
-786224
-786337
-786387
-786316
-786304
-786483
-786547
-786522
-786584
-786686
-786657
-786795
-786886
-786880
-786892
-786996
-787098
-787155
-787149
-787301
-787239
-787308
-787490
-787500
-787470
-787680
-787628
-787747
-787658
-787759
-787769
-787816
-787938
-788000
-787984
-788086
-788137
-788085
-788139
-788231
-788410
-788481
-788537
-788502
-788591
-788749
-788970
-789073
-789260
-789529
-789613
-789578
-789350
-789271
-789250
-789157
-788980
-788722
-787665
-786135
-785887
-785766
-785595
-785492
-785366
-785339
-785212
-785083
-784999
-784906
-784938
-784783
-784689
-784775
-784770
-784735
-784738
-784715
-784677
-784725
-784775
-784651
-784810
-784794
-784712
-784644
-784684
-784629
-784715
-784595
-784614
-784526
-784518
-784594
-784667
-784431
-784688
-784746
-784813
-784812
-784901
-784773
-784816
-784899
-784878
-784996
-785017
-785111
-784946
-784253
-783919
-784063
-784144
-784196
-784139
-784150
-784177
-784159
-784109
-784095
-784117
-783985
-784027
-783898
-783939
-783925
-783869
-783803
-783751
-783666
-783582
-783534
-783580
-783459
-783555
-783438
-783536
-783515
-783425
-783342
-783390
-783424
-783427
-783330
-783420
-783386
-783405
-783487
-783511
-783435
-783546
-783626
-783574
-783618
-783666
-783648
-783633
-783742
-783857
-783761
-783832
-783815
-783924
-783979
-784039
-784114
-784036
-784176
-784127
-784249
-784309
-784272
-784279
-784319
-784461
-784476
-784483
-784510
-784562
-784651
-784668
-784674
-784740
-784858
-784852
-784890
-784962
-784988
-784987
-785048
-784995
-785104
-785032
-785120
-785138
-785210
-785202
-785142
-785182
-785123
-785132
-785052
-785174
-785081
-785012
-785043
-785070
-785113
-785163
-785065
-785035
-785081
-785179
-785166
-785217
-785173
-785263
-785143
-785286
-785379
-785304
-785276
-785367
-785308
-785294
-785389
-785436
-785279
-785416
-785418
-785384
-785319
-785407
-785394
-785396
-785475
-785510
-785587
-785506
-785628
-785631
-785719
-785818
-785953
-786086
-786208
-786193
-786269
-786294
-786275
-786344
-786429
-786486
-786395
-786558
-786383
-786436
-786542
-786578
-786510
-786640
-786508
-786577
-786588
-786599
-786576
-786622
-786649
-786656
-786650
-786680
-786668
-786756
-786739
-786824
-786886
-786916
-787030
-787000
-787105
-787152
-787145
-787263
-787356
-787332
-787289
-787326
-787337
-787400
-787406
-787454
-787489
-787513
-787521
-787542
-787559
-787571
-787565
-787632
-787784
-787737
-787690
-787765
-787744
-787802
-787816
-787857
-787977
-788039
-787993
-787973
-787936
-788048
-788143
-788091
-788094
-788141
-788165
-788265
-788393
-788335
-788330
-788360
-788488
-788512
-788560
-788580
-788564
-788675
-788616
-788749
-788701
-788791
-788817
-788794
-788853
-788824
-788864
-788963
-788946
-789004
-789124
-789099
-789159
-789194
-789302
-789388
-789475
-789478
-789553
-789704
-789739
-789711
-789741
-789819
-789831
-789844
-789862
-789917
-790021
-790031
-789995
-790016
-790087
-790010
-790083
-789977
-790100
-790106
-790185
-790118
-790246
-790267
-790306
-790300
-790229
-790256
-790329
-790357
-790313
-790416
-790437
-790393
-790422
-790582
-790674
-790615
-790612
-790609
-790766
-790683
-790757
-790751
-790821
-790918
-790937
-790952
-790985
-791040
-791047
-791112
-791175
-791093
-791141
-791201
-791228
-791215
-791260
-791286
-791293
-791434
-791428
-791501
-791549
-791465
-791504
-791575
-791633
-791615
-791695
-791789
-791810
-791850
-791981
-791960
-792018
-792061
-792129
-792169
-792201
-792316
-792351
-792342
-792393
-792540
-792492
-792664
-792502
-792707
-792690
-792703
-792772
-792755
-792806
-792860
-792830
-792850
-792923
-792916
-792960
-792907
-792851
-792869
-792913
-792915
-792908
-792831
-792747
-792796
-793204
-792840
-792624
-792585
-792536
-792405
-792299
-792144
-792132
-792015
-791893
-791791
-791675
-791660
-791540
-791379
-791256
-790822
-790729
-790547
-790387
-790165
-790013
-789857
-789621
-789451
-789262
-789135
-788952
-788763
-788657
-788428
-788415
-788207
-787987
-787929
-787800
-787667
-787595
-787530
-787440
-787469
-787421
-787408
-787308
-787224
-787379
-787192
-787042
-787031
-786899
-786485
-786066
-786080
-786168
-786116
-786069
-786047
-786087
-786091
-786062
-785984
-786041
-786026
-786042
-785973
-786092
-785945
-786025
-786077
-785988
-786018
-785979
-786006
-786042
-785953
-785889
-785961
-785918
-785843
-785977
-785994
-785971
-785924
-785954
-785933
-785927
-785838
-785586
-785422
-785319
-785148
-785177
-785223
-785222
-785162
-785040
-785149
-785039
-784985
-784979
-784931
-784848
-784878
-784862
-784876
-784883
-784865
-784886
-784884
-784830
-784934
-784984
-785003
-785062
-785004
-785148
-785109
-785193
-785180
-785222
-785261
-785241
-785394
-785401
-785491
-785552
-785523
-785566
-785665
-785703
-785740
-785700
-785738
-785849
-785920
-785839
-785911
-785700
-785919
-786109
-786134
-786235
-786215
-786335
-786393
-786398
-786442
-786498
-786593
-786612
-786649
-786654
-786766
-786809
-786939
-786956
-786962
-787056
-787030
-787050
-787117
-787159
-787185
-787107
-787207
-787104
-787229
-787280
-787250
-787187
-787154
-787141
-787180
-787101
-787178
-787208
-787214
-787162
-787221
-787180
-787139
-787174
-787253
-787294
-787370
-787356
-787427
-787175
-787256
-787391
-787394
-787512
-787457
-787516
-787578
-787606
-787570
-787601
-787546
-787610
-787698
-787662
-787694
-787722
-787787
-787870
-787891
-787914
-788017
-788185
-788021
-788275
-788304
-788335
-788435
-788501
-788671
-788588
-788606
-788657
-788895
-788850
-788953
-788909
-788983
-789041
-789081
-789131
-789169
-789279
-789263
-789303
-789443
-789486
-789531
-789568
-789690
-789691
-789731
-789823
-789926
-790004
-789973
-790000
-790426
-790295
-790277
-790203
-790209
-790286
-790377
-790451
-790393
-790477
-790599
-790637
-790594
-790548
-790575
-790689
-790693
-790684
-790680
-790643
-790666
-790781
-790933
-790822
-790962
-790969
-791044
-791055
-791127
-791087
-791190
-791247
-791336
-791245
-790877
-790365
-790477
-790583
-790654
-790748
-790785
-790857
-790959
-790908
-790860
-790959
-791044
-790918
-790929
-790928
-790987
-791092
-791069
-791029
-791018
-791117
-791085
-791267
-791326
-791348
-791373
-791367
-791498
-791479
-791616
-791695
-791884
-791966
-791926
-792545
-792233
-792186
-792338
-792363
-792377
-792438
-792458
-792560
-792571
-792547
-792578
-792614
-792662
-792685
-792776
-792780
-792771
-792716
-792719
-792746
-793286
-792964
-792988
-792965
-793077
-793000
-793014
-793104
-793157
-793203
-793213
-793204
-793260
-793434
-793442
-793487
-793530
-793590
-793600
-793755
-793701
-793632
-793764
-793709
-793735
-793673
-793713
-793755
-793781
-793740
-793822
-793816
-793819
-793946
-794049
-794201
-794242
-794359
-794348
-794214
-793805
-793744
-793803
-793774
-793677
-793833
-794359
-794149
-794183
-794233
-794329
-794369
-794412
-794660
-794698
-794657
-794620
-794725
-794835
-794659
-794728
-794896
-794973
-794965
-795004
-795105
-795133
-795191
-795355
-795365
-795422
-795523
-795532
-795663
-795629
-795753
-795785
-795875
-795853
-795910
-795893
-795979
-796008
-795970
-795948
-796096
-796026
-795995
-795940
-795844
-795864
-795818
-795756
-795673
-795600
-795545
-795519
-795301
-795295
-795151
-794980
-794910
-794621
-794402
-794210
-794172
-794080
-793804
-793589
-793313
-793158
-792998
-792797
-792600
-792393
-792174
-791978
-791820
-791644
-791382
-791244
-791070
-790881
-790835
-790746
-790579
-790372
-790307
-790170
-790124
-789936
-789781
-789705
-789675
-789676
-789581
-789521
-789365
-789288
-789233
-789218
-789179
-789070
-789053
-789040
-789059
-789136
-789058
-788989
-789123
-789019
-789151
-789024
-789131
-789192
-789176
-789116
-788999
-789072
-789048
-789015
-789056
-789049
-789001
-788971
-788972
-788890
-788830
-788910
-788922
-788873
-788785
-788727
-788788
-788694
-788766
-788748
-788745
-788717
-788614
-788528
-788560
-788566
-788586
-788537
-788459
-788483
-788448
-788387
-788272
-788200
-788060
-787972
-787918
-787851
-787814
-787742
-787608
-787446
-787269
-787364
-787423
-787381
-787237
-787229
-787196
-787105
-787142
-787127
-787181
-787285
-787233
-787319
-787286
-787244
-787297
-787307
-787336
-787339
-787410
-787483
-787515
-787525
-787637
-787649
-787670
-787522
-787732
-787821
-787807
-787741
-787829
-787794
-787882
-787940
-787944
-787980
-788407
-788162
-788100
-788196
-788117
-788181
-788070
-788220
-788296
-788230
-788312
-788225
-788265
-788322
-788362
-788330
-788370
-788281
-788361
-788399
-788386
-788418
-788416
-788557
-788398
-788522
-788481
-788511
-788562
-788620
-788634
-788560
-788420
-788445
-788400
-788315
-788197
-788236
-788271
-788186
-788086
-788037
-788017
-787865
-788020
-787936
-787957
-788056
-788108
-788117
-788190
-788322
-788403
-788494
-788642
-788547
-788611
-788674
-788772
-788770
-788728
-788830
-788823
-789475
-788863
-788838
-788729
-788712
-788577
-788436
-788478
-788555
-788582
-788569
-788577
-788462
-788539
-788567
-788437
-788495
-788481
-788759
-788642
-788586
-788523
-789202
-788919
-788818
-788834
-788522
-788558
-789112
-788875
-788780
-788766
-788774
-788700
-788767
-788760
-788623
-789060
-788748
-788654
-788724
-788740
-788605
-788681
-788724
-788683
-788710
-788706
-788690
-788800
-788780
-788803
-788720
-788862
-788808
-788847
-788855
-788640
-788770
-788895
-788738
-788835
-788880
-788992
-788927
-789008
-788932
-789458
-789092
-789015
-789017
-789089
-789064
-789140
-788941
-789877
-789511
-789167
-789062
-789289
-789392
-789373
-789391
-789320
-789426
-789455
-789338
-789306
-789348
-789710
-789402
-789269
-789277
-789272
-789341
-789337
-789244
-789237
-789250
-789336
-789287
-789245
-789394
-789357
-789401
-789380
-789373
-789455
-789493
-789593
-789599
-789601
-789575
-789562
-789635
-789624
-789681
-789718
-789777
-789806
-790001
-789939
-789920
-789925
-789832
-789871
-789978
-789902
-789872
-789936
-790045
-790014
-789988
-790127
-790159
-790179
-790223
-790161
-790190
-790216
-790196
-790190
-790242
-790224
-790372
-790403
-790413
-790341
-790384
-790553
-790530
-790490
-790509
-790501
-790529
-790569
-790623
-790556
-790614
-790622
-790685
-790679
-790635
-790677
-790758
-790852
-790778
-790803
-790953
-790887
-790870
-790972
-790986
-791145
-791158
-791292
-791275
-791222
-791284
-791224
-791304
-791454
-791492
-791526
-791424
-791487
-791519
-791631
-791695
-791635
-791662
-791749
-791700
-791782
-791856
-791798
-791891
-791956
-791983
-791992
-791959
-791932
-791892
-792022
-792020
-791968
-791890
-791878
-791668
-791738
-791503
-791488
-791245
-791144
-791004
-790832
-790738
-790578
-788709
-788471
-788238
-787773
-787356
-787197
-786918
-786808
-786586
-786509
-786240
-786227
-786167
-786106
-785978
-785826
-785687
-785608
-785533
-785404
-785361
-785178
-785156
-785072
-784980
-784948
-784883
-784913
-784864
-784825
-784888
-784977
-784979
-785058
-784991
-785093
-785119
-785082
-785113
-785069
-784934
-784870
-784824
-784860
-784840
-784842
-784667
-784621
-784628
-784540
-784610
-784539
-784508
-784585
-784671
-784668
-784685
-784535
-784539
-784510
-784534
-784434
-784459
-784501
-784485
-784495
-784357
-784392
-784260
-784173
-784094
-784131
-784069
-784049
-784084
-784078
-783971
-784000
-784009
-784019
-783889
-784025
-784006
-784051
-784090
-784064
-784098
-784189
-784286
-784203
-784266
-784269
-784357
-784353
-784443
-784412
-784432
-784576
-784626
-784615
-784590
-784665
-784764
-784756
-784801
-784744
-784815
-784768
-784761
-784896
-784858
-784943
-785002
-784987
-784893
-784954
-784927
-784983
-784998
-785035
-785077
-785040
-785038
-785115
-785094
-785117
-785217
-785114
-785204
-785230
-785108
-785100
-785144
-785122
-785087
-785071
-785022
-785055
-784967
-784924
-784960
-784894
-784912
-784867
-784837
-784787
-784920
-784869
-784860
-784815
-784939
-784960
-784880
-784921
-785038
-785019
-785073
-785093
-785204
-785177
-785228
-785308
-785391
-785312
-785406
-785439
-785434
-785367
-785325
-785316
-785304
-785389
-785482
-785328
-785312
-785357
-785358
-785212
-785291
-785280
-785313
-785341
-785335
-785628
-785884
-786208
-786372
-786466
-786500
-786555
-786475
-786463
-786615
-786589
-786718
-786729
-786713
-786781
-786803
-786862
-786962
-786987
-786914
-787063
-787086
-787173
-787205
-787165
-787246
-787373
-787394
-787363
-787252
-787409
-787428
-787366
-787335
-787428
-787401
-787431
-787346
-787341
-787383
-787491
-787372
-787428
-787443
-787477
-787481
-787600
-787537
-787594
-787581
-787684
-787748
-787826
-787840
-787915
-787972
-788040
-788002
-787935
-788072
-788049
-788226
-788228
-788264
-788294
-788351
-788308
-788372
-788336
-788323
-788295
-788363
-788366
-788415
-788348
-788479
-788505
-788490
-788579
-788516
-788604
-788636
-788724
-788745
-788826
-788838
-788933
-788938
-789077
-789189
-789077
-789199
-789254
-789323
-789356
-789404
-789576
-789433
-789519
-789529
-789619
-789564
-789635
-789648
-789565
-789638
-789663
-789711
-789666
-789622
-789695
-789674
-789801
-789693
-789712
-789733
-789918
-789765
-789835
-789824
-789913
-790033
-789967
-790041
-789970
-790080
-790056
-790033
-790111
-790212
-790269
-790383
-790401
-790609
-790517
-790727
-790866
-790824
-790963
-790996
-791254
-791275
-791375
-791473
-791703
-791772
-791765
-791829
-791923
-792151
-792161
-792254
-792375
-792454
-792438
-792472
-792531
-792644
-792764
-792749
-792752
-792928
-792880
-792831
-792900
-792864
-792844
-792882
-792897
-792679
-792362
-792356
-792362
-792448
-792470
-792539
-792422
-792442
-792418
-792510
-792536
-792377
-792305
-792408
-792429
-792522
-792442
-792430
-792418
-792361
-792374
-792256
-792212
-792048
-792025
-791885
-791761
-791637
-791482
-791256
-791151
-790908
-790749
-790473
-790301
-790087
-789809
-789621
-789379
-789044
-788782
-788523
-788157
-788052
-787781
-787495
-787249
-786891
-786661
-786475
-786199
-785950
-785718
-785565
-785231
-785055
-784880
-784765
-784623
-784779
-785035
-785040
-784761
-784613
-784548
-784452
-784316
-784236
-784220
-784270
-784367
-784492
-784621
-784594
-784665
-784644
-784622
-784735
-784673
-784709
-784655
-784676
-784626
-784614
-784544
-784646
-784804
-785006
-785228
-785310
-785333
-785409
-785371
-785423
-785434
-785565
-785674
-785613
-785670
-785800
-785910
-786002
-786049
-786043
-786154
-786114
-786177
-786306
-786380
-786602
-786568
-786605
-786693
-786782
-786847
-786899
-786942
-787090
-787168
-787192
-787377
-787411
-787441
-787658
-787783
-787965
-788023
-787964
-788045
-788243
-788266
-788226
-788351
-788480
-788486
-788534
-788551
-788530
-788543
-788549
-788626
-788571
-788712
-788591
-788705
-788812
-788771
-788821
-788859
-788995
-789025
-789116
-789138
-789208
-789186
-789203
-789340
-789516
-789589
-789711
-789775
-789790
-789868
-789945
-789957
-790054
-790013
-790223
-790192
-790392
-790475
-790474
-790463
-790616
-790693
-790750
-790815
-790797
-790858
-790730
-790838
-790820
-790900
-790891
-790857
-790934
-790937
-791080
-791051
-790987
-791001
-791034
-791052
-791082
-791158
-791028
-791322
-791371
-791449
-791543
-791519
-791598
-791724
-791788
-791853
-791969
-792147
-792191
-792235
-792382
-792450
-792463
-792611
-792589
-792732
-792740
-792827
-792918
-793048
-793058
-793059
-793245
-793171
-793253
-793314
-793419
-793372
-793582
-793622
-793637
-793675
-793771
-793891
-793956
-793989
-793965
-794093
-794135
-794283
-794093
-794315
-794494
-794516
-794475
-794576
-794568
-794625
-794725
-794655
-794745
-794750
-794828
-794790
-794759
-794897
-794896
-794873
-794854
-794908
-794976
-794966
-794999
-795059
-795161
-795123
-795261
-795352
-795357
-795385
-795587
-795556
-795669
-795770
-795778
-795826
-795945
-796033
-796030
-796141
-796192
-796153
-796335
-796380
-796410
-796360
-796372
-796454
-796562
-796609
-796649
-796768
-796779
-796731
-796808
-796832
-796888
-796775
-796884
-797040
-796916
-797000
-796957
-796981
-797029
-797002
-796964
-796928
-796984
-797064
-797037
-796964
-796986
-797104
-797097
-797156
-797223
-797225
-797271
-797288
-797305
-797471
-797351
-797310
-797561
-797600
-797572
-797547
-797606
-797678
-797757
-797744
-797669
-797667
-797731
-797813
-797703
-797713
-797711
-797778
-797840
-797861
-797827
-797832
-797848
-797987
-797950
-798054
-798059
-798217
-798320
-798332
-798330
-798445
-798549
-798786
-798884
-798936
-798975
-799111
-799224
-799412
-799519
-799626
-799523
-799648
-799719
-799807
-799931
-799908
-800023
-800067
-799996
-800109
-800170
-800155
-800215
-800225
-800283
-800250
-800284
-800345
-800294
-800391
-800478
-800471
-800562
-800674
-800589
-800611
-800674
-800814
-800687
-800772
-800802
-800664
-800812
-801006
-801041
-800914
-801000
-801028
-801005
-801028
-800995
-801071
-801189
-801201
-801143
-801199
-801200
-801225
-801260
-801268
-801209
-801162
-801280
-801735
-801392
-801386
-801400
-801435
-801548
-801516
-801590
-801686
-801736
-801890
-801821
-801861
-801923
-801924
-801984
-801910
-801958
-802157
-802189
-802058
-802139
-802133
-802123
-802052
-802099
-802029
-801901
-801972
-801900
-801787
-801637
-801515
-801423
-801479
-801360
-801314
-801191
-801096
-801030
-800860
-800682
-800513
-800369
-800240
-800043
-799808
-799704
-799426
-799215
-799100
-798879
-798628
-798433
-798154
-797931
-797772
-797567
-797418
-797266
-797025
-796852
-796729
-796636
-796413
-796325
-796092
-795877
-795669
-795635
-795594
-795537
-795529
-795498
-795301
-795318
-795188
-795170
-795167
-795148
-795132
-795109
-795089
-795070
-795062
-794983
-795048
-795080
-795016
-794933
-794973
-795039
-795104
-795099
-795208
-795177
-795221
-795301
-795329
-795339
-795291
-795391
-795443
-795408
-795302
-795446
-795389
-795385
-795372
-795359
-795430
-795449
-795278
-795320
-795326
-795232
-795139
-795201
-795143
-795104
-795020
-795012
-795062
-794948
-795022
-794925
-794832
-794835
-794677
-794625
-794596
-794510
-794409
-794431
-794347
-794229
-794075
-794092
-794077
-793899
-793826
-793749
-793777
-793674
-793651
-793539
-793564
-793491
-793410
-793520
-793500
-793525
-793556
-793619
-793654
-793635
-793662
-793664
-793810
-793936
-794004
-794194
-794264
-794348
-794365
-794530
-794485
-794586
-794761
-794788
-794871
-794950
-794928
-794894
-794922
-795044
-794895
-794881
-794873
-794908
-794967
-794912
-794919
-794946
-794806
-794780
-794833
-794750
-794681
-794766
-794722
-794597
-794622
-794624
-794601
-794503
-794495
-794462
-794306
-794307
-794197
-794272
-794229
-794102
-794016
-793956
-793970
-794013
-793892
-793890
-793897
-793881
-793803
-793964
-794015
-793899
-793925
-794010
-794064
-794081
-794185
-794180
-794340
-794397
-794445
-794440
-794493
-794502
-794646
-794748
-794766
-794844
-794818
-794846
-794843
-794910
-794850
-794829
-794991
-794933
-794932
-794990
-794929
-795010
-794915
-794749
-794965
-794983
-795040
-794986
-794981
-795048
-795136
-795075
-795170
-795113
-795115
-795137
-795217
-795226
-795331
-795239
-795242
-795222
-795204
-795279
-795217
-795280
-795293
-795243
-795256
-795340
-795257
-795301
-795329
-795438
-795461
-795510
-795612
-795558
-795553
-795594
-795714
-795834
-795850
-795869
-795892
-795988
-796110
-796102
-796157
-796256
-796402
-796427
-796601
-796623
-796388
-796601
-796757
-796779
-796925
-796916
-797083
-797184
-797258
-797387
-797525
-797715
-797898
-797959
-798150
-798383
-798546
-798656
-798926
-798962
-799195
-799286
-799397
-799566
-799635
-799699
-800475
-800174
-800186
-800267
-800436
-800572
-800568
-800781
-800896
-801041
-801160
-801142
-801340
-801502
-801575
-801772
-801912
-802015
-802088
-802338
-802520
-802688
-802869
-803058
-803168
-803275
-803440
-803544
-803657
-803736
-803888
-804004
-804037
-804209
-804277
-804419
-804504
-804760
-804924
-804859
-804967
-805163
-805225
-805442
-805510
-805630
-805814
-806034
-806237
-806360
-806471
-806621
-806771
-806953
-807018
-807085
-807151
-807281
-807288
-807358
-807334
-807364
-807406
-807403
-807314
-807263
-807276
-807392
-807378
-807241
-807150
-807043
-807046
-806994
-806817
-806887
-806862
-806861
-806979
-806944
-806925
-806915
-806900
-806988
-806858
-806953
-807056
-807036
-807120
-807181
-807204
-807258
-807358
-807419
-807455
-807452
-807456
-807583
-807630
-807702
-807682
-807688
-807785
-807725
-807667
-807728
-807768
-807763
-807715
-807759
-807736
-807633
-807534
-807494
-807520
-807511
-807385
-807322
-807283
-807291
-807228
-807158
-807129
-807065
-806975
-807003
-806821
-806817
-806741
-806737
-806649
-806595
-806535
-806630
-806561
-806536
-806697
-806631
-806672
-806795
-806864
-806958
-806882
-806988
-807086
-807207
-807227
-807395
-807454
-807441
-807571
-807638
-807715
-807769
-807870
-808013
-808033
-808171
-808418
-808452
-808580
-808586
-808783
-808854
-809039
-809073
-809219
-809338
-809441
-809644
-809795
-809907
-810059
-810210
-810369
-810545
-810683
-810865
-811015
-811106
-811245
-811394
-811549
-811688
-811810
-812021
-812058
-812183
-812313
-812365
-812469
-812513
-812661
-812693
-812780
-812898
-812894
-813000
-813024
-813019
-813005
-812971
-812981
-812932
-813088
-812999
-813138
-813161
-812999
-813145
-813096
-813148
-813159
-813343
-813412
-813324
-813475
-813490
-813489
-813596
-813610
-813662
-813718
-813930
-814009
-814129
-814277
-814396
-814500
-814680
-814739
-814908
-815143
-815210
-815359
-815615
-815884
-816070
-816153
-816237
-816373
-816530
-816537
-816703
-816929
-817152
-817271
-817377
-817515
-817586
-817629
-817735
-817837
-817875
-818073
-818041
-818209
-818370
-818365
-818559
-818581
-818820
-818826
-818942
-819137
-819234
-819290
-819528
-819639
-819721
-819838
-819949
-820081
-820155
-820170
-820292
-820335
-820402
-820313
-820337
-820448
-820409
-820421
-820397
-820394
-820438
-820430
-820388
-820426
-820459
-820464
-820387
-820418
-820358
-820375
-820399
-820504
-820389
-820436
-820583
-820545
-820620
-821210
-820989
-820942
-820933
-820974
-821054
-821194
-821359
-821423
-821493
-821468
-821612
-821648
-821723
-821893
-821874
-822066
-822131
-822321
-822319
-822324
-822418
-822651
-822750
-822830
-822887
-822987
-823127
-823165
-823363
-823522
-823576
-823831
-823874
-824030
-824167
-824190
-824350
-824552
-824637
-824648
-824720
-824926
-824908
-825021
-825152
-825215
-825304
-825421
-825532
-825586
-825609
-825506
-825870
-825874
-826030
-826161
-826256
-826308
-826379
-826436
-826526
-826749
-826867
-827043
-827205
-827256
-827322
-827400
-827518
-827639
-827787
-827862
-827981
-828016
-828070
-828244
-828327
-828358
-828365
-828446
-828515
-828614
-828604
-828720
-828770
-828846
-828945
-828943
-828970
-828962
-828995
-829009
-829175
-829170
-829186
-829239
-829256
-829254
-829295
-829258
-829381
-829312
-829254
-829297
-829381
-829394
-829396
-829512
-829411
-829402
-829480
-829477
-829488
-829566
-829661
-829588
-829740
-829654
-829703
-829684
-829776
-829834
-829806
-829910
-829925
-829856
-829829
-829863
-829962
-829999
-829947
-830152
-830119
-830203
-830214
-830312
-830687
-830361
-830514
-830541
-830561
-830519
-830654
-830759
-830816
-830924
-831031
-830997
-831047
-831128
-831187
-831306
-831588
-831661
-831731
-831823
-832008
-832036
-832124
-832265
-832311
-832491
-832588
-832691
-832747
-832873
-833022
-833230
-833298
-833394
-833595
-833579
-833683
-833768
-833865
-833899
-833968
-834152
-834294
-834387
-834316
-834361
-834488
-834500
-834458
-834429
-834537
-834415
-834496
-834501
-834522
-834466
-834402
-834400
-834251
-834197
-834106
-834166
-834103
-833989
-833895
-833690
-833575
-833476
-833396
-833252
-833242
-833063
-832971
-832792
-832544
-832496
-832374
-832101
-831976
-831818
-831747
-831605
-831418
-831341
-831163
-831092
-831012
-830818
-830680
-830570
-830540
-830531
-830423
-830392
-830405
-830254
-830207
-830235
-830111
-830229
-830220
-830217
-830199
-830173
-830321
-830372
-830297
-830255
-830432
-830382
-830335
-830352
-830399
-830480
-830545
-830605
-830672
-830729
-830701
-830745
-830671
-830901
-830914
-830916
-831000
-831114
-831218
-831291
-831253
-831319
-831370
-831421
-831453
-831482
-831595
-831585
-831655
-831580
-831497
-831520
-831530
-831553
-831532
-831445
-831298
-831223
-831218
-831083
-831086
-831102
-831030
-831146
-831145
-831123
-831067
-831206
-831273
-831391
-831443
-831529
-831541
-831603
-831728
-831754
-831934
-831982
-832010
-832139
-832258
-832292
-832321
-832420
-832500
-832565
-832761
-832863
-832905
-833071
-833137
-833217
-833367
-833591
-833658
-833694
-833875
-833981
-834776
-834380
-834387
-834547
-834621
-834743
-834922
-835087
-835221
-835307
-835509
-835540
-835632
-835786
-835795
-836012
-836124
-836235
-836501
-836490
-836729
-836651
-836834
-836949
-836981
-837044
-837108
-837216
-837371
-837446
-837552
-837694
-837693
-837788
-837852
-838001
-838014
-838185
-838324
-838359
-838474
-838466
-838536
-838793
-838865
-839096
-839179
-839238
-839327
-839443
-839636
-839800
-839787
-839966
-840097
-840074
-840200
-840441
-840558
-840655
-840843
-840798
-840943
-841073
-841170
-841278
-841330
-841575
-841681
-841808
-841898
-842137
-842041
-842256
-842463
-842609
-842803
-843058
-843194
-843344
-843427
-843703
-843997
-844044
-844260
-844423
-844674
-844896
-845164
-845354
-845540
-845589
-845814
-846115
-846334
-846526
-846689
-846839
-847056
-847204
-847363
-847508
-847616
-847755
-847931
-848089
-848162
-848338
-848452
-848689
-848576
-848856
-849122
-849354
-849406
-849606
-849722
-849956
-850156
-850378
-850558
-850873
-851031
-851156
-851360
-851677
-851725
-851996
-852188
-852384
-852483
-852831
-852848
-852884
-853070
-853193
-853306
-853472
-853556
-853603
-853699
-853803
-853938
-854131
-854264
-854358
-854432
-854302
-854547
-854720
-855036
-855190
-855224
-855492
-855613
-855822
-855861
-856052
-856282
-856404
-856425
-856595
-856582
-856824
-856938
-856839
-857039
-857131
-857248
-857451
-857634
-857572
-857777
-857907
-858035
-858144
-858147
-858356
-858716
-858485
-858683
-858734
-858886
-858941
-859148
-859202
-859458
-859551
-859702
-859680
-859800
-859899
-860032
-860184
-860396
-860501
-860531
-860400
-860749
-860799
-860915
-861036
-861069
-861121
-861120
-861286
-861315
-861308
-861502
-861581
-861636
-861582
-861718
-861829
-862050
-862226
-862200
-862265
-862535
-862657
-862916
-863043
-863089
-863303
-863447
-863441
-863569
-863646
-863814
-863949
-864049
-864042
-864014
-864107
-864074
-864039
-863957
-863591
-863845
-863793
-863772
-863563
-863475
-863486
-863300
-863226
-863143
-863051
-863024
-862739
-862684
-862427
-862256
-862045
-861926
-861641
-861517
-861332
-861115
-860988
-860803
-860678
-860476
-860185
-859977
-859883
-859648
-859582
-859436
-859241
-859033
-858790
-858873
-858731
-858665
-858470
-858377
-858266
-858246
-858142
-858024
-857932
-857975
-857869
-857773
-857699
-857537
-857508
-857412
-857416
-857337
-857232
-857265
-857226
-857105
-857076
-857084
-857075
-856981
-856950
-857053
-856917
-856834
-856870
-856829
-856726
-856717
-856660
-856703
-856782
-856688
-856665
-856666
-856658
-856607
-856565
-856490
-856520
-856447
-856411
-856374
-856332
-856199
-856084
-856005
-855923
-855948
-855769
-855755
-855704
-855644
-855472
-855481
-855358
-855306
-855224
-855136
-855097
-854905
-854865
-854922
-854814
-854750
-854726
-854522
-854485
-854436
-854342
-854282
-854333
-854209
-854218
-854224
-854100
-854034
-853904
-853886
-853917
-853945
-853970
-853905
-853901
-853970
-853966
-853898
-853884
-853975
-853918
-854020
-854002
-854054
-853973
-853881
-853869
-853834
-853935
-853849
-853862
-853855
-853726
-853825
-853781
-853793
-853725
-853735
-853625
-853665
-853576
-853690
-853658
-853715
-853775
-853726
-853733
-853817
-853895
-853985
-853962
-854014
-854031
-854034
-854086
-853920
-854119
-854083
-854052
-854030
-854121
-854166
-854220
-854179
-854132
-854159
-854142
-854042
-854110
-854095
-853993
-853981
-853955
-853996
-853979
-854023
-853963
-854007
-854012
-853974
-854099
-854111
-854106
-854057
-854232
-853929
-854176
-854136
-854294
-854046
-854152
-854251
-854217
-854276
-854297
-854278
-854174
-854238
-854103
-854078
-854082
-854089
-854177
-854065
-854122
-854110
-854151
-854135
-854035
-854114
-854071
-854139
-854138
-854196
-854207
-854261
-854358
-854332
-854405
-854490
-854425
-854521
-854427
-854446
-854475
-854452
-854497
-854373
-854433
-854500
-854515
-854389
-854385
-854340
-854424
-854391
-854266
-854248
-854226
-854255
-854362
-854380
-854355
-854377
-854428
-854418
-854588
-854515
-854528
-854498
-854590
-854457
-854708
-854785
-854912
-854938
-854878
-855020
-854982
-855045
-855130
-855141
-855063
-855009
-855075
-854873
-854936
-854925
-855044
-854985
-854952
-854891
-854863
-854825
-854899
-854841
-854821
-854861
-854753
-854849
-854807
-854795
-854825
-854912
-854975
-855073
-855083
-855152
-855179
-855282
-855196
-855282
-855330
-855405
-855352
-855384
-855416
-855387
-855492
-855576
-855533
-855467
-855521
-855426
-855398
-855406
-855424
-855372
-855343
-855437
-855382
-855447
-855449
-855428
-855327
-855417
-855407
-855534
-855511
-855536
-855645
-855705
-855638
-855787
-855761
-855815
-855818
-855931
-855981
-856059
-856150
-856156
-856078
-856142
-856148
-856117
-856183
-856202
-856106
-856068
-856171
-856096
-856083
-856152
-856198
-856088
-856015
-855992
-856004
-855962
-855995
-855935
-855970
-855953
-855874
-855903
-855783
-855743
-855685
-855644
-855502
-855321
-855341
-855007
-854840
-854721
-854578
-854504
-854252
-854162
-853887
-853712
-853418
-853087
-852845
-852548
-852268
-852038
-851913
-851593
-851376
-851154
-850874
-850702
-850452
-850205
-849979
-849483
-849385
-849215
-849006
-848792
-848697
-848408
-848197
-847987
-847852
-847667
-847557
-847873
-847439
-847249
-847026
-846980
-846797
-846593
-846566
-846995
-846441
-846256
-846181
-846080
-845995
-845985
-845860
-845691
-845584
-845501
-845490
-845471
-845357
-845235
-845037
-844918
-844947
-844817
-844701
-844617
-844492
-845191
-844465
-844446
-844280
-844233
-844169
-844005
-844039
-843871
-843867
-843774
-843780
-843693
-843515
-843459
-843445
-843279
-843213
-843083
-843013
-842828
-842743
-842682
-842489
-842380
-842286
-842133
-841990
-841883
-841770
-841607
-841503
-841394
-841139
-841110
-840921
-840747
-840633
-840550
-840367
-840193
-839863
-839024
-838954
-838930
-838755
-838748
-838522
-838452
-838410
-838295
-838196
-838093
-838050
-838021
-837937
-837809
-837585
-837599
-837537
-837493
-837394
-837241
-837139
-837189
-836940
-836947
-836917
-836814
-836723
-836591
-836479
-836424
-836309
-836220
-836206
-836054
-836034
-835883
-835936
-835818
-835738
-835690
-835637
-835722
-835694
-835743
-835671
-835612
-835577
-835668
-835554
-835548
-835546
-835581
-835516
-835461
-835552
-835546
-835613
-835695
-835523
-835546
-835536
-835581
-835477
-835539
-835467
-835440
-835555
-835502
-835483
-835402
-835337
-835323
-835250
-835172
-835077
-835032
-834967
-834953
-834914
-834968
-834953
-834823
-834777
-834908
-834963
-834929
-834951
-834948
-835005
-834949
-835107
-835102
-835056
-835006
-835134
-835126
-835111
-835239
-835249
-835234
-835437
-835394
-835559
-835400
-835355
-835444
-835301
-835269
-835201
-835090
-835026
-834777
-834649
-834495
-834327
-834241
-834097
-833948
-833789
-833609
-833486
-833199
-832955
-832757
-832527
-832385
-832029
-831844
-831716
-831458
-831241
-831106
-830821
-830617
-830587
-830403
-830284
-830121
-829891
-829674
-829587
-829426
-829295
-829112
-829127
-828976
-828877
-828849
-828725
-828607
-828476
-828771
-828518
-828354
-828287
-828189
-828223
-828182
-828086
-828087
-828022
-827970
-827901
-827876
-827866
-827828
-827801
-827909
-827907
-827802
-827844
-827718
-827753
-827665
-827745
-827652
-827544
-827617
-827601
-827612
-827554
-827623
-827640
-827500
-827396
-827395
-827401
-827389
-827388
-827524
-827469
-827509
-827541
-827522
-827613
-827696
-827766
-827836
-827934
-827997
-828002
-828086
-828050
-828133
-828274
-828226
-828162
-828203
-828190
-828194
-828153
-828211
-828151
-828132
-828055
-828171
-828078
-828073
-828018
-827953
-827932
-827931
-827945
-827643
-827936
-828028
-827919
-827986
-827859
-828056
-827845
-827885
-827826
-827695
-827614
-827561
-827487
-827401
-827298
-827166
-826964
-826736
-826491
-826419
-826194
-826040
-825871
-825626
-825420
-825085
-824995
-824768
-824446
-824184
-824159
-823883
-823762
-823555
-823330
-823219
-823072
-822856
-822606
-822422
-822319
-822157
-822035
-821813
-821720
-821560
-821375
-821343
-821228
-821009
-820947
-820904
-820764
-820714
-820734
-820532
-820529
-820458
-820502
-820484
-820360
-820348
-820270
-820308
-820037
-820104
-819865
-820004
-820118
-820050
-820113
-820033
-819925
-819904
-819888
-819822
-819665
-819607
-819636
-819505
-819460
-819463
-819305
-819288
-819200
-819108
-819019
-818987
-818959
-818836
-818851
-818877
-818829
-818876
-818761
-818666
-818730
-818704
-818638
-818569
-818592
-818516
-818443
-818396
-818318
-818327
-818273
-818055
-818032
-817953
-817879
-817884
-817782
-817656
-817667
-817631
-817602
-817546
-817534
-817647
-817569
-817636
-817573
-817520
-817567
-817720
-817697
-817624
-817622
-817670
-817819
-817922
-817967
-818131
-818192
-818340
-818462
-818649
-818716
-818797
-819003
-819088
-819115
-819171
-819322
-819462
-819478
-819503
-819636
-820164
-819836
-819822
-819909
-819807
-819201
-818499
-818310
-818366
-818509
-818653
-818607
-818633
-818605
-818509
-818485
-818565
-818491
-818381
-818383
-818385
-818447
-818424
-818387
-818495
-818382
-818326
-818375
-818290
-818156
-818173
-818139
-818073
-818039
-817922
-817850
-817848
-817859
-817690
-817641
-817660
-817576
-817461
-817487
-817377
-817400
-817335
-817252
-817215
-817123
-817077
-817168
-817072
-817054
-816992
-816928
-816937
-816904
-816875
-816694
-816975
-816910
-816990
-817041
-816928
-816931
-816973
-817029
-817027
-817018
-817021
-817080
-817117
-817031
-817065
-817183
-817114
-817147
-817158
-817089
-817141
-817136
-817186
-817128
-817164
-817179
-817221
-817281
-817194
-817198
-817323
-817264
-817259
-817331
-817477
-817408
-817465
-817519
-817677
-817743
-817739
-817577
-817776
-817960
-817977
-818033
-818134
-818158
-818156
-818361
-818450
-818485
-818569
-818559
-818542
-818670
-818773
-818838
-818880
-818919
-819028
-819131
-819228
-819122
-819397
-819526
-819609
-819806
-819941
-820014
-820168
-820285
-820371
-820590
-820613
-820752
-820922
-820955
-821103
-821230
-821363
-821482
-821559
-821639
-821739
-821812
-821991
-822066
-822188
-822184
-822254
-822398
-822467
-822453
-822702
-822834
-822932
-823100
-823246
-823273
-823488
-823669
-823675
-823799
-823921
-824097
-824234
-824299
-824253
-824442
-824403
-824853
-825017
-825085
-825188
-825276
-825473
-825641
-825662
-825944
-826051
-826119
-826149
-826294
-826596
-826703
-826682
-826716
-826901
-826938
-826949
-827082
-827133
-827112
-827192
-827165
-827265
-827275
-827403
-827563
-827655
-827567
-827755
-827868
-827995
-828024
-828155
-828342
-828526
-828539
-828527
-828685
-828728
-828736
-828653
-829197
-828965
-828750
-828748
-828737
-828682
-828614
-828357
-828304
-828191
-828210
-827985
-827741
-827624
-827582
-827459
-827244
-827139
-827010
-826860
-826698
-826627
-826505
-826340
-826075
-825856
-825658
-825487
-825416
-825227
-824949
-824835
-824694
-824515
-824360
-824155
-824094
-823933
-823764
-823591
-823429
-823358
-823287
-823099
-823032
-822902
-822775
-822695
-822666
-822584
-822579
-822497
-822288
-822294
-822184
-822152
-822544
-822243
-822137
-821851
-822004
-822100
-821827
-821870
-821743
-821630
-821641
-821550
-821508
-821373
-821263
-821269
-821038
-821186
-821108
-820988
-820920
-820734
-820631
-820514
-820533
-820553
-820426
-820348
-820271
-820232
-820140
-820027
-820007
-819880
-819808
-819742
-819668
-819691
-819595
-819593
-819392
-819283
-819338
-819096
-819070
-818898
-818850
-818918
-818656
-818641
-818424
-818413
-818319
-818212
-818136
-818067
-818058
-817833
-817832
-817720
-818086
-817792
-817833
-817799
-817724
-817698
-817716
-817751
-817774
-817820
-817816
-817734
-817718
-817795
-817843
-817897
-817816
-818280
-818020
-817935
-817860
-817756
-817711
-817658
-817755
-817704
-817797
-817752
-817741
-817792
-817730
-817764
-817754
-817769
-817807
-817985
-818114
-818169
-818215
-818206
-818310
-818273
-818301
-818284
-818344
-818321
-818287
-818746
-818467
-818368
-818188
-818221
-818063
-817940
-817962
-817935
-817946
-817756
-817754
-817734
-817664
-817666
-817609
-817658
-817707
-817678
-817657
-817684
-817593
-817341
-817544
-817591
-817631
-817617
-817613
-817622
-817688
-817698
-817677
-817632
-817561
-817551
-817481
-817482
-817450
-817426
-817490
-817577
-817460
-817567
-817568
-817673
-817573
-817769
-817798
-817938
-817957
-818071
-818016
-818109
-818185
-818273
-818246
-818278
-818390
-818577
-818512
-818543
-818614
-818682
-818738
-818771
-818735
-818812
-818742
-818461
-818688
-818754
-818745
-818781
-818770
-818700
-818702
-818729
-818758
-818784
-818801
-818890
-818902
-819012
-819056
-818987
-819049
-819107
-819150
-819331
-819354
-819304
-819333
-819403
-819546
-819528
-819487
-819497
-819543
-819497
-819490
-819574
-819572
-819500
-819560
-819435
-819461
-819589
-819597
-819609
-819697
-819553
-819638
-819623
-819661
-819769
-819820
-819792
-819885
-819906
-819845
-819967
-820006
-820137
-820107
-820175
-820253
-820158
-820189
-820272
-820333
-820344
-820308
-820331
-820743
-820596
-820533
-820579
-820612
-820530
-820507
-820556
-820595
-820342
-820588
-820617
-820599
-820681
-820757
-820785
-820707
-820866
-820890
-820863
-820993
-820958
-820948
-820959
-820938
-821027
-821055
-821144
-821104
-821126
-821110
-821214
-821205
-821162
-821236
-821209
-821280
-821244
-821373
-821294
-821270
-821347
-821315
-821278
-821303
-821340
-821446
-821405
-821361
-821411
-821300
-821330
-821372
-821278
-821414
-821280
-821803
-821324
-821538
-821436
-821459
-821535
-821554
-821620
-821708
-821723
-821687
-821792
-821810
-821872
-821980
-822542
-822313
-822179
-822149
-822131
-822276
-822281
-822328
-822353
-822283
-822281
-822407
-822390
-822374
-822493
-822567
-822508
-822636
-822566
-822561
-822671
-822695
-822595
-822966
-823071
-823078
-823200
-823210
-823364
-823442
-823450
-823498
-823649
-823746
-823670
-823629
-823664
-823769
-823778
-823768
-823541
-823604
-823528
-823473
-823477
-823427
-823322
-823163
-823050
-823060
-822947
-822749
-822643
-822600
-822416
-822234
-822142
-821897
-821722
-821552
-821348
-821187
-821004
-820862
-820609
-820383
-820143
-820079
-819875
-819692
-819512
-819338
-819185
-818944
-818759
-818570
-818426
-818377
-818207
-818056
-817949
-817727
-817584
-817577
-817553
-817448
-817314
-817197
-817181
-817004
-817015
-816963
-816926
-816943
-816807
-816847
-816880
-816783
-816735
-816670
-816760
-816643
-816696
-816626
-816631
-816622
-816499
-816475
-816403
-816428
-816427
-816300
-816296
-816191
-816120
-816143
-816110
-816002
-815975
-815883
-815804
-815797
-815805
-815753
-815712
-815693
-815589
-815601
-815302
-815407
-815428
-815337
-815192
-815222
-815126
-815117
-814952
-814983
-814897
-814727
-814730
-814573
-814504
-814479
-814332
-814302
-814184
-814164
-814035
-813985
-813935
-813904
-813906
-813835
-813765
-813721
-813670
-813625
-813619
-813598
-813543
-813535
-813568
-813437
-813517
-813499
-813555
-813506
-813527
-813570
-813518
-813472
-813525
-813581
-813447
-813422
-813455
-813326
-813264
-813813
-813449
-813326
-813276
-813272
-813195
-813342
-813241
-813324
-813315
-813417
-813485
-813420
-813534
-813533
-813529
-813589
-813686
-813789
-813695
-813654
-813381
-813537
-813652
-813586
-813653
-813502
-813463
-813316
-813515
-813412
-813532
-813409
-813537
-813536
-813601
-813486
-813524
-813571
-813518
-813486
-813412
-813491
-813502
-813450
-813369
-813414
-813474
-813423
-813443
-813543
-813585
-813542
-813469
-813505
-813209
-813367
-813527
-813466
-813511
-813519
-813668
-813722
-813678
-813683
-813718
-813767
-813719
-813821
-813827
-813943
-814061
-814004
-814066
-814124
-814079
-814152
-814127
-814286
-814223
-814260
-814291
-814412
-814359
-814377
-814369
-814336
-814362
-814422
-814492
-814502
-814516
-814498
-814565
-814566
-814645
-814689
-814697
-814604
-814742
-814764
-814802
-814745
-814912
-814875
-814871
-814937
-814927
-814945
-815083
-814968
-815032
-814858
-814998
-815118
-815182
-815258
-815209
-815216
-815265
-815231
-815214
-815251
-815272
-815290
-815375
-815491
-815479
-815551
-815521
-815574
-815550
-815619
-815636
-815632
-815618
-815659
-815594
-815601
-815504
-815459
-815557
-815559
-815566
-815602
-815610
-815649
-815704
-815680
-815660
-815629
-815700
-815663
-815403
-815564
-815633
-815777
-815696
-815717
-815775
-815669
-815672
-815909
-815874
-815975
-816069
-816124
-816146
-816136
-816237
-816246
-816293
-816366
-816485
-816517
-816528
-816672
-816604
-816579
-816649
-816802
-816811
-816786
-816739
-816823
-816857
-816859
-816918
-816896
-816858
-816964
-816904
-816886
-816963
-817066
-817082
-817064
-817114
-817134
-817093
-817231
-817142
-817540
-817457
-817521
-817491
-817467
-817573
-817541
-817600
-817779
-817801
-817819
-817827
-818013
-818122
-818166
-818050
-818102
-818185
-818288
-818297
-818322
-818382
-818314
-818345
-818300
-818216
-818127
-818041
-818150
-818138
-817998
-817969
-817932
-817858
-817867
-817688
-817705
-817725
-817605
-817574
-817449
-817364
-817414
-817452
-817312
-817330
-817233
-817267
-817264
-817175
-817074
-816991
-816981
-816962
-816775
-816771
-816603
-816596
-816586
-816372
-816266
-816309
-816252
-816037
-816089
-816129
-815990
-815900
-815862
-815901
-815929
-815821
-815938
-815884
-815911
-815980
-816032
-816056
-816069
-816111
-816163
-816265
-816282
-816340
-816393
-816433
-816363
-816347
-816420
-816359
-816475
-816433
-816381
-816334
-816390
-816411
-816420
-816390
-816228
-816297
-816240
-816128
-816011
-815909
-815959
-815765
-815633
-815635
-815640
-815464
-815379
-815220
-815112
-814979
-814695
-814547
-814290
-814151
-813947
-813705
-813591
-813346
-813032
-812864
-812627
-812284
-812069
-811669
-811570
-811438
-811325
-811193
-810904
-810762
-810600
-810517
-810649
-809995
-809907
-809916
-809745
-809496
-809472
-809440
-809259
-809104
-809087
-808937
-808977
-808836
-808747
-808774
-808703
-808616
-808650
-808532
-808483
-808531
-808526
-808416
-808494
-808435
-808499
-808468
-808380
-808459
-808523
-808434
-808388
-808401
-808445
-808380
-808385
-808246
-808189
-808259
-808165
-808055
-808067
-808048
-807984
-807862
-807701
-807740
-807565
-807574
-807473
-807443
-807420
-807340
-807373
-807261
-807361
-807267
-807223
-807211
-807308
-807131
-807162
-807070
-807071
-807030
-807011
-806893
-806773
-806596
-806643
-806664
-806626
-806555
-806453
-806382
-806265
-806208
-806147
-806158
-806141
-806121
-806196
-806091
-806166
-806172
-806232
-806169
-806265
-806252
-806378
-806384
-806407
-806533
-806646
-806858
-806948
-806994
-807009
-807170
-807198
-807261
-807410
-807499
-807425
-807594
-807538
-807637
-807624
-807676
-807746
-807671
-807772
-807684
-807977
-807898
-807866
-807759
-807787
-807905
-807952
-807978
-808009
-807915
-808012
-808000
-808111
-808243
-808191
-808257
-808244
-808277
-808397
-808435
-808475
-808495
-808601
-808599
-808562
-808701
-808646
-808721
-808702
-808636
-808686
-808594
-808551
-808612
-808576
-808552
-808565
-808486
-808555
-808540
-808452
-808483
-808327
-808284
-808346
-808285
-808231
-808263
-808322
-808304
-808308
-808453
-808448
-808478
-808521
-808644
-808613
-808671
-808775
-808794
-808913
-808954
-808977
-809199
-809253
-809367
-809429
-809462
-809516
-809508
-809615
-809701
-809718
-809688
-809788
-809696
-809697
-809714
-809855
-809770
-809687
-809747
-809724
-809733
-809660
-809686
-809711
-809736
-809764
-809722
-809760
-809730
-809826
-809815
-809852
-810039
-810022
-810224
-810209
-810248
-810427
-810392
-810479
-810627
-810653
-810708
-810628
-810663
-810770
-810854
-810882
-810861
-810853
-810754
-810756
-810837
-810885
-810845
-810807
-810795
-810814
-810776
-810882
-810881
-810825
-810897
-810906
-811028
-811079
-811063
-811011
-811164
-811152
-811206
-811217
-811247
-811217
-811208
-811207
-811272
-811302
-811241
-811381
-811419
-811415
-811420
-811363
-811395
-811436
-811388
-811415
-811512
-811551
-811638
-811654
-811715
-811857
-811836
-811993
-811917
-812061
-812154
-812202
-812255
-812299
-812357
-812394
-812488
-812520
-812485
-812597
-812559
-812572
-812539
-812558
-812607
-812751
-812862
-812880
-812826
-812834
-812862
-812931
-813047
-813143
-813202
-813272
-813273
-813432
-813458
-813495
-813597
-813750
-813696
-813676
-813791
-813932
-814031
-814053
-814070
-814087
-814068
-814763
-814343
-814160
-814162
-814144
-814193
-814265
-814177
-814237
-814316
-814314
-814491
-814551
-814586
-814735
-814924
-814968
-815039
-814967
-815045
-815249
-815346
-815417
-815441
-815593
-815634
-815798
-815719
-815835
-815948
-815890
-815959
-816102
-815895
-816106
-816174
-816282
-816227
-816233
-816325
-816307
-816298
-816330
-816313
-816447
-816497
-816474
-816459
-816505
-816448
-816464
-816509
-816448
-816511
-816565
-816526
-816636
-816528
-816539
-816535
-816654
-816568
-816521
-816671
-816691
-816759
-816686
-816642
-816687
-816711
-816790
-816738
-816753
-816813
-816807
-816876
-816839
-816873
-816925
-816879
-816754
-816860
-817015
-816926
-817046
-817117
-817118
-817119
-817177
-817148
-817144
-817076
-817217
-817121
-817049
-817009
-816988
-816984
-816955
-816872
-816744
-816820
-816667
-816677
-817064
-816683
-816519
-816273
-816207
-816054
-815985
-815860
-815738
-815478
-815470
-815276
-815029
-814843
-814675
-814455
-814158
-813894
-813732
-813501
-813306
-812965
-812779
-812536
-812392
-812187
-811899
-812166
-811527
-811316
-811102
-810882
-810733
-810590
-810411
-810240
-810150
-809985
-809943
-809806
-809736
-809607
-809579
-809465
-809489
-809339
-809338
-809289
-809369
-809300
-809402
-809463
-809320
-809390
-809567
-809588
-809674
-809652
-809775
-809841
-809844
-809915
-810028
-809994
-810088
-810159
-810057
-810099
-810110
-810096
-810151
-810077
-810095
-810044
-810057
-809946
-810030
-809950
-809940
-809944
-809868
-809841
-809744
-809607
-809345
-809496
-809556
-809450
-809522
-809488
-809395
-809372
-809459
-809805
-809460
-809377
-809301
-809180
-809306
-809275
-809227
-809194
-809172
-809093
-809052
-809023
-808907
-808933
-808964
-808816
-808752
-808595
-808577
-808541
-808401
-808347
-808270
-808242
-808330
-808308
-808280
-808322
-808350
-808440
-808519
-808447
-809038
-808716
-808706
-808731
-808771
-808743
-808850
-808986
-808972
-809573
-809311
-809201
-809310
-809294
-809327
-809347
-809754
-809464
-809405
-809333
-809384
-809306
-809301
-809437
-809430
-809394
-809337
-809363
-809417
-809394
-809317
-809340
-809365
-809377
-809308
-809274
-809347
-809389
-809353
-809436
-809416
-809374
-809412
-809462
-809464
-809412
-809460
-809469
-809533
-809544
-809339
-809437
-809569
-809543
-809595
-809504
-809511
-809458
-809480
-809476
-809482
-809474
-809442
-809545
-809537
-809482
-809428
-809561
-809622
-809640
-809607
-809759
-809686
-809781
-809882
-809968
-809943
-810037
-810094
-810096
-810146
-810221
-810209
-810259
-810307
-810402
-810346
-810474
-810385
-810363
-810492
-810530
-810548
-810460
-810469
-810569
-810527
-810583
-810552
-810528
-810623
-810678
-810602
-810698
-810697
-810674
-810719
-810764
-810704
-810780
-810864
-810900
-810975
-810985
-811104
-811216
-811240
-811288
-811234
-811431
-811514
-811499
-811488
-811515
-811600
-811674
-811692
-811578
-811556
-811633
-811668
-811729
-811688
-811615
-811563
-811617
-811722
-811687
-811557
-811620
-811613
-811758
-811706
-811807
-811751
-811816
-811968
-812035
-812042
-812180
-812137
-811939
-812251
-812336
-812425
-812331
-812353
-812350
-812398
-812433
-812411
-812462
-812392
-812391
-812550
-812505
-812525
-812472
-812585
-812711
-812630
-812557
-812657
-812705
-812798
-812803
-812887
-812945
-813013
-813007
-812946
-813042
-813056
-813134
-813255
-813400
-813416
-813480
-813505
-813475
-813596
-813506
-813650
-813626
-813716
-813768
-813767
-813817
-813906
-813900
-813869
-813858
-813828
-813954
-813860
-813888
-813761
-813735
-813753
-813826
-813855
-813780
-813768
-813680
-813644
-813632
-813639
-813700
-813557
-813683
-813580
-813576
-813497
-813469
-813451
-813431
-813500
-813407
-813281
-813249
-813208
-813158
-813088
-813126
-813082
-813364
-813114
-812976
-812916
-812863
-812781
-812884
-812935
-812980
-812790
-812761
-812639
-812528
-812670
-812639
-812605
-812556
-812543
-812585
-812519
-812546
-812461
-812382
-812360
-812295
-812220
-812155
-812113
-812050
-812029
-811943
-811823
-811774
-811611
-811318
-811375
-811449
-811274
-811136
-811182
-811124
-811151
-811113
-811007
-810983
-810902
-810799
-810654
-810611
-810595
-810557
-810521
-810455
-810337
-810376
-810349
-810321
-810300
-810117
-810127
-810021
-810010
-810035
-810104
-810056
-810038
-810099
-810174
-810131
-810070
-810166
-810223
-810170
-810213
-810293
-810329
-810350
-810417
-810420
-810419
-810574
-810517
-810581
-810504
-810520
-810596
-810640
-810543
-810626
-810588
-810505
-810425
-810389
-810311
-810197
-810049
-810097
-810004
-809926
-809756
-809613
-809467
-809389
-809354
-809067
-809061
-808875
-808769
-808496
-808398
-808102
-807967
-807753
-807592
-807424
-807248
-807057
-806873
-806590
-806420
-806767
-806212
-805922
-805760
-805479
-805271
-805155
-805027
-804792
-804754
-804636
-804492
-804388
-804286
-804178
-804211
-804192
-804159
-804142
-804152
-804136
-804173
-804276
-804203
-804138
-804262
-804267
-804246
-804272
-804227
-804288
-804310
-804375
-804695
-804391
-804399
-804432
-804320
-804315
-804332
-804317
-804302
-804416
-804475
-804395
-804360
-804404
-804443
-804482
-804462
-804374
-804460
-804395
-804425
-804369
-804454
-804506
-804267
-804317
-804303
-804181
-804164
-803959
-804037
-803992
-803927
-803934
-803854
-803840
-803827
-803726
-803731
-803645
-803595
-803371
-803563
-803504
-803551
-803425
-803457
-803539
-803550
-803498
-803525
-803458
-803508
-803527
-803483
-803604
-803666
-803681
-803770
-803869
-803837
-803992
-804047
-804112
-804108
-804215
-804375
-804374
-804335
-804551
-804625
-804743
-804846
-804911
-805049
-805182
-805231
-805259
-805107
-805393
-805418
-805601
-805420
-805802
-805871
-806130
-806102
-806322
-806486
-806569
-806633
-806671
-806723
-806790
-806810
-806911
-806977
-807037
-807065
-807074
-807016
-807053
-807097
-807156
-807043
-807061
-807045
-806936
-806965
-806847
-806864
-806755
-806684
-806656
-806706
-806620
-806624
-806631
-806610
-806701
-806742
-806815
-806744
-806827
-806923
-806941
-807649
-807397
-807274
-807420
-807477
-807594
-807718
-807858
-807922
-808005
-807890
-807901
-808015
-808071
-808121
-808143
-808272
-808359
-808272
-808243
-808241
-808301
-808348
-808372
-808307
-808383
-808387
-808435
-808498
-808654
-808726
-808859
-808839
-809030
-809072
-809066
-809241
-809283
-809322
-809385
-809395
-809494
-809568
-809570
-809659
-809840
-809908
-810019
-810090
-810141
-810258
-810270
-810269
-810321
-810473
-810556
-810677
-810773
-810984
-811045
-811311
-811401
-811541
-811705
-811740
-811804
-811897
-811861
-811873
-811931
-812067
-812143
-812255
-812343
-812392
-812479
-812486
-812589
-812677
-812806
-812843
-812801
-812943
-813117
-813066
-813280
-813336
-813365
-813605
-813598
-813728
-813889
-813871
-813925
-814114
-814180
-814243
-814383
-814421
-814529
-814677
-814780
-814900
-814973
-815095
-815216
-815322
-815338
-815474
-815497
-815525
-815668
-815798
-815879
-816039
-816223
-816338
-816411
-816471
-816536
-816681
-816765
-816873
-816989
-817048
-817256
-817273
-817337
-817492
-817585
-817665
-817733
-817808
-817870
-818004
-818147
-818229
-818205
-818257
-818307
-818414
-818467
-818644
-818746
-818695
-818876
-818929
-818939
-819092
-819209
-819179
-819253
-819369
-819452
-819449
-819555
-819489
-819519
-819556
-819638
-819670
-819720
-819731
-819761
-819760
-819858
-820006
-820131
-820158
-820212
-820414
-820401
-820494
-820614
-820725
-820856
-820930
-821042
-821027
-821209
-821344
-821293
-821374
-821467
-821561
-821674
-821759
-821782
-821978
-821944
-822010
-822159
-822236
-822813
-822666
-822702
-822804
-822920
-822911
-823040
-823088
-823237
-823409
-823514
-823650
-823814
-823936
-824008
-824192
-824325
-824481
-824494
-824589
-824639
-824736
-824914
-824740
-825006
-825215
-825279
-825307
-825349
-825371
-825369
-825510
-825479
-825546
-825518
-825599
-825581
-825600
-825580
-825552
-825566
-825647
-825684
-825610
-825699
-825849
-825919
-825837
-826031
-826248
-826337
-826449
-826603
-826668
-826750
-826994
-827556
-827403
-827491
-827605
-827933
-828138
-827830
-826575
-825856
-826138
-826426
-826705
-826792
-826763
-826716
-826774
-826815
-826769
-826686
-826692
-826703
-826652
-826597
-826631
-826588
-826502
-826386
-826164
-826075
-825907
-825763
-825716
-825522
-825309
-825145
-824786
-824582
-824263
-824026
-823735
-823525
-823255
-823026
-822630
-822437
-822082
-821761
-821431
-821227
-820889
-820689
-820392
-820047
-819795
-819509
-819224
-818976
-818852
-818510
-817984
-817904
-817824
-817501
-817285
-817071
-816888
-816733
-816426
-816252
-816116
-815998
-815793
-815639
-815519
-815456
-815196
-815048
-815003
-814969
-814775
-814689
-815406
-814776
-814535
-814353
-814343
-814139
-814003
-813899
-813881
-813724
-813636
-813503
-813401
-813345
-813301
-813211
-813069
-813003
-812985
-812844
-812726
-812560
-812425
-812376
-812222
-812129
-812116
-811966
-811890
-811842
-811721
-811541
-811478
-811438
-811346
-811274
-811104
-810891
-810794
-810828
-810571
-810446
-810345
-810296
-810218
-810178
-809791
-809883
-809774
-809727
-809695
-809576
-809556
-809534
-809455
-809105
-809123
-809099
-808929
-808902
-808879
-808823
-808689
-808592
-809365
-808654
-808491
-808486
-808451
-808373
-808302
-808280
-808214
-808205
-808193
-808227
-808196
-808154
-807988
-808034
-807983
-807981
-807812
-807725
-807627
-807630
-807508
-807239
-807165
-807256
-807099
-806950
-806852
-806848
-806688
-806581
-806491
-806413
-806281
-806279
-806245
-806092
-806056
-805976
-805921
-805781
-805566
-805562
-805452
-805290
-805323
-805109
-805140
-805048
-804975
-804917
-804776
-804699
-804661
-804726
-804599
-804477
-804572
-804471
-804506
-804441
-804349
-804404
-804504
-804441
-804439
-804523
-804531
-804510
-804472
-804486
-804395
-804415
-804418
-804282
-804268
-804301
-804219
-804208
-804194
-804214
-804261
-804259
-804150
-804109
-804144
-804247
-804121
-804146
-804170
-804093
-804135
-804057
-804079
-804008
-803981
-803973
-804085
-804012
-804168
-804129
-804245
-804265
-804374
-804477
-804540
-804551
-804656
-804726
-804796
-804833
-804927
-804866
-804874
-805029
-804996
-805018
-805083
-805167
-805257
-805166
-805100
-805087
-805191
-805179
-805156
-805148
-805199
-805310
-805344
-805335
-805420
-805437
-805457
-805556
-805681
-805647
-805687
-805858
-805985
-805932
-806030
-805985
-806042
-806159
-806282
-806329
-806160
-806346
-806421
-806521
-806481
-806471
-806519
-806564
-806664
-806756
-806808
-806789
-806859
-807130
-807164
-807204
-807375
-807373
-807509
-807603
-807765
-807932
-808017
-808163
-808295
-808365
-808537
-808656
-808718
-808768
-808946
-809128
-809293
-809320
-809427
-809477
-809498
-809641
-809692
-809805
-809831
-810003
-810154
-810236
-810252
-810378
-810460
-810562
-810654
-810692
-810764
-811007
-811092
-811208
-811312
-811447
-811709
-811742
-811880
-812133
-812214
-812435
-812418
-812517
-812681
-812849
-812908
-812951
-813017
-813073
-813083
-813200
-813236
-813213
-813232
-813330
-813297
-813257
-813153
-813157
-813108
-813154
-813185
-813151
-813139
-813020
-813072
-813121
-813225
-813234
-813212
-813268
-813313
-813333
-813441
-813477
-813654
-813563
-813640
-813727
-813855
-813922
-813970
-813990
-813997
-814008
-814139
-814156
-814206
-814144
-814294
-814397
-814483
-814549
-814593
-814647
-814735
-814680
-814866
-814933
-815025
-814932
-815045
-815007
-815049
-815136
-815179
-815325
-815356
-815371
-815446
-815470
-815562
-815598
-815601
-815721
-815797
-815831
-815924
-815884
-816036
-816082
-816057
-816255
-816312
-816438
-816531
-816601
-816754
-816845
-816943
-817124
-817161
-817301
-817471
-817556
-817629
-817649
-817692
-817771
-817824
-818045
-818099
-818193
-818283
-818295
-818489
-818483
-818460
-818583
-818669
-818827
-818739
-818798
-818847
-818911
-818772
-818721
-818702
-818696
-818737
-818670
-818707
-818693
-818542
-818534
-818405
-818351
-818275
-818105
-817961
-817750
-817610
-817492
-817254
-817017
-816759
-816684
-816523
-816379
-816197
-816833
-816095
-815908
-815718
-815439
-815316
-815255
-815207
-815119
-814914
-814855
-814822
-814761
-814668
-814654
-814521
-814464
-814352
-814329
-814330
-814317
-814391
-814279
-814290
-814242
-814260
-814281
-814263
-814343
-814311
-814319
-814390
-814399
-814377
-814382
-814435
-814517
-814383
-814500
-814567
-814542
-814577
-814559
-814554
-814501
-814503
-814527
-814591
-814689
-814622
-814635
-814702
-814748
-814828
-814780
-814721
-814731
-814797
-814787
-814788
-814689
-814676
-814725
-814719
-814686
-814480
-814526
-814594
-814497
-814418
-814458
-814464
-814359
-814373
-814304
-814203
-814200
-814199
-814130
-814124
-814019
-813998
-814041
-814048
-813950
-814055
-814086
-814100
-814030
-814114
-814137
-814092
-814073
-814114
-814512
-814224
-814190
-814246
-814311
-814225
-814331
-814390
-814369
-814301
-814326
-814311
-814382
-814458
-814547
-814560
-814524
-814667
-814563
-814734
-814814
-814914
-814837
-815008
-815084
-815062
-815117
-815243
-815312
-815333
-815351
-815446
-815430
-815470
-815534
-816162
-815697
-815524
-815616
-815455
-815505
-815496
-815480
-815563
-815505
-815476
-815436
-815419
-815425
-815346
-815255
-815230
-815240
-815190
-815215
-815126
-815221
-815135
-815153
-815174
-815154
-815138
-815185
-815158
-815104
-815071
-814998
-815071
-815032
-815003
-814987
-814974
-815043
-814997
-814980
-815000
-815004
-815549
-815112
-814931
-814956
-814919
-814898
-814858
-814915
-814838
-814848
-814815
-814975
-814870
-814857
-814898
-814946
-814693
-814846
-814907
-814842
-814792
-814751
-814828
-814745
-814705
-814746
-814739
-814649
-814689
-814776
-814782
-814787
-814728
-814769
-814795
-814906
-814817
-814859
-814914
-814935
-814937
-814971
-814944
-815005
-814974
-815033
-815212
-815234
-815241
-815377
-815191
-815342
-815369
-815338
-815532
-815494
-815549
-815612
-815451
-815595
-815515
-815528
-815457
-815561
-815585
-815673
-815563
-815556
-815607
-815658
-815558
-815591
-815685
-815703
-815781
-815767
-815745
-815855
-815826
-815912
-815994
-815979
-816019
-816061
-815992
-816080
-816133
-816102
-816059
-816082
-816051
-816090
-816079
-816114
-816102
-816060
-815960
-815965
-816020
-815999
-815885
-815818
-815951
-815970
-815914
-815920
-815788
-815754
-815917
-815881
-815916
-816003
-815969
-816082
-816088
-815983
-816059
-816118
-816142
-816267
-816362
-816377
-816451
-816421
-816493
-816478
-816580
-816554
-816663
-816607
-816691
-816792
-816782
-816760
-816869
-816790
-816840
-816963
-817031
-816991
-817108
-817018
-817134
-817321
-817380
-817356
-817329
-817404
-817575
-817612
-817818
-817861
-817813
-817917
-817934
-817931
-818001
-817984
-818027
-818032
-817910
-818049
-818089
-818119
-818090
-818142
-818178
-818139
-818173
-818124
-818271
-818297
-818281
-818434
-818421
-818380
-818507
-818505
-818561
-818742
-818727
-818857
-818923
-819027
-819064
-819044
-819192
-819140
-819054
-819212
-819345
-819416
-819487
-819505
-819615
-819574
-819694
-819658
-819754
-819747
-819857
-819768
-819928
-819942
-819945
-819905
-819978
-820061
-819810
-820002
-820118
-820097
-819996
-820034
-820066
-819990
-819952
-819836
-819810
-819813
-819714
-819652
-819517
-819363
-819332
-819266
-819051
-818986
-818809
-818643
-818493
-818281
-818181
-818084
-817951
-817793
-817617
-817486
-817134
-816963
-816793
-816482
-816352
-816171
-816005
-815854
-815679
-815473
-815315
-815231
-815053
-814899
-814700
-814629
-814441
-814351
-814228
-814109
-814093
-814025
-813961
-813866
-813983
-813850
-813890
-813912
-813684
-813679
-813621
-813637
-813697
-813719
-813728
-813737
-813728
-813753
-813717
-813712
-813722
-813671
-813788
-813737
-813772
-813736
-813730
-813673
-813727
-813796
-813903
-813892
-813836
-813992
-813909
-813975
-814063
-814154
-814183
-814185
-814198
-814298
-814291
-814269
-814377
-814462
-814539
-814456
-814585
-814595
-814636
-814557
-814576
-814481
-814583
-814408
-814450
-814542
-814519
-814543
-814439
-814452
-814517
-814390
-814368
-814416
-814349
-814269
-814294
-814346
-814298
-814227
-814293
-814331
-814230
-814295
-814401
-814462
-814380
-814449
-814510
-814483
-814633
-814607
-814664
-814693
-814867
-814913
-814705
-814836
-815002
-815064
-815051
-815046
-815166
-815217
-815295
-815355
-815447
-815336
-815333
-815445
-815466
-815384
-815433
-815601
-815514
-815604
-815602
-815572
-815548
-815592
-815591
-815533
-815651
-815492
-815732
-815843
-815846
-815889
-815909
-815933
-816065
-815928
-816063
-816090
-816092
-816151
-816124
-816168
-816281
-816141
-816130
-816140
-816122
-816133
-816043
-816206
-816214
-816176
-816159
-816143
-816197
-816092
-816159
-816037
-816004
-816447
-816142
-816153
-816082
-816068
-816038
-816050
-816020
-816034
-815997
-815998
-815913
-815900
-815799
-815784
-815734
-815677
-815617
-815527
-815455
-815377
-815252
-815271
-815061
-815003
-814950
-814838
-814850
-814789
-814712
-814711
-814591
-814558
-814493
-814422
-814438
-814398
-814388
-814434
-814356
-814383
-814377
-814407
-814388
-814430
-814468
-814333
-814291
-814354
-814386
-814317
-814470
-814461
-814490
-814466
-814380
-814408
-814449
-814365
-814419
-814313
-814287
-814341
-814244
-814190
-814254
-814162
-814134
-814142
-814088
-814151
-814155
-814089
-814185
-814203
-814252
-814179
-814294
-814301
-814381
-814398
-814396
-814312
-814429
-814406
-814382
-814218
-814377
-814365
-814393
-814373
-814390
-814391
-814356
-814334
-814262
-814232
-814276
-814347
-814354
-814301
-814286
-814300
-814402
-814376
-814416
-814333
-814403
-814520
-814621
-814627
-814618
-814697
-814645
-814727
-814796
-814756
-814768
-814866
-814899
-814983
-815014
-814880
-814949
-814926
-814932
-815001
-815075
-815077
-815112
-814934
-815056
-815181
-815235
-815301
-815254
-815354
-815329
-815443
-815608
-815592
-815633
-815576
-815726
-815823
-815841
-815867
-815913
-815898
-815890
-815952
-815936
-815991
-815979
-815989
-815902
-815955
-815979
-816028
-815932
-816008
-816082
-816088
-816072
-816114
-816208
-816154
-816175
-816327
-816271
-816359
-816369
-816458
-816552
-816472
-816579
-816637
-816604
-816685
-816825
-816768
-816942
-816983
-817075
-817174
-817232
-817242
-817307
-817466
-817550
-817601
-817626
-817537
-817617
-817665
-817756
-817807
-817875
-817771
-817824
-817724
-817867
-817891
-817876
-817625
-817851
-817822
-817913
-817999
-817989
