PPG
-917418
-917518
-917450
-917642
-917550
-917477
-917561
-917499
-917387
-917300
-917198
-917206
-917287
-917350
-917457
-917546
-917634
-917724
-917642
-917730
-917737
-917634
-917702
-917696
-917666
-917640
-917599
-917526
-917348
-917282
-917145
-916997
-917092
-917002
-917060
-917046
-917153
-917633
-917365
-917325
-917337
-917225
-917198
-917177
-917070
-917025
-916951
-916841
-916797
-916794
-916599
-916524
-916503
-916453
-916492
-916462
-916406
-916294
-916403
-916318
-916458
-916414
-916548
-916711
-916685
-916962
-917087
-917151
-917165
-917194
-917373
-917579
-917668
-917906
-918150
-918254
-918516
-918543
-918703
-918877
-918989
-919298
-919187
-919453
-919596
-919668
-919885
-919695
-920092
-920284
-920529
-920820
-920917
-921255
-921418
-921462
-921594
-921752
-921765
-921928
-922095
-922123
-922476
-922684
-922868
-923059
-923327
-923484
-923594
-923704
-923771
-923806
-924075
-924872
-924596
-924591
-924700
-924784
-924946
-924985
-925061
-925327
-925500
-925718
-925801
-926064
-926245
-926400
-926587
-926648
-926810
-927001
-927199
-927357
-927578
-927773
-927825
-927931
-928046
-928206
-928338
-928396
-928497
-928713
-928910
-928967
-929004
-929191
-929124
-929219
-929351
-929491
-929594
-929707
-929758
-929909
-929974
-930044
-930147
-930309
-930394
-930504
-930632
-930825
-930990
-931110
-931311
-931536
-931587
-931629
-931803
-932110
-932380
-932487
-932763
-932834
-933041
-933214
-933288
-933487
-933687
-933817
-933953
-933824
-934132
-934317
-934469
-934530
-934534
-934510
-934659
-934713
-934818
-934835
-934871
-935057
-935051
-935054
-935183
-935266
-935326
-935344
-935529
-935614
-935663
-935838
-935938
-936139
-936058
-936219
-936530
-936709
-936768
-936940
-937178
-937492
-937479
-937513
-937644
-937957
-938020
-938221
-938325
-938629
-938625
-938676
-938761
-938980
-939020
-939169
-938656
-939134
-939410
-939483
-939481
-939601
-940227
-939884
-939896
-940047
-940070
-940181
-940251
-940366
-940469
-940596
-940662
-940861
-940950
-941024
-941179
-941392
-941594
-941808
-941881
-941973
-942175
-942313
-942300
-942452
-942592
-942776
-942878
-943015
-943048
-943015
-942979
-942831
-942874
-942669
-942470
-942228
-941888
-941664
-941227
-940680
-940051
-939396
-938703
-937782
-937138
-936351
-935457
-934617
-933575
-932767
-931892
-930918
-930033
-929090
-928003
-926923
-925942
-925027
-923974
-923030
-921992
-921110
-920191
-919317
-918519
-917778
-917013
-916351
-915631
-915155
-914539
-913874
-913342
-912692
-912259
-911925
-911501
-911287
-910868
-910667
-910380
-910120
-909766
-909586
-909301
-909248
-909115
-908993
-908828
-908788
-908675
-908464
-908387
-908336
-908368
-908194
-908169
-908121
-908113
-908256
-908077
-908114
-908100
-908087
-908237
-908254
-908251
-908259
-908346
-908387
-908452
-908524
-908484
-908565
-908631
-908741
-908689
-908589
-908676
-908956
-909073
-908946
-908873
-908938
-908944
-908883
-908944
-908873
-908870
-908779
-908776
-908743
-908639
-908444
-908447
-908369
-908049
-908020
-907841
-907825
-907631
-907528
-907272
-907137
-907062
-907759
-907709
-907565
-907791
-908104
-908127
-908069
-907913
-907730
-907779
-907942
-907969
-908060
-908731
-908446
-908434
-908575
-908677
-908917
-909155
-909497
-909691
-909967
-910144
-910427
-910632
-910693
-910959
-911195
-911403
-911569
-911632
-912422
-912180
-912276
-912192
-912336
-912257
-912265
-912359
-912277
-912328
-912320
-912236
-912335
-912310
-912172
-912192
-912059
-912103
-912191
-912115
-912026
-912030
-911958
-911982
-911814
-911898
-911779
-911772
-911785
-911790
-911929
-911775
-911854
-911961
-911881
-911943
-912067
-912071
-912088
-912104
-912265
-912323
-912360
-912358
-912320
-912448
-912443
-912512
-912556
-912601
-912649
-912710
-912804
-912820
-912786
-912806
-912947
-912936
-912995
-913033
-913078
-913148
-913254
-913246
-913264
-913323
-913304
-913477
-913528
-913765
-913863
-913861
-913709
-913970
-914070
-914286
-914421
-914584
-914738
-915339
-915283
-915468
-915679
-915781
-916029
-916328
-916513
-916769
-916857
-917106
-917247
-917453
-917564
-917635
-917848
-917955
-918256
-918416
-918580
-918689
-918928
-919125
-919187
-919410
-919475
-919534
-919758
-919865
-920066
-920123
-920309
-920433
-920559
-920576
-920644
-920726
-920921
-921178
-921364
-922074
-921757
-921679
-921798
-921950
-922105
-922382
-922561
-922669
-922809
-922969
-923168
-923373
-923361
-923522
-923588
-923730
-923856
-923975
-924169
-924287
-924515
-924700
-924757
-924945
-924954
-925009
-925590
-925426
-925418
-925553
-925566
-925694
-925797
-925877
-926649
-926155
-926077
-926213
-926384
-926366
-926591
-926776
-926728
-926875
-926813
-926941
-927075
-927331
-927415
-927485
-927589
-927699
-927779
-927820
-927959
-927984
-928152
-928189
-928416
-928447
-928645
-928647
-928653
-928716
-928938
-928981
-929149
-929251
-929370
-929428
-929557
-929712
-929707
-929338
-929576
-929869
-929842
-929979
-929987
-930112
-930169
-930193
-930279
-930304
-930334
-930692
-930736
-930800
-930850
-930868
-930949
-931181
-931160
-931193
-931280
-931513
-931667
-931659
-931718
-931815
-931949
-932159
-932269
-932270
-932343
-932350
-932559
-932738
-932688
-932918
-933004
-933087
-933211
-933207
-933178
-933257
-933299
-933400
-933562
-933547
-933662
-933807
-933755
-933896
-933849
-933925
-934032
-934015
-934216
-934292
-934322
-934439
-934490
-934449
-934203
-934403
-934667
-934656
-934860
-935002
-935045
-935071
-935155
-935031
-935065
-934886
-934890
-934874
-934793
-934670
-934334
-934021
-933678
-933329
-932553
-932145
-927932
-922147
-916369
-911749
-910159
-907247
-905658
-904626
-904113
-903844
-903397
-903013
-901974
-901761
-901573
-901380
-901424
-901278
-901152
-900998
-900953
-901032
-901077
-900976
-900992
-901043
-901100
-901165
-901081
-901168
-901293
-901269
-901303
-901399
-901525
-901554
-901571
-901536
-901701
-901694
-901878
-901952
-901985
-902043
-902143
-902289
-902364
-902359
-902228
-902218
-902337
-902360
-902448
-902559
-902594
-902626
-902597
-902444
-902491
-902358
-902291
-902350
-902289
-902361
-902355
-902360
-902182
-902168
-902018
-901890
-901849
-901907
-901751
-901808
-901653
-901665
-901670
-901555
-901446
-901608
-901711
-901619
-901737
-901705
-901838
-902034
-902209
-902352
-902422
-902505
-902767
-902913
-903145
-903467
-903586
-903829
-904097
-904176
-904327
-904511
-904764
-904953
-905186
-905317
-905436
-905641
-905751
-905760
-905832
-906061
-906100
-906295
-906302
-906406
-906415
-906537
-906513
-906539
-906485
-906475
-906378
-906322
-906309
-906318
-906210
-906152
-906147
-906037
-905934
-905979
-905768
-905868
-905903
-905905
-905793
-905835
-905722
-905628
-905605
-905666
-905631
-905751
-905765
-905740
-905816
-905777
-905791
-905852
-905824
-905634
-905865
-906588
-906211
-906156
-906131
-906430
-906431
-906371
-906366
-906547
-906629
-906667
-906796
-906854
-907022
-907014
-907066
-907228
-907190
-907285
-907469
-907466
-907643
-907820
-907937
-908072
-908192
-908204
-908217
-908337
-908490
-908722
-908933
-908967
-909099
-909245
-909394
-909521
-909752
-909901
-910200
-910403
-910491
-910640
-910753
-911105
-911243
-911288
-911405
-911586
-911732
-912099
-912147
-912378
-912519
-912710
-912918
-913003
-913174
-913196
-913400
-913514
-913641
-914154
-914380
-914485
-914462
-914620
-914883
-915130
-915278
-915400
-915545
-915783
-915813
-915968
-916064
-916307
-916483
-916677
-916800
-917037
-917301
-917504
-917751
-917847
-917904
-918082
-918311
-918572
-918777
-918982
-919149
-919304
-919607
-919741
-919758
-919951
-920306
-920326
-920524
-920729
-920974
-921213
-921255
-921418
-921543
-921753
-922004
-922291
-922485
-922681
-922812
-922844
-923083
-923188
-923339
-923513
-923597
-923801
-923902
-923989
-924153
-924287
-924396
-924542
-924645
-924798
-924920
-925158
-925343
-925472
-925638
-925801
-925973
-926098
-926131
-926263
-926538
-926683
-926872
-927009
-927037
-927232
-927293
-927326
-927368
-927468
-927634
-927885
-927933
-928149
-928281
-928465
-928412
-928528
-928531
-928602
-928878
-928855
-929060
-929100
-929207
-929331
-929338
-929469
-929435
-929532
-929625
-929726
-929889
-930002
-930181
-930436
-930448
-930582
-930608
-930709
-931001
-931097
-931169
-931317
-931339
-931361
-931292
-931143
-931199
-931420
-931564
-931791
-931968
-932074
-932314
-932565
-932615
-932623
-932837
-932954
-933102
-933218
-933456
-933499
-933646
-933845
-934071
-934223
-934309
-934385
-934464
-934669
-934717
-934770
-934910
-935095
-935012
-934903
-934941
-934876
-934749
-934620
-934434
-934228
-933995
-933567
-932968
-932504
-931907
-931260
-930591
-929972
-929736
-928390
-927496
-926648
-925698
-924795
-923837
-922813
-921826
-920983
-920027
-919218
-918139
-917251
-916372
-915463
-914528
-913706
-913001
-912251
-911425
-910813
-910032
-909463
-908464
-908067
-907559
-906879
-906353
-906062
-905639
-905183
-904815
-904472
-904070
-903669
-903426
-903135
-902971
-902783
-902679
-902572
-902396
-902412
-902094
-902053
-901923
-901882
-901958
-901777
-901721
-901627
-901608
-901727
-901733
-901798
-901665
-901672
-901754
-901787
-901822
-901838
-901832
-901999
-901976
-902102
-902012
-902131
-902230
-902258
-902241
-902291
-902421
-902558
-902452
-902393
-902401
-902412
-902423
-902469
-902454
-902379
-902329
-902370
-902205
-902163
-901978
-902012
-901828
-901830
-901729
-901720
-901460
-901522
-901373
-901169
-901141
-900988
-900971
-900935
-900747
-900669
-900600
-900519
-900435
-900475
-900336
-900285
-900326
-900385
-900481
-900604
-900617
-900680
-900717
-900944
-901058
-901184
-901346
-901622
-901760
-902122
-902291
-902547
-902852
-903020
-903269
-903478
-903685
-903920
-904213
-904331
-904573
-904739
-904813
-904980
-905124
-905136
-905275
-905450
-905486
-905623
-905529
-905724
-905732
-905624
-905599
-905622
-905634
-905554
-905213
-904950
-904854
-904919
-904819
-904913
-904838
-904795
-904773
-904843
-904715
-904753
-904610
-904551
-904597
-904452
-904401
-904399
-904360
-904350
-904467
-904365
-904340
-904403
-904432
-904407
-904327
-904457
-904420
-904472
-904426
-904444
-904507
-904605
-904531
-904660
-904671
-904644
-904821
-904819
-904887
-905052
-905075
-905302
-905372
-905368
-905495
-905594
-905861
-905952
-906049
-906139
-906320
-906403
-906581
-906685
-906855
-906941
-907141
-907318
-907359
-907573
-907804
-908023
-908132
-908314
-908438
-907960
-908450
-908766
-908987
-909186
-909356
-909525
-910238
-909915
-909964
-910120
-910148
-910431
-910576
-910706
-910945
-911066
-911220
-911333
-911447
-911635
-911839
-911934
-912120
-912243
-912392
-912673
-912790
-912869
-912993
-913167
-913257
-913472
-913602
-913715
-913948
-914161
-914220
-914373
-914542
-914622
-914717
-915038
-915229
-915271
-915467
-915624
-915784
-915905
-915995
-916102
-916283
-916533
-916699
-916779
-916909
-917148
-917301
-917351
-917527
-917706
-917911
-918035
-918162
-918313
-918448
-918742
-918891
-918967
-919117
-919187
-919375
-919466
-919555
-919690
-919767
-919965
-920176
-920147
-920280
-920352
-920548
-920724
-920833
-920814
-921054
-921190
-921268
-921242
-921286
-921349
-921505
-921659
-921768
-921761
-922445
-922053
-922027
-922033
-921931
-922252
-922361
-922598
-922712
-922732
-922845
-923037
-923159
-923266
-923334
-923446
-923583
-923690
-923794
-923955
-924112
-924887
-924590
-924482
-924498
-924676
-924824
-924959
-925048
-925193
-925346
-925339
-925408
-925591
-925601
-925701
-925806
-925939
-925942
-926890
-926511
-926409
-926512
-926610
-926593
-926638
-926755
-926917
-927083
-927222
-927364
-927441
-927586
-927737
-927886
-927982
-928107
-928280
-928399
-928496
-928622
-928822
-928890
-928991
-929098
-929247
-929446
-929657
-929732
-929949
-930065
-930147
-930351
-930484
-930436
-930496
-930532
-930672
-930714
-930653
-930682
-930583
-930496
-930230
-929883
-929542
-929146
-928804
-928294
-927795
-927073
-926360
-925683
-924817
-923972
-923069
-922368
-921423
-920475
-919512
-918574
-918475
-916844
-915678
-914691
-913801
-912912
-911969
-911124
-910246
-909386
-908731
-907868
-907122
-906345
-905689
-905008
-904408
-903878
-903297
-902676
-902267
-901794
-901396
-900987
-900559
-900341
-900074
-899753
-899439
-899154
-899044
-898880
-898569
-898555
-898309
-898274
-898247
-898154
-898095
-897883
-897995
-897978
-897965
-897898
-897868
-897813
-897862
-897976
-898004
-897990
-897994
-898104
-897994
-898094
-898044
-897996
-898055
-898095
-898118
-898056
-898020
-897746
-897458
-897292
-897144
-897120
-897158
-897199
-897239
-897237
-897225
-897181
-897120
-896921
-896931
-896840
-896913
-896761
-896674
-896594
-896654
-896416
-896446
-896254
-896088
-896120
-896088
-895964
-895911
-895852
-895786
-895783
-895620
-895533
-895548
-895433
-895469
-895445
-895188
-895378
-895510
-895600
-895654
-895695
-895713
-895870
-895889
-896028
-896250
-896354
-896588
-896755
-896875
-896926
-897092
-897398
-897526
-897824
-898076
-898201
-898475
-898611
-898846
-898955
-898961
-899128
-899357
-899407
-899458
-899641
-899754
-899959
-899920
-899963
-900057
-900044
-900094
-900090
-900095
-900487
-900279
-900237
-900174
-900155
-900111
-900086
-900072
-900115
-899985
-900100
-900069
-900001
-899987
-899910
-900067
-900104
-900073
-900054
-900030
-900026
-900017
-899923
-899963
-899939
-899834
-899842
-899924
-899830
-899911
-899942
-899931
-899999
-899970
-899980
-900172
-900188
-900164
-900249
-900241
-900415
-900497
-900479
-900460
-900580
-900604
-900709
-900746
-900868
-900915
-901057
-901130
-901170
-901214
-901259
-901373
-901633
-901774
-901753
-901931
-902036
-902235
-902357
-902430
-902501
-902564
-902859
-903057
-903158
-903308
-903514
-903562
-903595
-903801
-904030
-904238
-904198
-904470
-904662
-904909
-905144
-905199
-905328
-905460
-905719
-905862
-906165
-906258
-906352
-906596
-906738
-906869
-907133
-907171
-907395
-907594
-907791
-907957
-908149
-908262
-908383
-908578
-908733
-908889
-909059
-909148
-909345
-909561
-909713
-909863
-910188
-910313
-910379
-910597
-910760
-910910
-911004
-911182
-911294
-911513
-911670
-911781
-911848
-911880
-912002
-912286
-912338
-912440
-912722
-912793
-913014
-913005
-913164
-913294
-913370
-913632
-913663
-913890
-914087
-914228
-914359
-914471
-914485
-914703
-914833
-915023
-915161
-915394
-915554
-915622
-915839
-915887
-915945
-916136
-916171
-916296
-916550
-916707
-916790
-916914
-917089
-917060
-917086
-917258
-917287
-917385
-917596
-917718
-917867
-917870
-918084
-918133
-918142
-918165
-918273
-918482
-918648
-918708
-918927
-919066
-919086
-919296
-919345
-919430
-919464
-919666
-919878
-919899
-919945
-920096
-920215
-920359
-920397
-920564
-920632
-920790
-920839
-921025
-921146
-921217
-921436
-921448
-921597
-921625
-921831
-922000
-922080
-922289
-922362
-922488
-922663
-922809
-922870
-922971
-923099
-923386
-923556
-923798
-923945
-923947
-924227
-924420
-924430
-924576
-924628
-924956
-924983
-925181
-925337
-925623
-925676
-925922
-926026
-926089
-926238
-926423
-926540
-926660
-926689
-926740
-926894
-926972
-926905
-926859
-926757
-926650
-926539
-926431
-926137
-925839
-925354
-924714
-924380
-923879
-923446
-922763
-922167
-921439
-920648
-919873
-918991
-918152
-917237
-916380
-915365
-914540
-913620
-912652
-911858
-911050
-910143
-909287
-908303
-907563
-906806
-905990
-905292
-904495
-903860
-903271
-902675
-901952
-901463
-900882
-900425
-899907
-899559
-899215
-898791
-898480
-898125
-897921
-897663
-897331
-897107
-897069
-896880
-896915
-896674
-896543
-896501
-896418
-896290
-896170
-896233
-896163
-896130
-896107
-896082
-896263
-896367
-896313
-896379
-896355
-896323
-896392
-896436
-896563
-896568
-896579
-896546
-896602
-896629
-896673
-896688
-896693
-896748
-896785
-896920
-896883
-897028
-896970
-896796
-896791
-896849
-896770
-896730
-896729
-896615
-896739
-896590
-896490
-896350
-896221
-896126
-896174
-896031
-895922
-895766
-895734
-895607
-895648
-895427
-895390
-895434
-895318
-895345
-895314
-895223
-895272
-895229
-895169
-895254
-895345
-895390
-895463
-895522
-895583
-895785
-895914
-895998
-896165
-896276
-896450
-896790
-897035
-897464
-897910
-898236
-898462
-898507
-898567
-898694
-898942
-899128
-899279
-899407
-899671
-899767
-900033
-900109
-900024
-900090
-900293
-900367
-900473
-900566
-900511
-900546
-900528
-900563
-900471
-900281
-900364
-900378
-900442
-900446
-900325
-900271
-900234
-900138
-900136
-900041
-900127
-900000
-900021
-899993
-899898
-899922
-899870
-899976
-899979
-899942
-900005
-900017
-899965
-900033
-900061
-900149
-900178
-900207
-900218
-900127
-900213
-900255
-900364
-900463
-900446
-900497
-900601
-900593
-900645
-900741
-900909
-901112
-901182
-901289
-901256
-901408
-901484
-901554
-901571
-901713
-901819
-901886
-901967
-902171
-902306
-902432
-902550
-902718
-902890
-903018
-903206
-903521
-903556
-904031
-904322
-904714
-904829
-905026
-905278
-905375
-905494
-905672
-905872
-906026
-905971
-906091
-906227
-906289
-906304
-906576
-906708
-906983
-907105
-907349
-907424
-907639
-907707
-907744
-907991
-908182
-908303
-908399
-908504
-908724
-908908
-909022
-909050
-909156
-909265
-909385
-909500
-909712
-909802
-909946
-910038
-910177
-910208
-910386
-910517
-910732
-910933
-911013
-911131
-911229
-911379
-911431
-911552
-911700
-911815
-911903
-912046
-912138
-912219
-913440
-913869
-914756
-915581
-915996
-915940
-916163
-916269
-916758
-916896
-916953
-916921
-917010
-917119
-917915
-917909
-917992
-917964
-918092
-918291
-918417
-918393
-918513
-918603
-918692
-918773
-918778
-918929
-919045
-919110
-919214
-919472
-919482
-919524
-919644
-919771
-919799
-919877
-920017
-920019
-920239
-920302
-920492
-920568
-920474
-920731
-920854
-920915
-921210
-921299
-921518
-921552
-921653
-921879
-921949
-922014
-922131
-922266
-922401
-922546
-922711
-922905
-923070
-923235
-923335
-923480
-923456
-923595
-923713
-923840
-923961
-924010
-924044
-924081
-924196
-924037
-924000
-923864
-923630
-923602
-923408
-923118
-922714
-922493
-921975
-921405
-920904
-920355
-919678
-919029
-918324
-917513
-916809
-915698
-915024
-914145
-913182
-912326
-911464
-910623
-909814
-908897
-908076
-907307
-906550
-905384
-904877
-904270
-903602
-902920
-902199
-901672
-901039
-900545
-899876
-899467
-899024
-898464
-898110
-897801
-897430
-896989
-896828
-896544
-896149
-895931
-895678
-895639
-895552
-895434
-895315
-895274
-895162
-895161
-895241
-895133
-895143
-895225
-895235
-895292
-895253
-895365
-895491
-895477
-895434
-895405
-895593
-895730
-895784
-895795
-895912
-896007
-896098
-896176
-896135
-896193
-896181
-896281
-896256
-896362
-896375
-896483
-896561
-896511
-896409
-896385
-896294
-896397
-896435
-896408
-896316
-896338
-896307
-896162
-895975
-895840
-895788
-895806
-895718
-895627
-895630
-895429
-895327
-895187
-895096
-895101
-894952
-894856
-894837
-894884
-894915
-894889
-894869
-894863
-894860
-894951
-895022
-895020
-895307
-895374
-895503
-895662
-895904
-896061
-896076
-896342
-896552
-896688
-896915
-897194
-897378
-897661
-897842
-898075
-898309
-898470
-898616
-898745
-898824
-898996
-899250
-899399
-899439
-899612
-899688
-899768
-899796
-899723
-899862
-899838
-899920
-899969
-899816
-899868
-899880
-899845
-899711
-899717
-899752
-899628
-899696
-899625
-899586
-899536
-899541
-899447
-899400
-899423
-899316
-899356
-899249
-899331
-899334
-899247
-899104
-899135
-899060
-899143
-899263
-899179
-899137
-899244
-899199
-899361
-899242
-899319
-899336
-899392
-899438
-899542
-899716
-899836
-899925
-899922
-900034
-900086
-900145
-900193
-900354
-900408
-900398
-900636
-900821
-900940
-900969
-901116
-901135
-901290
-901422
-901450
-901558
-901755
-901895
-901977
-902024
-902135
-902343
-902549
-902572
-902760
-902968
-902981
-903231
-903392
-903959
-903755
-903693
-903966
-904003
-904245
-904314
-904422
-904614
-904712
-904927
-904970
-905302
-905395
-905694
-905748
-905989
-906182
-906361
-906398
-906485
-906657
-906790
-906955
-907107
-907231
-907427
-907636
-907778
-907858
-907975
-908101
-908268
-908386
-908446
-908774
-908813
-909061
-909215
-909348
-909402
-909587
-909746
-909910
-910138
-910363
-910429
-910596
-910747
-910926
-911055
-911840
-911526
-911472
-911579
-911803
-911926
-912161
-912225
-912421
-912409
-912497
-912816
-912898
-913082
-913188
-913322
-913498
-913660
-913711
-913877
-913871
-914015
-914152
-914339
-914386
-914611
-914659
-914775
-914847
-914989
-915140
-915133
-915208
-915429
-915546
-915601
-915741
-915861
-915970
-916114
-916064
-916268
-916360
-916574
-916653
-916683
-916833
-916932
-917029
-917101
-917178
-917221
-917225
-917363
-917547
-917649
-917831
-917903
-917958
-918033
-918119
-918308
-918289
-918503
-918689
-918842
-918920
-919066
-919041
-919049
-919223
-919362
-919313
-919521
-919681
-919711
-919720
-919886
-920085
-920121
-920103
-920139
-920357
-920530
-920698
-920826
-920789
-920919
-921059
-921134
-921205
-921301
-921567
-921808
-921874
-922093
-922284
-922470
-922579
-922667
-922924
-922962
-923201
-923373
-923645
-923891
-924065
-924191
-924313
-924397
-924695
-924738
-924967
-925170
-925362
-925350
-925437
-925529
-925519
-925415
-925274
-925288
-925134
-924944
-924932
-924509
-924093
-923676
-923327
-922757
-922187
-921491
-920910
-920220
-919597
-918772
-918053
-917275
-916421
-915481
-914551
-913725
-912940
-912134
-911246
-910467
-909677
-908759
-908058
-907277
-906531
-905907
-905151
-904543
-903968
-903408
-902832
-902323
-901740
-901158
-900791
-900337
-899999
-899668
-899303
-898927
-898727
-898529
-898205
-898024
-898391
-897702
-897581
-897540
-897483
-897341
-897358
-897321
-897172
-897155
-897140
-897078
-897165
-897194
-897263
-897395
-897421
-897544
-897436
-897513
-897599
-897667
-897702
-897886
-897931
-897949
-898068
-898211
-898221
-898184
-898202
-898273
-898345
-898412
-898480
-898362
-898376
-898410
-898321
-898268
-898205
-898247
-898234
-898072
-898147
-898133
-898080
-897876
-897874
-897767
-897610
-897584
-897454
-897463
-897285
-897126
-897054
-897005
-896882
-896740
-896677
-896615
-896626
-896568
-896540
-896459
-896470
-896491
-896498
-896438
-896383
-896561
-896579
-896739
-896785
-896912
-897029
-897828
-897424
-897465
-897591
-897748
-897974
-898044
-898304
-898562
-898818
-898983
-899121
-899296
-899607
-899798
-900044
-900132
-900291
-900604
-900772
-900941
-900928
-901044
-901138
-901181
-901457
-901539
-901738
-901663
-901807
-901792
-901825
-901785
-901901
-901721
-901895
-901874
-901726
-901832
-901740
-901712
-901750
-901616
-901498
-901634
-901525
-901550
-901548
-901420
-901352
-901406
-901305
-901273
-901156
-901247
-901280
-901235
-901222
-901326
-901296
-901315
-901209
-901314
-901196
-901201
-901340
-901378
-901449
-901503
-901644
-901709
-901635
-901670
-901755
-901818
-901917
-902010
-902166
-902272
-903245
-902812
-902856
-902768
-902867
-902910
-903125
-903242
-903415
-903568
-903696
-903864
-903952
-904073
-904297
-904388
-904616
-904827
-904998
-905089
-905304
-905479
-905459
-905665
-905775
-905835
-906101
-906146
-906260
-906522
-906663
-906780
-906796
-906878
-907001
-907210
-907432
-907576
-907700
-907837
-907989
-908186
-908205
-908329
-908358
-908581
-908766
-908936
-909025
-909111
-909336
-909521
-909530
-909747
-909768
-910060
-910212
-910241
-910425
-910525
-910814
-910813
-910964
-911101
-911225
-911350
-911677
-911862
-911978
-912138
-912380
-912491
-912578
-912727
-912739
-912943
-913181
-913278
-913493
-913637
-913834
-913838
-914055
-914212
-914369
-914436
-914631
-914726
-914919
-914952
-915172
-915216
-915267
-915337
-915480
-915604
-915834
-915902
-916045
-916213
-916162
-916420
-916527
-916729
-916807
-916843
-917049
-917161
-917290
-917367
-917646
-917707
-917767
-917870
-917928
-917985
-918150
-918248
-918333
-918441
-918564
-918648
-918728
-918840
-918978
-919048
-919236
-919415
-919571
-919380
-919676
-919909
-919738
-919952
-920076
-920236
-920290
-920454
-920529
-920593
-920722
-920715
-920870
-920878
-920891
-921036
-921263
-921319
-921490
-921615
-921759
-921631
-921794
-921831
-921956
-922138
-922094
-922231
-922503
-922520
-922675
-922712
-922886
-922893
-922976
-923143
-923316
-923531
-923669
-923790
-923890
-923934
-923546
-923326
-923228
-923273
-923651
-923881
-924266
-924459
-924637
-924720
-924908
-925026
-925060
-925124
-925347
-925583
-925696
-925866
-926753
-926376
-926265
-926462
-926406
-926657
-926878
-926992
-927118
-927319
-927254
-927242
-927285
-927240
-927196
-926809
-926787
-926635
-926353
-925928
-925591
-925171
-924506
-923955
-923453
-922657
-921970
-921259
-920382
-919620
-918860
-917869
-916914
-916075
-915159
-914308
-913395
-912653
-911725
-910950
-909951
-909068
-908245
-907540
-906703
-906061
-905288
-904796
-904222
-903521
-902909
-902764
-902019
-901442
-901033
-900589
-900286
-899988
-899701
-899367
-899114
-898852
-898610
-898460
-898229
-898207
-898127
-898076
-897963
-897953
-897784
-897707
-897592
-897525
-897617
-897548
-897641
-897649
-897764
-897809
-897849
-897740
-897637
-897766
-897756
-897780
-897835
-898500
-898133
-898139
-898042
-897988
-898130
-898027
-898052
-898225
-898137
-898258
-898260
-898275
-898156
-898114
-898569
-898057
-897939
-897929
-897882
-897855
-897781
-897724
-897732
-897479
-897389
-897220
-897226
-896955
-897023
-896915
-896697
-896600
-896386
-896391
-896052
-895942
-895866
-895713
-895647
-895673
-895637
-895605
-895436
-895281
-895239
-895254
-895177
-895341
-895295
-895419
-895534
-895560
-895561
-895741
-895733
-895819
-895957
-896199
-896324
-896506
-896775
-896930
-897176
-897385
-897429
-897606
-897862
-898094
-898223
-898405
-898543
-898831
-898907
-899038
-899177
-899186
-899361
-899444
-899524
-899693
-899655
-899716
-899829
-899787
-899700
-899773
-899817
-899833
-899863
-899876
-899852
-899823
-899767
-899679
-899576
-899644
-899515
-899614
-899574
-899674
-899545
-899557
-899520
-899440
-899375
-899484
-899485
-899424
-899466
-899456
-899428
-899497
-899572
-899539
-899483
-899461
-899554
-899613
-899569
-899722
-899836
-900230
-899953
-899829
-899898
-899855
-899891
-900075
-900093
-900155
-900247
-900230
-900366
-900265
-900321
-900378
-900522
-900601
-900817
-900932
-900995
-901157
-901129
-901256
-901227
-901406
-901592
-901678
-901784
-901954
-902171
-902252
-902401
-902463
-902680
-902769
-903029
-903153
-903320
-903550
-903666
-903907
-903991
-904126
-904169
-904320
-904620
-904666
-904988
-905128
-905254
-906259
-905696
-905590
-905538
-905685
-905982
-906098
-906263
-906431
-906482
-906598
-906831
-906763
-906916
-907136
-907332
-907478
-907521
-907609
-907766
-907795
-908036
-908169
-908245
-908441
-908495
-908775
-908915
-908919
-909087
-909326
-909373
-909425
-909675
-909778
-909897
-910024
-910264
-910335
-910463
-910572
-910708
-910886
-910925
-911063
-911291
-911491
-911669
-911686
-911843
-911937
-912097
-912164
-912291
-912322
-912473
-912674
-912878
-912891
-913042
-913025
-913159
-913313
-913402
-913432
-913598
-913586
-913822
-913891
-914109
-914126
-914097
-914253
-914346
-914494
-914518
-914679
-914897
-914998
-915037
-915101
-915301
-915253
-916166
-915657
-915624
-915774
-915824
-915995
-916103
-916248
-916299
-916315
-916355
-916527
-916680
-916817
-916867
-916918
-917033
-917093
-917230
-917264
-917305
-917393
-917656
-917848
-918081
-918121
-918466
-918470
-918383
-918455
-918537
-918692
-918833
-919063
-919215
-919313
-919483
-919474
-919510
-919682
-919771
-919871
-920032
-920171
-920268
-920307
-920612
-920616
-920790
-920839
-920995
-921143
-921176
-921313
-921465
-921585
-921758
-921788
-921870
-921942
-922080
-922245
-922532
-922732
-922811
-922879
-923167
-923241
-923330
-923352
-923536
-923567
-923795
-923939
-924137
-924276
-924482
-924510
-924588
-924630
-924680
-924919
-924981
-925027
-924965
-924960
-924885
-924794
-924420
-924208
-923853
-923485
-923123
-922524
-921966
-921480
-920938
-920148
-919437
-918664
-917763
-917028
-916180
-915289
-914495
-913606
-912724
-911782
-910745
-909859
-908862
-908124
-907213
-906268
-905479
-904778
-903957
-903327
-902561
-901885
-901199
-900386
-899927
-899379
-898878
-898413
-897994
-897485
-897024
-896655
-896319
-895938
-895724
-895505
-895178
-894965
-894752
-894572
-894505
-894281
-894144
-894041
-894100
-894042
-893930
-893938
-893963
-893812
-893792
-893892
-893862
-893958
-894001
-894079
-894055
-894107
-894082
-894067
-894038
-894070
-894180
-894183
-894369
-894341
-894351
-894490
-894556
-894612
-894615
-894538
-894516
-894533
-894494
-894548
-894527
-894222
-894387
-894411
-894260
-894239
-894040
-893908
-893779
-893802
-893591
-893478
-893517
-893266
-893146
-892899
-892733
-892654
-892605
-892498
-892281
-892193
-892046
-892078
-891864
-891721
-891786
-891720
-891683
-891666
-891696
-891703
-891769
-891777
-891835
-891862
-891968
-892170
-892355
-892394
-892581
-892732
-892944
-893139
-893258
-893424
-893566
-893816
-894082
-894315
-894383
-894646
-894848
-894957
-894968
-894836
-895249
-895498
-895654
-895657
-895803
-895937
-896000
-896010
-895892
-895974
-895997
-895986
-895975
-895996
-896474
-895980
-895927
-895484
-894908
-894874
-894704
-894648
-894794
-894691
-894642
-894574
-894676
-894783
-894966
-895008
-895120
-895260
-895259
-895361
-895420
-895534
-895604
-895678
-895842
-895891
-896094
-896183
-896313
-896434
-896457
-896737
-896828
-896950
-897000
-897096
-897184
-897338
-897501
-897563
-897815
-897942
-897982
-898107
-898194
-898348
-898494
-898681
-898691
-898927
-898872
-899187
-899307
-899398
-899508
-899716
-899761
-899970
-900127
-900280
-900398
-900582
-900672
-900911
-900945
-901113
-901233
-901523
-901639
-901779
-902024
-902114
-902192
-902424
-902431
-902662
-902784
-902932
-903090
-903319
-903506
-903502
-903578
-903812
-903888
-903879
-904024
-904265
-904274
-904332
-904551
-904680
-904651
-904851
-904797
-904937
-905105
-905293
-905359
-905285
-905534
-905652
-905567
-905782
-905890
-906138
-906178
-906294
-906494
-906517
-906709
-906815
-906843
-907650
-907270
-907259
-907311
-907402
-907550
-907635
-907722
-907794
-907732
-907920
-908000
-908141
-908295
-908375
-908456
-908479
-908507
-908631
-908707
-908719
-908766
-908864
-908963
-908998
-909209
-909228
-909269
-909395
-909377
-909587
-909570
-909694
-909674
-909879
-909877
-910085
-910219
-910294
-910311
-910376
-910416
-910597
-910635
-910755
-910851
-910927
-910958
-910996
-911024
-911050
-911242
-911432
-911515
-911593
-911681
-911743
-911907
-911945
-912093
-912161
-912321
-912383
-912381
-912572
-912634
-912800
-912926
-913058
-913068
-913121
-913277
-913480
-913532
-913802
-913908
-914123
-914076
-914073
-914279
-914460
-914666
-914704
-914910
-914995
-915122
-915363
-916074
-915720
-915918
-915960
-916022
-916098
-916161
-916407
-916452
-916385
-916382
-916307
-916243
-916116
-916042
-915814
-915541
-915102
-914798
-914196
-913751
-913198
-912601
-911912
-911339
-910558
-909776
-908960
-908179
-907301
-906335
-905532
-904654
-903847
-903050
-902156
-901247
-900417
-899545
-898806
-897879
-897138
-896412
-895781
-895073
-894343
-893754
-893168
-892537
-891904
-891419
-890891
-890414
-890086
-889651
-889328
-889000
-888626
-888540
-888138
-887941
-887815
-887577
-887384
-887406
-887265
-887179
-887143
-887080
-886992
-887025
-887020
-886973
-887063
-887091
-887190
-887139
-887320
-887226
-887332
-887371
-887183
-887445
-887490
-887640
-887649
-887701
-887820
-887804
-887879
-887886
-887920
-888009
-887946
-887939
-887988
-887891
-887964
-887885
-887721
-887685
-887554
-887585
-887584
-887492
-887403
-887273
-887261
-887125
-887020
-886884
-886751
-886616
-886629
-886585
-886474
-886408
-886252
-886222
-886098
-886018
-885945
-885902
-885847
-885822
-885739
-885733
-885732
-885709
-885699
-885783
-885836
-886005
-886036
-886142
-886265
-886421
-886512
-886606
-886731
-886938
-887223
-887427
-887576
-887781
-887889
-888151
-888364
-888510
-888714
-888878
-889047
-889244
-889375
-889462
-889640
-889861
-890027
-890087
-890231
-890238
-890382
-890434
-890597
-890625
-890577
-890566
-890649
-890801
-890736
-890650
-890645
-890601
-890681
-890660
-890596
-890509
-890469
-890429
-890336
-890095
-890230
-890221
-890256
-890268
-890133
-890109
-890007
-890164
-890065
-889942
-890049
-889986
-889981
-890067
-890048
-890133
-890099
-890109
-890040
-890033
-890161
-890258
-890298
-890235
-890241
-890431
-890385
-890484
-890624
-890609
-890607
-890764
-890894
-890899
-891064
-891221
-891276
-891408
-891393
-891502
-891669
-891851
-891940
-892088
-892132
-892228
-892387
-892400
-892595
-892722
-892801
-893051
-893144
-893300
-893407
-894107
-893832
-893822
-893816
-893943
-894011
-894101
-894099
-894383
-894496
-894788
-894929
-894966
-895051
-895186
-895405
-895593
-895691
-895768
-895929
-896179
-896328
-896371
-896490
-896603
-896847
-897040
-897290
-897458
-897633
-897773
-897920
-898074
-898140
-898367
-898444
-898684
-898767
-898916
-899070
-899230
-899281
-899834
-899612
-899683
-899838
-899988
-900039
-900293
-900349
-900568
-900619
-900753
-900957
-900980
-901116
-901405
-901509
-901686
-901668
-901767
-901984
-902197
-902247
-902348
-902532
-902655
-902905
-903038
-902940
-903156
-903343
-903416
-903537
-903692
-903871
-904007
-904179
-904378
-904570
-904759
-904920
-905018
-905185
-905391
-905474
-905485
-905786
-905796
-905956
-906019
-906141
-906236
-906480
-906511
-906774
-906949
-907038
-907306
-907388
-907603
-907642
-907891
-908834
-908499
-908411
-908539
-908666
-908763
-908895
-909217
-909255
-909318
-909405
-909666
-909813
-910014
-909981
-910241
-910282
-910340
-910504
-910729
-910850
-911062
-911143
-911315
-911521
-911630
-911708
-911888
-911998
-912122
-912200
-912390
-912572
-912681
-912863
-912970
-913234
-913193
-913242
-913021
-912811
-912602
-912657
-912902
-913127
-913229
-913307
-913481
-913673
-913929
-914098
-914321
-914419
-914545
-914586
-914909
-915045
-915096
-915337
-915418
-915664
-915853
-915970
-916048
-916174
-916098
-916237
-916317
-916355
-916602
-916648
-916884
-916957
-917024
-917071
-917299
-917361
-917453
-917445
-917434
-917479
-917506
-917428
-917274
-917187
-916859
-916697
-916311
-915924
-915601
-915102
-914511
-913898
-913353
-912732
-912056
-911138
-910224
-909370
-908674
-907694
-906772
-905951
-905058
-904005
-903069
-902183
-901301
-900312
-899593
-898622
-897786
-896981
-896132
-895426
-894696
-894052
-893240
-892672
-892092
-891508
-890863
-890356
-889888
-889497
-889061
-888641
-888165
-887764
-887391
-887108
-886891
-886650
-886392
-886303
-885968
-885896
-885710
-885528
-885368
-885274
-884989
-884863
-884779
-884759
-884662
-884496
-884458
-884533
-884364
-884253
-884292
-884238
-884259
-884187
-884036
-884014
-883923
-883934
-883809
-883759
-883824
-883654
-883594
-883514
-883484
-883399
-883266
-883141
-883024
-883014
-882856
-882827
-882814
-882551
-882289
-882272
-882238
-882042
-881898
-881716
-881629
-881580
-881389
-881341
-881211
-880941
-880761
-880717
-880630
-880592
-880525
-880442
-880384
-880320
-880260
-880091
-880050
-880132
-880208
-880119
-880078
-880224
-880453
-880435
-880605
-880777
-880924
-881041
-881309
-881414
-881715
-881849
-882043
-882347
-882517
-882803
-883052
-883173
-883552
-883731
-884027
-884168
-884550
-884721
-884887
-885090
-885335
-885529
-885709
-885772
-885909
-885933
-886073
-886284
-886080
-886314
-886359
-886472
-886578
-886446
-886561
-886450
-886455
-886567
-886391
-886326
-886325
-886306
-886312
-886333
-886308
-886251
-886137
-886035
-885916
-885910
-885768
-885731
-885845
-885632
-885618
-885619
-885630
-885693
-885691
-885535
-885546
-885601
-885591
-885544
-885583
-885717
-885743
-885827
-885768
-885724
-885848
-885995
-886085
-886093
-886135
-886248
-886313
-886339
-886367
-886444
-886569
-886618
-886621
-886824
-886842
-886855
-887065
-887171
-887174
-887206
-887331
-887425
-887566
-887718
-887801
-887938
-888087
-888062
-888264
-888284
-888439
-888459
-888628
-888734
-888966
-889005
-889161
-889266
-889371
-889500
-889589
-889805
-889855
-890107
-890257
-890373
-890466
-890588
-890726
-890893
-890895
-891087
-891187
-891322
-891538
-891551
-891723
-891783
-891860
-892056
-892185
-892262
-892362
-892509
-892585
-892666
-892858
-892976
-893063
-893070
-893097
-893287
-893443
-893559
-893747
-893778
-893850
-893991
-894166
-894337
-894357
-894539
-894662
-894694
-894895
-894942
-895055
-895277
-895408
-895328
-895365
-895508
-895719
-895713
-895903
-895939
-896115
-896187
-896397
-896454
-896434
-896691
-896737
-896828
-896995
-897095
-897205
-897425
-897431
-897579
-897638
-897750
-897815
-897938
-898146
-898192
-898336
-898463
-898504
-898570
-898547
-898695
-898865
-898861
-898991
-899060
-899187
-899193
-899381
-899326
-899366
-899480
-899489
-899643
-899717
-899884
-899857
-899998
-899970
-900116
-900108
-900305
-900297
-900427
-900545
-900586
-900764
-900756
-900784
-900819
-900969
-901124
-901180
-901160
-901196
-901249
-901414
-901454
-901538
-901469
-901556
-901762
-901819
-901746
-901862
-901911
-901917
-901941
-901963
-902082
-902006
-902123
-902090
-902186
-902209
-902201
-902257
-902345
-902429
-902478
-902523
-902582
-902638
-902709
-902789
-902783
-902858
-902940
-902994
-903063
-903127
-903244
-903315
-903462
-903640
-903694
-903903
-904071
-904066
-904295
-904393
-904561
-904619
-904775
-904952
-905004
-905192
-905337
-905355
-905421
-906155
-905979
-906062
-906110
-906254
-906456
-906598
-906647
-906638
-906628
-906629
-906603
-906613
-906565
-906570
-906367
-906139
-905868
-905464
-905186
-904662
-904197
-903724
-903120
-902577
-901885
-901128
-900328
-899481
-898704
-897806
-896988
-896106
-895379
-894514
-893531
-892764
-891903
-890869
-890130
-889272
-888417
-887616
-886939
-886201
-885391
-884863
-884167
-883501
-882945
-882381
-881949
-881418
-880991
-880540
-880180
-879778
-879388
-879004
-878682
-878322
-878037
-877895
-877685
-877551
-877454
-877388
-877249
-877586
-877019
-876844
-876851
-876798
-876720
-876770
-876646
-876750
-876714
-876640
-876641
-876717
-876758
-876654
-876761
-876730
-876718
-876735
-876695
-876726
-876706
-876758
-876740
-876725
-876726
-876879
-876757
-876743
-876794
-876655
-876622
-876603
-876517
-876464
-876439
-876426
-876300
-876347
-876268
-876102
-876040
-875916
-875607
-875600
-875577
-875609
-875494
-875397
-875362
-875204
-874959
-874918
-874762
-874727
-874816
-874655
-874628
-874377
-874512
-874398
-874389
-874370
-874371
-874328
-874448
-874232
-874350
-874614
-874721
-874784
-874804
-875037
-875169
-875340
-875489
-875762
-875805
-876163
-876355
-876484
-876662
-876870
-877074
-877268
-877580
-877816
-878005
-878181
-878396
-878357
-878599
-878764
-878953
-879169
-879304
-879454
-879552
-879661
-879820
-879778
-879863
-879896
-879962
-880017
-880103
-880135
-880117
-880173
-880127
-880089
-880132
-880033
-879998
-880135
-880035
-879976
-880032
-879959
-879953
-880007
-879996
-879872
-880008
-880003
-879908
-879928
-879930
-879981
-879951
-880026
-880027
-880052
-880010
-880175
-880176
-880244
-880156
-880377
-880456
-880414
-880422
-880501
-880485
-880732
-880794
-880840
-880999
-881119
-881291
-881299
-881470
-881451
-881591
-881706
-881723
-881832
-882037
-882092
-882280
-882286
-882379
-882495
-882677
-882920
-882998
-883146
-883245
-883402
-883449
-883703
-883964
-884115
-884319
-884485
-884611
-884724
-884975
-885224
-885317
-885587
-885663
-885828
-886032
-886275
-886399
-886546
-886671
-886905
-886841
-887074
-887153
-887358
-887540
-887739
-887888
-887933
-888090
-888278
-888301
-888495
-888577
-888651
-888804
-889028
-889087
-889322
-889539
-889709
-889900
-889951
-890119
-890167
-890352
-890505
-890718
-890911
-891023
-891187
-891219
-891476
-891578
-891658
-891788
-891880
-892147
-892224
-892410
-892301
-892544
-892546
-892783
-892978
-893046
-893193
-893358
-893561
-893623
-893845
-893831
-893989
-894064
-894123
-894180
-894345
-894351
-894440
-894545
-894719
-894759
-894752
-894855
-894993
-895205
-895179
-895313
-895444
-895542
-895689
-895811
-895872
-895886
-895972
-895965
-896038
-896235
-896391
-896439
-896708
-896946
-897366
-897760
-897863
-897963
-898102
-898185
-898291
-898465
-898470
-898641
-898587
-898674
-898782
-898824
-898826
-898959
-899146
-899240
-899271
-899418
-899588
-899768
-899770
-899990
-900236
-900328
-900385
-900444
-900514
-900549
-900459
-900481
-900502
-900632
-900723
-900659
-900772
-900904
-900944
-901017
-901111
-901222
-901387
-901463
-901626
-901828
-902001
-902116
-902274
-902277
-902247
-902333
-902268
-902326
-902412
-902523
-902685
-902787
-902958
-903147
-903242
-903448
-903530
-903651
-903908
-903847
-904097
-904348
-904518
-904607
-904616
-904800
-904905
-904954
-904980
-905148
-905307
-905389
-905602
-905720
-905855
-905892
-905910
-906074
-906320
-906522
-906569
-906645
-906663
-906842
-906735
-906685
-906653
-906596
-906687
-906443
-906280
-905996
-905757
-905367
-904960
-904479
-903906
-903232
-902748
-902064
-901283
-900622
-899848
-898997
-898113
-896408
-893639
-892656
-891764
-890783
-889865
-888933
-887956
-887265
-886366
-885701
-884838
-884139
-883598
-882956
-882324
-881578
-880930
-880451
-879492
-877060
-875012
-874373
-874432
-874399
-874398
-874518
-874540
-874603
-874510
-874570
-874592
-874751
-874342
-874148
-874147
-873970
-873809
-873656
-873498
-873438
-873324
-873349
-872691
-872577
-872482
-872396
-872351
-872352
-872330
-872396
-872411
-872538
-872633
-872755
-872596
-872757
-872872
-872982
-872983
-873134
-873401
-873532
-873681
-873908
-874005
-874095
-874267
-874480
-874640
-874800
-875064
-875135
-875351
-875446
-875564
-875779
-875909
-876033
-875998
-876032
-876031
-876106
-876266
-876169
-876245
-876100
-875951
-875918
-875957
-875830
-875767
-875705
-875565
-875457
-875401
-875296
-875153
-874938
-874710
-874709
-874665
-874441
-874357
-874301
-875064
-874348
-874174
-874052
-874019
-874021
-873883
-873921
-873910
-873972
-874061
-873938
-873944
-874036
-874038
-874060
-874266
-874356
-874393
-874445
-874604
-874701
-874778
-874791
-874819
-874918
-875024
-875128
-875144
-875161
-875357
-875346
-875392
-875422
-875574
-875689
-875656
-875867
-876026
-876050
-876207
-876360
-876353
-876405
-876423
-876651
-876886
-877013
-877157
-877356
-877517
-877598
-877645
-877797
-878017
-878236
-878378
-878534
-878749
-878884
-879095
-879159
-879380
-879416
-879556
-879648
-879916
-880157
-880391
-880569
-881129
-880866
-880933
-880927
-880913
-881075
-881127
-881282
-881414
-881435
-881596
-881762
-881849
-881910
-882001
-882212
-882503
-882689
-882815
-882969
-883196
-883260
-883361
-883428
-883562
-883703
-883848
-884132
-884210
-884461
-884564
-884683
-884726
-884782
-884937
-885017
-885266
-885275
-885671
-885695
-885803
-887699
-889840
-889959
-889738
-890007
-891353
-891786
-892024
-892150
-892193
-892207
-892358
-892447
-892515
-892703
-892897
-892887
-892940
-893127
-893235
-893319
-893574
-893748
-893929
-894041
-894167
-894360
-894499
-894569
-894751
-894848
-895017
-895127
-895286
-895380
-895510
-895602
-895769
-895776
-895955
-896102
-896271
-896431
-896774
-896905
-896948
-897022
-897130
-897215
-897310
-897437
-897513
-897472
-897540
-897523
-897492
-897269
-897158
-896982
-896637
-896449
-896051
-895530
-895099
-894324
-893688
-893112
-892313
-891336
-890446
-889559
-888728
-887862
-887009
-886125
-885267
-884343
-883362
-882553
-881649
-880760
-879957
-878989
-878185
-877402
-876557
-875792
-875020
-874270
-873619
-872970
-872426
-871988
-871508
-871041
-870508
-870147
-869747
-869285
-868890
-868669
-868375
-868174
-867671
-867587
-867444
-867376
-867124
-866955
-866865
-866742
-866640
-866452
-866400
-866307
-866174
-865993
-865842
-865782
-865701
-865611
-865555
-865522
-865533
-865456
-865387
-865189
-865231
-865779
-865335
-865311
-865220
-865260
-865372
-865514
-865412
-865512
-865519
-865485
-865512
-865554
-865549
-865509
-865401
-865430
-865368
-865195
-865044
-865000
-864784
-864920
-864693
-864630
-864435
-864383
-864153
-864039
-863818
-863823
-863680
-863479
-863410
-863311
-863283
-863221
-863028
-862853
-862762
-862791
-862785
-862813
-862720
-862735
-862775
-862698
-862879
-862881
-862903
-863120
-863240
-863368
-863500
-863608
-863747
-863976
-864157
-864287
-864458
-864703
-864926
-865160
-865430
-865578
-866116
-865979
-866158
-866297
-866504
-866807
-867062
-867211
-867428
-867488
-867666
-867754
-867799
-867868
-868029
-868091
-868144
-868213
-868203
-868032
-868024
-867876
-867755
-867724
-867536
-867597
-867394
-867433
-867303
-867305
-867211
-867187
-866984
-866860
-866750
-866670
-866590
-866464
-866478
-866455
-866305
-866252
-866126
-866243
-866013
-866011
-866055
-866076
-866065
-866173
-866221
-866297
-866413
-866480
-866600
-866783
-866811
-866953
-867173
-867269
-867400
-867529
-867607
-867764
-867875
-867885
-868007
-868108
-868123
-868269
-868230
-868331
-868328
-868435
-868601
-868643
-868756
-868899
-868985
-869246
-869359
-869362
-869444
-869713
-869867
-870021
-870196
-870261
-870548
-870542
-870700
-870702
-870776
-871008
-871140
-871160
-871306
-871458
-871612
-871553
-871749
-871857
-871822
-872508
-872343
-872432
-872698
-872874
-873044
-873204
-873367
-873354
-873627
-873776
-873890
-874203
-874338
-874530
-874721
-874918
-875054
-875162
-875275
-875395
-875601
-875774
-875984
-875968
-876084
-876121
-876391
-876495
-876471
-876590
-876740
-876811
-877046
-877051
-877282
-877253
-877477
-877516
-877690
-877812
-878017
-878116
-878328
-878453
-878745
-878725
-878782
-878893
-878886
-879170
-879145
-879284
-879433
-879480
-879500
-879643
-879773
-879837
-879870
-879988
-880186
-880412
-880425
-880515
-880631
-880618
-880684
-880713
-880700
-880863
-880903
-880927
-880911
-881054
-881129
-881137
-881145
-881230
-881358
-881610
-881711
-881870
-881930
-882059
-882183
-882387
-882381
-882502
-882562
-882794
-882838
-883011
-883249
-883311
-883423
-883468
-883520
-883587
-884541
-884256
-884087
-884107
-884291
-884394
-884531
-884654
-884773
-884844
-884862
-884942
-885100
-885024
-885108
-885288
-885367
-885334
-885426
-885533
-885578
-885397
-886354
-886076
-886044
-886207
-886281
-886510
-886663
-886708
-886889
-887120
-887339
-887564
-887737
-887780
-888098
-888269
-888438
-888485
-888713
-888963
-889070
-889396
-889427
-889614
-889777
-889994
-890131
-890343
-890544
-890677
-890928
-891015
-891181
-891298
-891447
-891620
-891697
-891726
-891725
-891888
-891972
-891911
-891963
-891956
-891871
-891564
-891522
-891490
-891239
-891013
-890860
-890535
-890134
-889778
-889384
-888898
-888200
-887526
-886844
-886211
-885466
-884731
-883977
-883103
-882925
-881606
-880593
-879599
-878641
-877738
-876844
-875973
-875139
-874254
-873391
-872474
-871757
-870859
-869955
-869250
-868636
-868001
-867260
-866581
-865967
-865458
-864899
-864234
-863765
-863367
-863024
-862515
-862274
-861838
-861536
-861268
-861001
-860730
-860582
-860422
-860184
-860074
-860095
-860007
-860058
-860101
-860138
-859919
-859906
-859892
-859933
-859974
-860060
-860053
-860104
-860139
-860181
-860122
-860093
-860197
-860268
-860255
-860208
-860197
-860227
-860162
-860116
-860005
-859981
-859927
-859932
-859885
-859975
-859874
-859654
-859616
-859568
-859422
-859248
-858963
-858755
-858632
-858457
-858398
-858275
-858040
-857852
-857769
-857466
-857310
-857232
-856893
-856821
-856675
-856584
-856481
-856391
-856456
-856494
-856364
-856444
-856664
-856781
-856941
-857139
-857346
-857409
-857617
-857750
-857911
-858152
-858388
-858320
-858740
-858982
-859074
-859261
-859361
-859549
-859729
-859934
-860019
-860250
-859985
-860266
-860487
-860526
-860605
-860667
-860702
-860709
-860759
-860771
-860789
-860845
-860795
-860729
-860713
-860630
-860662
-860628
-860613
-860525
-860577
-860403
-860310
-860235
-860116
-860108
-860528
-860073
-859964
-859808
-859775
-859690
-859678
-859671
-859470
-859256
-859390
-859529
-859472
-859400
-859576
-859518
-859513
-859414
-859631
-860163
-859822
-859810
-859871
-859960
-860143
-860162
-860201
-860354
-860442
-860472
-860639
-860703
-860888
-860961
-861144
-861334
-861455
-861088
-861658
-861912
-862141
-862332
-862549
-862656
-862810
-862897
-863074
-863284
-863352
-863408
-863618
-863653
-863797
-864022
-864251
-864339
-864450
-864684
-864877
-865108
-865310
-865399
-865626
-865782
-865964
-866096
-866230
-866255
-866429
-866507
-866702
-866799
-867604
-867216
-867312
-867427
-867685
-867699
-867938
-867998
-868198
-868348
-868506
-868700
-868879
-868968
-869091
-869312
-869404
-869554
-869763
-869812
-870009
-870070
-870224
-870573
-870557
-870684
-870892
-870969
-871175
-871340
-871530
-871630
-871804
-871915
-872092
-872007
-872149
-872286
-872504
-872657
-872687
-872959
-873092
-873198
-873191
-873280
-873399
-873636
-873868
-874050
-874094
-874257
-874498
-874638
-874667
-874992
-874754
-874900
-875252
-875405
-875605
-875676
-875889
-876023
-876150
-876184
-876247
-876422
-876486
-876613
-876769
-876824
-876992
-876954
-877059
-877090
-877195
-877380
-877464
-877655
-877722
-877892
-878037
-877897
-877987
-878158
-878287
-878424
-878526
-878566
-878637
-878691
-878828
-879022
-879136
-879227
-879250
-879371
-879582
-879740
-879527
-879908
-880078
-880197
-880397
-880514
-880529
-880650
-880835
-880855
-880886
-881037
-881153
-881224
-881228
-881248
-881422
-881480
-881707
-881742
-881904
-881851
-882084
-881938
-882017
-882167
-882245
-882485
-882699
-882792
-882926
-883177
-883373
-883342
-883490
-883634
-883733
-883858
-884001
-884086
-884131
-883981
-884183
-884381
-884571
-884514
-884645
-884783
-884897
-884980
-885182
-885250
-885425
-885490
-885564
-885806
-886232
-886817
-887306
-887568
-888458
-887969
-887959
-888064
-888236
-888333
-888449
-888484
-888628
-888678
-888690
-888754
-888745
-888697
-888603
-888584
-888397
-888194
-887972
-887712
-887320
-886876
-886405
-885823
-885147
-884125
-883489
-882799
-882001
-881168
-880177
-879483
-878591
-877604
-876672
-875590
-874727
-873822
-872847
-871983
-871143
-870283
-869476
-868635
-867784
-867055
-866182
-865487
-864896
-864216
-863646
-863066
-862598
-862020
-861462
-861011
-860560
-860164
-859733
-859450
-859060
-858897
-858567
-858252
-857963
-857720
-857558
-857376
-857311
-857175
-856971
-856814
-856691
-856483
-856442
-856419
-856421
-856408
-856359
-856372
-856392
-856470
-856482
-856404
-856330
-856346
-856425
-856422
-856457
-856444
-856394
-856444
-856376
-856392
-856334
-856269
-856225
-856147
-856184
-856154
-856033
-855970
-855979
-855877
-855767
-855623
-855641
-855501
-855485
-855389
-855198
-855167
-855057
-854952
-854699
-854709
-854551
-854571
-854453
-854426
-854320
-854171
-854117
-853924
-853940
-853895
-853889
-853858
-853852
-853673
-853708
-853780
-853879
-853845
-853870
-853879
-853954
-854031
-854266
-854344
-854501
-854669
-854836
-854944
-855140
-855377
-855532
-856344
-855996
-855971
-856203
-856335
-856448
-856585
-856677
-856785
-856982
-857105
-857343
-857442
-857455
-857508
-857540
-857635
-857617
-857684
-857698
-857839
-857789
-857650
-857712
-857756
-857750
-857702
-857590
-857473
-857311
-857246
-857102
-857056
-857081
-856993
-856828
-856677
-856629
-856613
-856668
-856574
-856431
-856381
-856325
-856262
-856163
-856139
-856143
-856118
-856059
-856159
-856180
-856118
-856210
-856160
-856222
-856220
-856240
-856440
-857012
-857463
-857660
-857691
-857719
-857794
-857812
-857853
-858110
-858097
-858081
-858115
-858155
-858337
-858455
-858486
-858454
-858598
-858677
-858709
-858878
-858956
-859085
-859216
-859512
-859458
-859591
-859665
-859722
-859808
-859912
-860108
-860143
-860250
-860361
-860468
-860552
-860592
-860606
-860822
-860920
-861015
-861081
-861195
-861312
-861532
-861699
-861739
-861918
-862074
-862289
-862587
-862748
-862922
-863046
-863125
-863291
-863401
-863513
-863528
-863677
-863809
-863998
-864038
-864256
-864397
-864434
-864531
-864620
-864776
-865544
-865296
-865299
-865447
-865561
-865636
-865815
-865917
-865929
-866096
-866214
-866342
-866457
-866608
-866797
-866850
-866882
-867080
-867090
-867181
-867192
-867256
-867316
-867454
-867582
-867707
-867805
-867963
-868264
-868392
-868558
-868696
-868695
-868790
-868794
-869138
-869369
-869472
-869500
-869463
-869668
-869860
-869946
-870023
-870141
-870173
-870259
-870278
-870192
-870262
-870311
-870365
-870420
-870624
-870721
-870702
-870875
-870928
-870992
-871125
-871318
-871514
-871654
-871680
-871880
-871910
-872142
-872217
-872458
-872456
-872564
-872765
-872917
-873096
-873389
-873467
-873606
-873822
-873841
-873808
-874104
-874251
-874370
-874523
-874586
-874717
-874845
-874900
-875026
-875110
-875324
-875362
-875523
-875634
-875683
-875749
-875999
-876081
-876257
-876322
-876416
-876535
-876722
-876854
-876954
-877084
-877135
-877303
-877509
-877748
-877916
-878081
-878138
-878293
-878984
-879254
-879612
-879693
-879797
-880013
-880088
-880260
-880144
-880035
-879903
-879762
-879571
-879266
-878816
-877954
-877279
-876749
-875915
-875157
-874534
-873661
-872875
-871905
-871059
-870110
-869188
-868361
-867367
-866396
-865524
-864570
-863737
-862758
-861813
-861043
-860249
-859468
-858821
-858012
-857263
-857265
-856172
-855201
-854640
-853953
-854022
-853160
-852446
-852027
-851495
-851049
-850591
-850256
-850028
-849678
-849413
-849337
-849054
-848727
-848732
-848537
-848378
-848275
-848130
-847924
-847765
-847879
-847781
-847723
-847704
-847687
-847793
-847653
-847756
-848334
-848032
-847765
-847805
-847869
-847778
-847707
-847733
-847776
-847839
-847822
-847935
-847870
-847901
-848064
-848166
-848103
-848025
-847907
-847921
-847865
-847882
-847816
-847831
-847652
-847562
-847444
-847280
-846684
-846570
-845934
-845218
-844647
-844982
-845098
-845205
-845569
-845798
-846220
-846461
-846693
-847023
-847125
-847324
-847604
-847822
-848042
-848396
-848579
-848695
-848938
-849172
-849297
-849413
-849463
-849483
-849695
-849697
-849820
-849878
-849804
-849856
-849846
-849914
-849784
-849754
-849678
-849693
-849568
-849456
-849362
-849189
-849200
-849215
-849185
-849076
-849008
-848934
-849004
-848842
-848798
-848827
-848895
-848900
-848834
-848928
-848923
-848976
-848923
-848823
-848906
-848870
-848931
-848990
-849056
-849101
-849126
-849096
-849261
-849342
-849329
-849390
-849325
-849551
-849570
-849760
-849879
-850024
-850021
-850023
-850167
-850219
-850392
-850473
-850526
-850697
-850931
-851168
-851293
-851359
-851575
-851573
-851753
-851956
-851976
-852143
-852410
-852567
-852694
-852740
-852878
-853034
-853250
-853384
-853469
-853716
-853916
-854064
-854286
-854390
-854610
-854671
-854822
-854975
-855147
-855242
-855385
-855585
-855809
-855949
-856146
-856132
-856372
-856515
-856742
-856819
-857042
-857186
-857530
-857610
-857638
-857720
-857830
-857992
-858214
-858441
-858692
-858933
-859216
-859345
-859583
-859655
-859878
-860040
-860008
-860248
-860402
-860506
-860601
-860821
-860920
-861183
-861216
-861521
-861731
-861831
-862058
-862255
-862478
-862526
-862654
-862775
-863030
-863128
-863229
-863372
-863551
-863614
-863693
-863837
-863840
-863901
-864025
-864171
-864328
-864651
-864699
-864866
-865030
-865186
-865295
-865478
-865521
-865618
-865876
-866007
-866079
-866278
-866592
-866643
-867221
-866969
-866929
-867019
-867102
-867211
-867385
-867512
-867587
-867758
-867779
-867953
-867825
-868180
-868345
-868490
-868589
-868645
-868757
-868819
-868908
-869008
-869146
-869373
-869575
-869642
-869789
-869926
-869911
-870031
-870134
-870193
-870253
-870330
-870439
-870635
-870840
-870977
-871006
-871140
-871169
-871256
-871322
-871367
-871448
-871406
-871654
-871774
-871929
-872110
-872186
-872410
-872550
-872628
-872869
-872863
-873009
-873130
-873237
-873412
-873543
-873623
-873696
-873830
-873990
-874149
-874286
-874528
-874572
-874665
-874770
-874808
-874995
-874986
-875293
-875378
-875524
-875778
-875957
-876015
-876138
-876263
-876284
-876508
-876709
-876775
-876889
-877129
-877298
-877570
-877627
-877758
-877933
-878102
-878177
-878310
-878456
-878493
-878524
-878579
-878650
-878506
-878457
-878422
-878208
-877991
-877797
-877548
-877015
-876507
-875971
-875360
-874669
-874044
-873379
-872764
-871879
-870821
-869954
-869008
-868127
-867124
-866114
-865099
-864178
-863188
-862300
-861270
-860431
-859923
-859202
-857957
-856904
-856091
-855382
-854674
-853871
-853109
-852398
-851922
-851283
-850606
-850102
-849534
-849135
-848698
-848265
-847848
-847411
-846971
-846701
-846397
-846209
-845924
-845681
-845489
-845375
-845123
-845021
-844804
-844824
-844560
-844438
-844356
-844224
-844342
-844270
-844296
-844244
-844294
-844112
-843808
-844037
-843993
-843994
-844004
-844032
-844062
-844104
-844122
-843968
-844406
-844067
-843979
-843844
-843693
-843587
-843596
-843397
-843281
-843192
-843060
-843101
-842815
-842760
-842677
-842522
-842337
-842236
-841968
-841856
-841619
-841458
-841373
-841240
-841218
-841020
-840744
-840669
-840502
-840351
-840249
-840289
-840197
-840099
-840044
-840058
-840102
-839942
-839899
-839871
-839821
-839731
-839710
-839794
-839811
-839785
-839864
-840040
-840216
-840244
-840387
-840545
-840750
-841054
-841227
-841390
-841706
-841721
-842011
-842302
-842522
-842782
-843008
-843181
-843290
-843513
-843719
-843834
-843949
-844040
-844277
-844440
-844510
-844702
-844854
-844837
-844949
-844959
-845031
-844960
-845005
-844999
-845008
-845027
-844966
-844953
-844931
-844799
-844694
-844529
-844419
-844352
-844355
-844254
-844211
-844216
-844160
-844058
-843958
-843858
-843943
-843784
-843746
-843823
-843642
-843798
-843757
-843714
-843815
-843800
-843662
-843852
-843986
-844106
-844023
-843901
-844071
-844039
-844059
-844227
-844278
-844362
-844533
-844711
-844688
-844739
-844832
-844943
-844995
-845082
-845203
-845261
-845427
-845654
-845807
-845829
-846027
-846108
-846208
-846261
-846411
-846620
-846740
-847016
-847033
-847167
-847412
-847563
-847671
-847810
-847929
-848208
-848253
-848402
-848480
-848701
-848765
-848890
-849116
-849122
-849478
-850187
-849939
-850003
-850043
-850225
-850282
-850199
-850597
-850703
-850872
-851121
-851282
-851531
-851727
-851918
-852089
-852231
-852448
-852466
-852580
-852877
-853051
-853174
-853487
-853723
-853812
-854002
-854094
-854283
-854509
-854712
-854901
-854978
-855054
-855360
-855508
-855689
-855826
-855955
-856149
-856292
-856531
-856693
-856760
-856896
-857235
-857375
-857523
-857665
-857954
-858019
-858250
-858351
-858516
-858825
-858844
-858966
-859088
-859219
-859372
-859475
-859582
-859696
-859929
-860022
-860107
-860184
-860391
-860466
-860656
-860815
-860890
-861137
-861315
-861368
-861440
-861602
-861750
-861863
-862077
-862240
-862390
-862368
-862401
-862362
-862560
-862867
-862979
-863110
-863263
-863328
-863481
-863559
-863877
-864066
-864080
-864327
-864460
-864507
-864582
-864544
-864567
-864748
-864698
-864784
-865092
-865235
-865369
-865406
-865411
-865553
-865897
-866104
-866304
-866463
-866584
-866885
-867104
-867176
-867257
-867584
-867708
-868088
-868105
-868528
-868610
-868773
-868948
-869036
-869223
-869287
-869424
-869600
-869786
-869799
-870041
-870302
-870294
-870432
-870534
-870736
-870913
-871482
-871605
-872084
-872286
-872325
-872556
-872629
-872702
-872793
-872867
-873029
-873255
-873286
-873415
-873624
-873784
-873870
-874044
-874120
-874178
-874271
-874346
-874242
-874080
-873669
-873478
-873238
-872785
-872465
-872002
-871434
-870876
-870214
-869516
-868677
-867953
-867063
-866272
-865371
-864389
-863471
-862548
-861658
-860650
-859610
-858712
-857792
-856969
-855985
-855021
-853202
-852188
-851278
-850464
-849748
-848996
-848281
-847660
-846942
-846252
-845691
-845049
-844485
-843984
-843557
-843029
-842692
-841969
-841557
-841326
-840953
-840722
-840416
-840330
-840148
-839941
-839794
-839599
-839623
-839494
-839502
-839343
-839215
-839257
-839304
-839256
-839272
-839114
-839144
-839159
-839143
-839137
-839002
-838963
-838929
-838788
-838726
-838561
-838479
-838550
-838434
-838249
-838144
-837897
-837830
-837828
-837677
-837543
-837541
-837441
-837192
-837040
-836823
-836770
-836678
-836523
-836319
-836251
-836169
-836033
-835747
-835466
-835449
-835376
-835354
-835306
-835220
-835248
-835046
-834977
-834932
-834903
-834852
-834913
-835103
-835240
-835308
-835501
-835751
-835848
-836025
-836143
-836348
-836588
-836977
-837179
-837372
-837706
-837971
-838213
-838536
-838772
-838983
-839265
-839336
-839649
-839909
-840017
-840222
-840299
-840335
-840425
-840541
-840709
-840723
-840906
-840902
-840985
-840996
-840932
-840864
-840750
-840808
-840628
-840594
-840534
-840563
-840560
-840621
-840517
-840420
-840324
-840235
-839966
-839979
-839963
-839943
-839862
-839869
-839931
-839854
-839713
-839717
-839616
-839595
-839568
-839639
-839662
-839694
-839368
-839510
-839546
-839502
-839516
-839665
-839639
-839616
-839719
-839699
-839766
-839829
-839825
-839894
-839986
-840025
-840134
-840225
-840272
-840242
-840398
-840571
-840687
-840745
-840868
-840912
-841096
-841275
-841345
-841503
-841696
-841746
-841864
-842007
-842210
-842342
-842519
-842695
-842815
-843089
-843183
-843367
-843585
-843669
-843723
-843983
-844163
-844267
-844513
-844658
-844813
-844947
-845045
-845176
-845384
-845618
-845656
-845850
-846101
-846226
-846354
-846584
-846762
-846801
-846852
-847136
-847242
-847479
-847718
-847891
-848052
-848129
-848280
-848415
-848464
-848693
-848851
-849022
-849202
-849391
-849669
-849773
-849923
-850032
-850249
-850519
-850630
-850763
-850981
-851032
-851361
-851440
-851636
-851733
-851858
-851959
-852172
-852284
-852500
-852659
-852776
-852985
-853113
-852888
-853177
-853466
-853703
-853742
-853950
-854098
-854228
-854367
-854510
-854569
-854643
-854816
-855020
-855197
-855309
-855426
-855497
-855646
-855759
-855800
-855883
-855936
-856104
-856174
-856469
-856618
-856716
-856900
-856845
-856936
-857196
-857324
-857386
-857540
-857717
-857836
-857936
-858007
-858090
-858291
-858387
-858551
-858670
-858817
-859033
-859055
-859206
-859398
-859314
-859453
-859451
-859604
-859855
-859921
-860072
-860129
-860139
-860353
-860480
-860462
-860583
-860744
-860835
-860977
-861037
-861146
-861168
-861396
-861464
-861472
-861589
-862083
-861926
-862114
-862163
-862400
-862436
-862581
-862672
-862762
-862918
-863094
-863301
-863334
-863622
-863809
-863925
-863849
-864301
-864673
-864977
-865245
-865364
-865513
-865685
-865700
-865940
-865978
-865996
-866198
-866303
-866234
-866521
-866526
-866627
-866890
-866920
-867102
-867211
-867195
-867364
-867474
-867674
-867940
-868015
-868160
-868389
-868477
-868456
-868738
-868862
-869129
-869315
-869406
-869553
-869703
-869801
-869858
-869880
-870023
-870142
-870370
-870297
-870431
-870417
-870428
-870451
-870329
-870269
-870106
-869906
-869721
-869502
-869241
-868869
-868414
-867847
-867377
-866817
-866046
-865479
-864799
-863995
-862990
-862199
-861208
-860295
-859357
-858465
-856328
-855345
-853413
-852421
-851496
-850476
-849544
-848672
-847840
-847026
-846237
-845328
-844589
-843880
-843281
-842424
-841771
-841230
-840648
-840124
-839592
-839221
-838826
-838425
-838171
-837740
-837373
-837036
-836738
-836584
-836403
-836177
-835994
-835674
-835639
-835542
-835217
-835070
-835115
-835057
-834990
-835050
-835129
-834941
-835009
-834956
-834893
-834908
-834942
-834889
-834926
-834753
-834761
-834870
-834820
-834838
-834871
-834732
-834682
-834497
-834519
-834383
-834485
-834299
-834227
-834144
-833993
-833846
-833631
-833598
-833415
-833304
-833183
-833022
-832937
-832848
-832707
-832561
-832415
-832348
-832234
-832058
-832089
-831996
-831989
-831897
-831931
-832005
-831872
-831807
-831816
-832048
-832118
-832186
-832360
-832470
-832616
-832707
-832868
-833001
-833243
-833403
-833515
-833807
-834134
-834484
-834664
-834878
-834960
-835089
-835278
-835466
-835609
-835717
-835829
-835851
-835832
-835792
-835768
-835783
-835964
-836035
-836060
-835977
-836111
-836024
-835864
-835683
-835731
-835533
-835441
-835415
-835228
-835176
-834989
-834878
-834632
-834581
-834462
-834438
-834233
-834299
-834209
-834226
-834205
-834182
-834148
-834119
-834091
-834195
-834265
-834232
-834368
-834264
-834345
-834213
-834158
-834147
-834105
-834265
-834335
-834183
-834323
-834519
-834506
-834626
-834613
-834759
-834976
-835040
-835141
-835274
-835479
-835560
-835517
-835559
-835692
-835790
-835823
-836032
-836102
-836223
-836322
-836534
-836565
-836686
-836723
-836922
-837055
-837294
-837376
-837634
-837732
-837971
-838154
-838270
-838307
-838470
-838762
-838869
-839075
-839339
-839516
-839690
-839722
-839801
-839981
-840183
-840500
-840705
-840915
-841046
-841377
-841561
-841591
-841663
-841860
-842040
-842237
-842395
-842572
-842808
-843048
-843072
-843230
-843286
-843504
-843678
-843750
-844013
-844165
-844341
-844614
-844722
-844876
-844932
-845061
-845283
-845494
-845670
-845786
-846009
-846181
-846406
-846544
-846749
-846833
-846956
-847126
-847248
-847499
-847750
-847887
-847941
-848050
-848136
-848258
-848352
-848514
-848827
-849072
-849070
-849200
-849278
-849442
-849545
-849686
-849803
-849947
-850256
-850427
-850478
-850557
-850668
-850679
-850733
-850834
-850898
-851060
-851262
-851393
-851526
-851711
-851660
-851717
-851800
-851967
-852024
-852207
-852306
-852497
-852534
-852585
-852742
-852803
-852904
-853088
-853234
-853427
-853485
-853657
-853799
-853872
-853858
-853949
-854012
-854210
-854414
-854583
-854725
-854917
-854999
-855173
-855265
-855705
-855380
-855331
-855421
-855651
-855515
-855826
-855918
-856137
-856276
-856214
-856269
-856358
-856507
-856566
-856684
-856875
-856953
-857064
-857119
-857235
-857252
-857439
-857624
-857737
-857948
-857984
-858154
-858359
-858484
-858537
-858698
-858884
-859220
-859457
-859618
-859822
-859946
-860101
-860328
-860390
-860605
-860780
-860815
-861049
-861218
-861129
-861530
-861781
-861881
-861959
-861997
-862185
-862342
-862537
-862641
-862698
-862695
-862826
-862844
-862881
-862710
-862707
-862650
-862535
-862355
-862166
-861530
-861250
-860817
-860441
-859828
-859279
-858640
-857973
-857323
-856541
-855710
-854772
-853863
-852934
-851874
-850975
-850023
-849043
-848102
-847128
-846287
-845287
-844279
-843391
-842554
-841603
-840704
-839896
-839184
-838372
-837599
-836937
-836219
-835496
-834792
-834204
-833715
-833138
-832738
-832248
-831946
-831586
-831306
-830931
-830357
-830269
-830001
-829873
-829682
-829493
-829378
-829277
-829192
-828858
-828788
-828710
-828616
-828430
-828338
-828257
-828241
-828171
-828026
-828033
-827846
-827849
-827777
-827757
-827808
-827842
-827880
-827839
-827765
-827661
-827626
-827613
-827588
-827629
-827693
-828290
-827851
-827625
-827596
-827509
-827378
-827482
-827516
-827414
-827353
-827278
-827345
-827269
-826957
-826859
-826755
-826787
-826647
-826641
-826640
-826595
-826336
-826256
-826015
-825980
-825718
-825348
-825174
-825223
-825684
-825802
-825950
-825983
-826162
-826437
-826617
-826922
-827161
-827435
-827714
-827847
-828104
-828217
-828448
-828680
-828958
-829261
-829369
-829596
-829874
-829994
-830070
-830143
-830008
-830253
-830404
-830539
-830697
-830740
-830926
-830903
-830791
-830689
-830782
-830811
-830694
-830684
-830747
-830781
-830814
-830700
-830620
-830473
-830456
-830373
-830324
-830386
-830372
-830296
-830265
-830178
-830059
-830017
-829908
-829938
-829908
-829912
-829964
-830011
-830010
-829961
-829905
-829835
-829839
-829823
-829899
-829921
-829941
-829956
-829992
-830033
-830101
-830155
-830187
-830375
-830581
-830609
-830709
-830813
-830982
-831087
-831094
-831289
-831395
-831551
-831838
-831992
-832141
-832269
-832451
-832554
-832769
-832803
-833006
-833165
-833420
-833582
-833737
-833904
-834074
-834271
-834384
-834571
-834657
-834944
-835076
-835254
-835599
-835701
-835721
-836029
-836225
-836527
-836591
-836793
-837175
-837361
-837705
-837903
-838125
-838281
-838417
-838588
-839305
-839229
-839265
-839375
-839893
-840544
-841071
-841377
-841636
-841752
-841825
-842111
-842155
-842331
-842376
-842580
-842567
-842908
-842958
-843661
-843504
-843484
-843657
-843889
-844072
-844274
-844450
-844566
-844738
-844832
-845031
-845200
-845424
-845583
-845757
-845895
-845967
-846056
-846053
-846147
-846343
-846379
-846699
-846926
-847023
-847062
-847138
-847191
-847227
-847226
-847335
-847411
-847469
-847299
-847577
-847839
-848205
-848519
-848655
-849228
-848751
-848713
-848792
-848945
-848922
-849074
-848996
-849031
-849053
-849009
-849101
-849211
-849193
-849228
-849166
-849264
-849452
-849671
-849606
-849685
-849855
-849987
-850032
-850109
-849901
-850233
-850282
-850401
-850942
-850707
-850699
-850731
-850784
-851020
-851065
-851647
-851374
-851346
-851276
-851309
-851369
-851487
-851535
-851668
-851745
-851792
-851876
-851879
-851968
-852023
-852088
-852102
-852223
-852396
-852598
-852584
-852600
-853316
-853000
-853207
-852942
-852866
-852959
-853007
-853203
-853276
-853142
-853217
-853390
-853479
-853554
-853628
-853741
-853896
-853988
-854568
-854290
-854293
-854260
-854314
-854363
-854333
-854443
-854566
-854691
-854716
-854399
-855165
-855510
-855084
-854928
-854865
-855157
-855859
-855568
-855569
-855618
-855747
-855736
-855752
-856015
-856140
-856225
-856463
-856602
-856738
-856858
-856864
-856900
-856974
-857076
-857229
-857177
-857290
-857138
-857105
-857419
-857179
-857051
-856833
-856754
-856551
-855945
-855806
-855454
-855008
-854497
-853910
-853235
-852460
-851768
-850952
-850023
-849136
-848408
-847656
-846751
-845694
-844749
-843738
-842821
-841898
-840949
-840096
-839106
-838218
-837249
-836260
-835394
-834536
-833779
-832991
-832155
-831468
-830749
-830168
-829436
-828791
-828223
-827528
-827042
-826598
-826080
-825739
-825435
-825086
-824729
-824460
-824025
-823848
-823585
-823392
-823297
-823051
-822837
-822823
-822588
-822490
-822295
-822232
-822207
-822231
-822082
-822043
-822105
-822048
-822006
-821901
-821818
-821835
-821838
-821854
-821857
-821842
-821858
-821820
-821891
-821810
-821727
-821706
-821636
-821597
-821497
-821462
-821469
-821393
-821253
-821163
-821016
-820866
-820752
-820644
-820532
-820507
-820352
-820173
-819936
-819865
-819690
-819528
-819327
-819210
-818982
-818884
-818868
-818692
-818431
-818203
-818135
-818088
-818080
-818011
-817913
-817880
-817959
-818031
-817939
-817818
-817926
-817956
-818055
-818165
-818287
-818354
-818609
-818864
-818956
-819044
-819207
-819385
-819729
-820019
-820309
-820410
-820662
-820963
-821053
-821197
-821396
-821509
-821787
-821926
-822060
-822133
-822237
-822353
-822305
-822321
-822380
-822404
-822571
-822574
-822665
-822736
-822800
-822690
-822606
-822524
-822484
-822446
-822373
-822284
-822250
-822187
-822115
-821982
-821941
-821724
-821667
-821537
-821516
-821488
-821425
-821380
-821376
-821224
-821122
-820997
-820861
-820945
-820915
-820946
-820959
-820917
-820921
-820884
-820885
-820911
-820884
-820902
-821005
-821095
-821081
-821149
-821374
-821371
-821459
-821517
-821569
-821697
-821874
-822078
-822245
-822363
-822567
-822655
-822738
-822899
-822962
-823087
-823225
-823392
-823474
-823630
-823837
-824035
-824232
-824290
-824474
-824757
-824833
-825037
-825205
-825520
-825724
-825923
-825910
-826013
-826134
-826330
-826551
-826818
-826969
-827264
-827412
-827571
-827668
-827898
-828079
-828328
-828475
-828624
-828990
-829165
-829391
-829682
-829846
-829948
-830211
-830425
-830656
-830805
-831031
-831218
-831499
-831582
-831631
-831721
-831954
-832195
-832335
-832467
-832679
-832828
-833004
-833209
-833361
-833539
-833685
-833857
-834066
-834263
-834428
-834739
-834961
-835108
-835261
-835283
-835426
-835657
-835886
-836088
-836193
-836355
-836571
-836634
-836821
-836979
-837071
-837206
-837408
-837613
-837847
-837986
-838229
-838271
-838337
-838414
-838561
-838731
-838878
-839086
-839147
-839319
-839558
-839659
-839704
-839743
-839813
-840080
-840169
-840390
-840551
-840728
-840822
-840859
-841106
-841195
-841289
-841426
-841638
-841740
-841881
-841985
-842146
-842304
-842496
-842489
-842589
-842774
-842922
-843035
-843189
-843429
-843541
-843677
-843788
-843840
-843954
-844093
-844179
-844349
-844574
-844674
-844782
-844863
-844993
-844930
-844953
-845074
-845170
-845301
-845472
-845593
-845689
-845899
-845931
-846058
-846160
-846359
-846444
-846662
-846803
-847075
-847146
-847132
-847259
-847440
-847581
-847703
-847811
-848004
-848214
-848288
-848518
-848650
-848691
-848888
-849032
-849238
-849379
-849671
-849904
-849998
-850199
-850401
-850430
-850544
-850805
-850933
-851125
-851325
-851415
-851535
-851522
-851606
-851733
-851747
-851760
-851976
-852172
-852249
-852403
-852490
-852594
-852620
-852723
-852781
-852852
-853008
-853253
-853216
-853374
-853426
-853360
-853269
-853214
-853076
-852917
-852718
-852468
-852200
-851699
-851152
-850707
-850152
-849519
-848722
-847094
-842413
-841397
-834343
-832332
-831350
-830524
-829649
-828714
-827868
-827100
-824855
-824190
-823543
-822873
-822409
-821931
-821423
-820951
-820664
-820163
-819873
-819455
-819012
-818309
-818158
-817763
-817212
-817083
-816977
-816806
-816646
-816675
-816588
-816571
-816635
-816543
-816504
-816338
-816109
-816016
-815923
-815959
-815926
-815902
-815878
-815868
-815822
-815719
-815632
-815581
-815357
-815324
-815250
-815144
-815026
-814884
-814954
-814722
-814583
-814352
-814279
-814150
-813963
-813873
-813804
-813704
-813666
-813520
-813361
-813359
-813297
-813245
-813216
-813321
-813278
-813328
-813468
-813584
-813581
-813734
-813899
-814044
-814301
-814364
-814584
-814900
-815249
-815355
-815591
-815822
-816168
-816486
-816858
-817379
-817670
-817882
-818103
-818250
-818785
-818978
-819109
-819160
-819214
-819309
-819245
-819299
-819348
-819331
-819356
-819199
-819277
-819140
-819128
-819102
-818995
-818818
-818709
-818672
-818614
-818582
-818550
-818533
-818379
-818353
-818392
-818207
-818119
-818141
-818079
-818201
-818095
-818204
-818258
-818279
-818208
-818202
-818236
-818378
-818427
-818529
-818577
-818664
-818818
-818925
-819031
-819045
-819079
-819170
-819247
-819350
-819412
-819528
-819680
-819741
-819752
-819857
-819919
-819950
-820162
-820362
-820528
-820558
-820712
-820780
-820920
-820975
-820983
-821222
-821252
-821515
-821640
-821683
-821849
-822091
-822204
-822337
-822396
-822690
-822795
-823063
-823233
-823319
-823629
-823761
-824028
-824183
-824358
-824567
-824673
-824823
-825019
-825187
-825434
-825711
-825801
-825873
-825920
-826067
-826263
-826513
-826572
-826669
-826857
-827048
-827145
-827269
-827514
-827707
-827792
-828040
-828317
-828471
-828651
-828834
-829383
-829504
-829709
-829978
-830102
-830211
-830346
-830588
-830905
-831065
-831237
-831474
-831817
-831924
-832164
-832432
-832588
-832718
-832716
-832954
-833318
-833531
-833626
-834041
-834237
-834482
-835134
-835176
-835513
-836047
-836135
-836524
-836587
-836827
-836869
-836964
-837149
-837175
-837395
-837520
-837633
-837553
-837783
-837795
-837869
-838173
-838247
-838486
-838495
-838522
-838692
-838652
-838700
-838840
-838972
-839059
-839213
-839084
-839351
-839501
-839540
-839686
-839725
-839961
-840016
-840356
-840405
-840554
-840725
-840820
-840947
-841104
-841244
-841383
-841569
-841701
-841717
-841908
-842145
-842234
-842366
-842428
-842601
-842761
-842985
-843060
-843167
-843256
-843470
-843623
-843675
-843770
-843925
-844154
-844316
-844493
-844564
-844778
-844889
-844979
-845123
-845205
-845301
-845549
-845665
-845824
-846053
-846238
-846445
-846467
-846546
-846701
-846873
-847040
-847167
-847318
-847457
-847679
-847741
-847912
-848092
-848196
-848299
-848420
-848575
-848730
-848785
-848990
-849103
-849146
-849187
-849364
-849448
-849560
-849589
-849717
-849584
-849435
-849326
-849107
-848776
-848343
-847968
-847474
-846866
-846336
-845576
-844881
-844184
-843429
-842536
-841478
-840554
-839613
-838705
-837668
-836644
-835711
-834638
-833596
-832550
-831699
-830712
-829584
-828695
-827867
-827041
-826214
-825320
-824568
-823666
-822802
-822110
-821448
-820732
-819980
-819392
-818881
-818323
-817840
-817303
-816844
-816514
-816179
-815977
-815638
-815318
-815127
-815044
-814778
-814585
-814407
-814232
-814082
-813974
-813805
-813661
-813586
-813501
-813464
-813290
-813241
-813103
-813132
-813176
-813073
-813133
-813217
-813139
-813162
-813152
-813102
-813508
-813228
-812982
-812971
-812996
-812973
-812889
-812782
-812730
-812509
-812463
-812484
-812449
-812324
-812143
-811946
-811847
-811729
-811625
-811368
-811278
-811020
-810840
-810715
-810540
-810401
-810317
-809992
-809956
-809766
-809545
-809464
-809311
-809217
-809109
-809030
-809023
-808992
-808794
-808667
-808735
-808647
-808711
-808638
-808633
-808715
-808766
-808976
-808928
-809046
-809223
-809433
-809598
-809798
-810076
-810281
-810483
-810534
-810847
-811069
-811361
-811616
-811841
-812203
-812301
-812581
-812627
-812991
-813070
-813203
-813361
-813227
-813468
-813713
-813528
-813734
-813656
-813807
-813814
-813736
-813666
-813636
-813577
-813484
-813406
-813531
-813363
-813241
-813139
-813154
-813121
-812971
-812900
-812859
-812824
-812861
-812898
-812793
-812790
-812744
-812593
-812564
-812476
-812321
-812323
-812330
-812261
-812234
-812050
-812218
-812397
-812492
-812570
-812625
-812419
-812555
-812667
-812709
-812806
-812860
-812953
-813043
-813161
-813246
-813329
-813495
-813466
-813591
-814301
-814979
-815344
-815375
-815482
-816232
-816319
-816831
-816829
-817437
-817790
-818085
-818074
-818386
-818557
-818600
-818731
-818993
-819163
-819366
-819452
-819669
-819780
-819905
-819943
-820183
-820386
-820804
-821289
-821483
-821726
-822060
-822154
-822180
-822374
-822531
-822562
-822789
-823370
-823234
-823345
-823467
-823579
-823720
-823855
-824017
-824170
-824378
-824717
-824833
-825041
-825171
-825296
-825369
-825439
-825708
-825793
-826015
-826726
-826504
-826611
-826668
-826688
-826903
-827009
-826991
-827204
-827239
-827278
-827498
-827568
-827578
-827689
-827690
-827777
-827830
-827921
-827959
-828244
-828272
-828455
-828523
-828725
-828798
-828988
-828986
-829135
-829186
-829410
-829576
-829735
-829730
-829898
-829995
-830120
-830195
-830269
-830481
-830653
-830681
-830790
-830854
-830949
-831059
-831002
-831059
-831293
-831439
-831567
-831679
-831718
-831750
-832272
-832019
-832093
-832072
-832069
-832187
-832246
-832368
-832402
-832482
-832600
-832690
-832693
-832848
-833046
-833170
-833270
-833287
-833204
-833472
-833574
-833601
-833841
-833940
-834054
-834140
-834343
-834444
-834465
-834478
-834634
-834621
-834784
-834848
-834937
-835163
-835175
-835333
-835439
-835501
-835667
-835672
-835773
-836032
-836051
-836229
-836373
-836440
-836652
-836676
-836828
-836865
-836930
-837045
-837160
-837299
-837485
-837607
-837720
-837788
-837999
-838195
-838216
-838328
-838490
-838694
-838887
-839019
-839136
-839220
-839331
-839458
-839649
-839869
-840017
-840112
-840157
-840357
-840449
-840417
-840454
-840629
-840554
-840597
-840418
-840386
-840267
-839969
-839624
-839267
-838765
-838235
-837746
-837201
-836524
-835750
-834998
-834204
-833420
-832565
-831665
-830663
-829718
-828782
-827813
-826914
-826003
-825061
-824037
-822876
-822047
-821057
-819943
-819228
-818411
-817605
-816810
-815811
-815286
-814677
-813935
-813353
-812752
-812133
-811589
-811079
-810649
-810257
-809926
-809485
-809098
-808816
-808480
-808270
-808125
-807871
-807699
-807527
-807477
-807276
-807138
-806996
-806917
-806689
-806849
-806888
-806835
-806888
-806839
-806890
-806755
-806581
-806684
-806631
-806622
-806689
-806700
-806550
-806463
-806339
-806434
-806383
-806262
-806196
-806151
-806215
-806199
-806259
-806194
-806227
-806001
-805879
-805873
-805797
-805600
-805612
-805302
-805190
-805078
-804997
-804985
-804817
-804745
-804778
-804726
-804575
-804357
-804298
-804201
-804165
-804027
-804043
-804138
-803945
-803944
-803968
-803955
-803901
-803991
-804155
-804250
-804380
-804625
-804834
-804935
-805089
-805319
-805420
-805743
-806040
-806210
-806463
-806674
-807025
-807827
-807599
-807492
-807841
-808056
-808221
-808336
-808521
-808809
-808919
-809048
-809293
-809181
-809349
-809302
-809447
-809615
-809855
-809839
-809914
-809936
-809850
-809872
-809781
-809822
-809891
-809761
-809740
-809697
-809712
-810281
-809730
-809413
-809246
-809249
-809221
-809167
-809193
-809132
-809117
-809147
-809096
-809046
-809014
-808998
-808964
-808944
-808957
-808951
-809072
-809057
-809078
-809165
-809316
-809338
-809382
-809439
-809605
-809797
-809908
-810054
-810121
-810313
-810561
-810663
-810893
-810993
-811200
-811359
-811442
-811482
-811643
-811867
-812011
-812046
-812167
-812424
-812523
-812741
-812850
-812991
-813098
-813241
-813447
-813605
-813810
-814117
-814103
-814356
-814417
-814637
-814772
-814895
-815100
-815231
-815554
-815716
-815929
-816207
-816415
-816556
-816781
-817127
-817212
-817409
-817690
-817983
-818177
-818390
-818621
-818856
-818980
-819165
-819404
-819626
-819877
-820002
-820284
-820406
-820530
-820696
-820859
-821113
-821290
-821452
-821751
-821978
-822106
-822386
-822545
-822604
-822886
-823068
-823232
-823331
-823597
-823764
-824118
-824289
-825820
-826883
-827059
-827302
-827392
-827582
-827689
-827853
-828222
-828350
-828493
-828725
-828822
-829024
-829036
-829171
-829181
-829471
-829725
-829778
-830022
-830246
-830312
-830487
-831170
-830954
-831161
-831154
-831281
-831448
-831475
-831533
-831662
-831784
-831995
-832347
-832411
-832467
-832582
-832863
-832943
-832998
-833302
-833497
-833625
-834159
-834239
-834360
-835252
-834894
-834809
-835154
-835341
-835463
-835506
-836110
-836350
-836477
-836586
-836689
-836691
-837066
-836997
-836925
-837063
-837188
-837326
-838299
-837779
-837831
-837815
-837872
-838136
-838302
-838491
-838609
-838756
-838790
-839174
-839293
-839548
-839640
-839837
-840119
-840406
-840501
-840650
-840974
-841239
-841322
-841496
-841612
-841755
-841891
-842092
-842313
-842362
-842571
-842775
-842781
-842794
-842791
-842790
-842785
-842712
-842672
-842530
-842138
-842093
-841669
-841246
-840814
-840335
-839751
-839125
-838513
-837823
-837003
-836252
-835482
-834476
-833613
-832589
-831707
-830701
-829745
-828736
-827860
-826771
-825773
-824833
-823736
-822827
-821965
-821066
-820242
-819393
-818697
-817833
-817136
-816462
-815754
-815036
-814670
-814185
-813712
-813191
-812676
-812377
-811915
-811383
-811025
-810782
-810406
-810219
-809909
-809696
-809480
-809212
-809157
-808884
-808696
-808613
-808422
-808409
-808453
-808372
-808246
-808253
-808274
-808311
-808154
-808279
-808145
-808154
-808142
-808179
-808212
-808173
-808202
-808188
-808067
-808065
-808114
-808119
-808121
-808111
-808269
-808222
-808298
-808190
-808273
-808202
-808132
-807830
-807769
-807559
-807479
-807355
-807247
-807185
-807154
-806804
-806818
-806651
-806542
-806402
-806240
-806196
-806177
-806028
-806002
-806017
-805955
-805986
-805989
-805944
-805887
-805993
-806052
-806206
-806223
-806353
-806419
-806610
-806711
-806921
-806948
-807219
-807424
-807660
-807849
-808058
-808237
-808486
-808540
-808738
-809429
-809523
-809668
-809861
-809892
-809984
-809980
-809789
-809581
-809513
-809674
-809856
-810103
-810153
-809918
-809693
-809619
-809534
-809479
-809363
-809380
-809263
-809330
-809159
-809100
-809169
-809240
-809088
-809006
-809025
-808830
-808523
-808150
-807896
-807847
-807953
-808145
-808214
-808136
-808114
-808108
-808174
-808285
-808442
-808497
-808611
-808739
-808644
-808670
-808874
-808841
-808924
-809058
-809152
-809362
-809501
-809554
-809607
-809693
-809893
-810063
-810419
-810674
-810805
-810934
-811143
-811313
-811248
-811175
-811343
-811687
-811839
-812114
-812470
-812597
-812798
-812998
-813159
-813370
-813488
-813570
-813796
-814152
-814267
-814549
-814741
-815016
-815124
-815332
-815479
-815610
-815929
-816014
-816219
-816410
-816585
-816793
-816859
-816966
-817048
-817261
-817534
-817648
-817825
-817947
-818067
-818166
-818245
-818434
-818565
-818678
-818696
-818860
-819029
-819088
-819196
-819248
-819334
-819355
-819480
-819602
-819819
-819816
-820035
-820212
-820276
-820507
-820594
-820768
-820881
-820976
-821247
-821373
-821593
-821640
-821859
-821965
-822068
-822205
-822289
-822454
-822586
-822704
-822857
-823001
-823170
-823244
-823329
-823551
-823601
-823811
-823951
-824216
-824433
-824529
-824779
-824892
-824856
-825001
-825165
-825360
-825437
-825572
-825710
-825863
-825989
-826137
-826223
-826406
-826422
-826650
-826736
-826883
-827097
-827168
-827387
-827420
-827571
-827646
-827753
-827889
-828026
-828067
-828165
-828341
-828559
-828795
-828954
-828991
-829208
-829311
-829470
-829653
-829830
-829677
-829855
-830083
-830201
-830344
-830458
-830653
-830712
-831100
-831436
-831205
-831337
-831299
-831444
-831453
-831609
-831874
-832025
-832263
-832384
-832497
-832715
-832753
-832959
-833062
-833244
-833533
-833718
-833837
-834110
-834308
-834418
-834585
-834708
-834876
-835013
-835194
-835371
-835530
-835671
-835800
-836066
-836081
-836183
-836329
-836403
-836613
-836781
-836892
-837099
-837244
-837404
-837483
-837624
-837627
-837897
-838079
-838197
-838356
-838485
-838639
-838874
-838977
-839035
-839131
-839312
-839438
-839597
-839881
-840016
-840184
-840251
-840304
-840294
-840280
-840279
-840081
-839943
-840701
-839913
-839430
-839021
-838629
-838046
-837437
-836955
-836201
-835459
-834732
-834068
-833156
-832318
-831322
-830298
-829244
-828336
-827365
-826392
-825454
-824384
-823442
-822555
-821618
-820495
-819524
-818707
-817918
-817080
-816406
-815812
-815037
-814347
-813725
-813062
-812393
-811958
-811483
-810967
-810572
-810046
-809702
-809446
-809041
-809043
-808560
-808356
-808193
-807699
-807744
-807628
-807637
-807438
-807459
-807401
-807332
-807399
-807229
-807284
-807370
-807343
-807361
-807398
-807330
-807215
-807113
-807235
-807156
-807116
-807170
-807076
-807100
-806839
-806878
-806910
-806710
-806721
-806710
-806647
-806733
-806638
-806601
-806559
-806419
-806302
-806264
-806126
-806061
-806027
-805957
-805790
-805755
-805555
-805404
-805254
-805072
-804924
-804867
-804760
-804573
-804579
-804458
-804295
-804025
-803892
-803749
-803619
-803521
-803418
-803353
-803347
-803297
-803218
-803236
-803132
-803038
-803089
-803121
-803242
-803287
-803445
-803707
-803733
-803963
-804184
-804437
-804663
-804800
-805157
-805422
-805648
-806020
-806162
-806485
-806857
-807103
-807407
-807617
-807995
-808075
-808378
-808661
-808703
-808825
-808941
-809211
-809416
-809393
-809584
-810254
-809934
-809961
-809908
-809995
-809912
-809905
-809991
-809948
-809927
-809868
-809851
-809842
-809730
-809676
-809268
-809401
-809480
-809412
-809401
-809363
-809300
-809304
-809215
-809117
-809087
-809172
-809236
-809199
-809193
-809241
-809362
-809391
-809482
-809491
-809505
-809454
-809552
-809675
-809797
-809843
-809902
-809890
-809967
-810036
-810068
-810049
-810134
-810231
-810351
-810403
-810512
-810574
-810494
-810963
-810759
-810780
-811009
-811023
-811096
-811148
-811325
-811426
-811635
-811720
-811776
-811955
-812132
-812250
-812424
-812638
-812919
-813138
-813213
-813257
-813360
-813454
-813797
-814055
-814156
-814348
-814555
-814822
-814954
-815068
-815191
-815368
-815632
-815898
-816092
-816316
-816499
-816686
-816803
-817035
-817184
-817289
-817534
-817742
-817957
-818110
-818329
-818472
-818599
-818848
-818876
-819005
-819268
-819460
-819719
-819879
-820038
-820207
-820411
-820609
-820736
-820888
-821127
-821296
-821557
-821731
-821935
-822130
-822302
-822510
-822729
-822814
-823102
-823253
-823547
-823630
-823877
-824142
-825012
-824709
-824722
-824918
-825196
-825405
-825588
-825686
-825815
-825961
-826086
-826189
-826221
-826409
-826553
-826628
-826840
-826909
-827014
-827168
-827352
-827455
-827597
-827798
-827936
-828037
-828204
-828337
-828273
-828512
-828594
-828744
-828930
-828995
-829167
-829277
-829426
-829506
-829683
-829845
-829998
-830071
-830168
-830304
-830506
-830606
-830711
-830854
-831053
-831292
-831270
-831245
-831466
-831513
-831644
-831855
-831923
-832108
-832132
-832213
-832306
-832282
-832467
-832498
-832559
-832737
-832830
-832898
-832812
-833096
-833227
-833381
-833611
-833609
-833776
-833999
-834153
-834320
-834356
-834448
-834512
-834661
-834880
-834919
-835158
-835409
-835645
-835571
-835870
-836053
-836099
-836219
-836288
-836336
-836541
-836613
-836719
-836809
-837065
-837148
-837300
-837335
-837449
-838181
-838189
-838658
-838727
-838858
-838933
-839012
-839343
-839426
-839648
-839964
-840153
-840183
-840389
-840478
-840679
-840887
-841106
-841313
-841460
-841705
-841799
-841977
-842028
-842071
-842090
-842177
-842048
-841993
-841912
-841762
-841518
-841242
-840725
-840301
-839809
-839213
-838580
-838031
-837105
-836562
-835696
-834829
-833933
-832864
-831843
-830836
-829956
-828887
-827601
-826731
-825916
-824920
-823835
-822840
-821756
-820895
-820046
-819080
-818232
-817388
-816543
-815885
-815046
-814369
-813685
-812931
-812497
-811923
-811412
-810948
-810318
-809869
-809432
-808967
-808543
-808261
-808050
-807820
-807707
-807405
-807335
-807139
-806985
-806891
-806619
-806637
-806535
-806531
-806428
-806505
-806447
-806403
-806454
-806374
-806419
-806396
-806365
-806369
-806552
-806534
-806619
-806777
-806807
-806928
-806947
-806904
-806922
-807003
-807030
-806958
-806810
-806848
-806822
-806655
-806478
-806540
-806539
-806521
-806436
-806373
-806279
-806190
-805999
-805864
-805720
-805593
-805445
-805347
-805257
-805046
-804933
-804809
-804590
-804514
-804507
-804446
-804459
-804509
-804394
-804432
-804313
-804177
-804131
-804186
-804147
-804170
-804208
-804203
-804418
-804557
-804719
-804896
-805022
-805194
-805450
-805699
-805958
-806301
-806590
-806851
-807163
-807467
-807664
-807900
-808070
-808245
-808529
-808757
-809003
-809258
-809450
-809571
-809763
-809914
-809954
-809947
-810000
-809900
-810153
-810172
-810220
-810168
-810095
-810012
-809899
-809978
-809958
-809791
-809687
-809762
-809676
-809668
-809589
-809552
-809344
-809278
-809234
-809219
-809067
-808978
-809008
-808924
-808737
-808630
-808564
-808576
-808618
-808733
-808864
-809054
-809175
-809204
-809208
-809128
-809242
-809406
-809471
-809357
-809322
-809439
-809452
-809454
-809275
-809496
-809547
-809570
-809860
-809933
-810119
-810125
-810156
-810246
-810324
-810398
-810415
-810573
-810804
-811002
-811213
-811463
-811562
-811541
-811750
-811843
-811964
-812132
-812197
-812268
-812422
-812618
-812655
-812716
-812867
-813076
-813040
-813131
-813355
-813412
-813654
-813778
-813884
-814025
-813993
-814217
-814393
-814691
-815058
-815251
-815531
-815593
-815816
-815952
-816040
-816223
-816279
-816432
-816707
-816947
-817240
-817481
-817755
-818033
-818065
-818152
-818076
-817869
-818130
-818253
-818383
-818932
-818936
-819076
-819159
-819386
-819485
-819619
-819568
-819823
-819941
-820116
-820228
-820369
-820474
-820510
-820663
-820751
-820741
-820900
-820921
-821127
-821145
-821203
-821307
-821425
-821509
-821698
-821700
-821925
-822040
-822254
-822421
-822499
-823000
-822720
-822789
-822911
-823192
-823251
-823360
-823576
-823541
-823672
-823768
-823727
-823871
-823968
-824002
-824174
-824289
-824378
-824438
-824487
-824641
-824622
-824625
-824667
-824842
-824788
-824818
-824785
-824812
-824896
-824937
-825106
-825027
-825207
-825300
-825256
-825336
-825457
-825541
-825552
-825557
-825587
-825768
-825918
-825851
-825936
-826070
-826214
-826309
-826357
-826338
-826350
-826505
-826544
-826707
-826858
-826904
-827123
-827133
-827282
-827311
-827424
-827500
-827567
-827679
-827808
-827931
-828088
-828124
-828197
-828324
-828337
-828481
-828757
-828816
-829058
-829158
-829367
-829493
-829555
-829677
-829839
-830028
-830907
-830535
-830599
-830779
-830954
-831126
-831309
-831371
-831472
-831603
-831759
-831980
-832204
-832277
-832489
-832602
-832564
-832638
-832564
-832560
-832716
-832551
-832450
-832335
-832198
-831814
-831469
-831039
-830479
-830013
-829471
-828920
-828276
-827458
-826656
-825827
-824924
-823954
-822980
-822145
-821204
-820237
-819334
-818330
-817401
-816372
-815389
-814458
-813516
-812656
-811743
-811005
-810116
-809408
-808713
-807914
-807057
-806417
-805641
-805578
-804678
-804157
-803628
-803131
-802607
-801984
-801569
-801242
-800902
-800594
-800287
-799979
-799827
-799537
-799309
-799113
-798976
-798788
-798590
-798522
-798391
-798248
-798177
-797996
-797955
-797941
-797802
-797718
-797660
-797727
-797718
-797706
-797662
-797583
-797715
-797635
-797561
-797477
-797526
-797570
-797591
-797694
-797691
-797583
-797639
-797482
-797455
-797408
-797382
-797245
-797134
-797164
-797154
-796939
-796913
-796798
-796643
-796460
-796269
-796175
-795842
-795610
-795431
-795309
-795109
-794982
-794850
-794388
-794344
-794314
-794250
-794185
-794049
-793974
-794159
-794198
-794221
-794334
-794534
-794585
-794720
-794845
-795051
-795209
-795427
-795702
-796054
-796187
-796370
-796639
-796867
-797023
-797144
-797384
-797621
-797750
-797973
-798066
-798161
-798358
-798396
-798509
-798534
-798571
-798627
-798606
-798739
-798661
-798668
-798673
-798587
-798423
-798481
-798433
-798385
-798249
-798194
-798161
-797976
-797951
-797696
-797654
-797504
-797407
-797372
-797315
-797358
-797319
-797209
-797177
-797119
-797068
-796979
-797018
-796994
-796924
-796982
-796975
-797083
-797129
-797064
-797010
-796961
-797069
-797077
-797182
-797238
-797268
-797469
-797374
-797454
-797530
-797626
-797701
-797777
-797950
-798149
-798261
-798347
-798364
-798481
-798502
-798715
-798985
-798912
-799312
-799232
-799583
-799927
-800049
-800100
-800222
-800415
-800564
-800805
-800997
-801071
-801222
-801348
-801536
-801727
-801948
-802083
-802194
-802320
-802446
-802605
-802800
-802933
-803043
-803159
-803406
-803443
-803653
-803835
-804015
-804106
-804313
-804471
-804519
-804647
-804752
-804998
-805084
-805365
-805436
-805675
-805862
-805849
-806118
-806276
-806295
-806365
-806573
-806825
-806898
-807153
-807346
-807543
-807742
-807744
-807866
-807971
-808182
-808350
-808484
-808783
-808985
-809078
-809242
-809316
-809338
-809592
-809763
-810029
-810355
-810481
-811178
-811704
-813109
-813857
-814106
-815215
-815476
-815699
-815935
-816069
-816739
-817382
-817512
-817678
-817652
-817928
-818069
-818240
-818352
-818477
-818584
-818778
-818910
-818905
-818924
-819007
-819043
-819120
-819325
-819362
-819504
-819584
-819739
-819844
-820002
-819977
-820014
-820147
-820194
-820459
-820574
-820785
-820863
-821011
-820972
-821219
-821468
-821511
-821565
-821778
-821968
-822017
-822093
-822145
-822391
-822525
-822588
-822754
-822925
-823146
-823287
-823454
-823664
-823710
-823916
-824020
-824007
-824120
-824282
-824541
-824600
-824767
-824931
-825130
-825210
-825258
-825388
-825401
-825496
-825555
-825606
-825766
-825767
-825865
-825745
-825617
-825455
-825218
-824993
-824609
-824269
-823862
-823433
-822893
-822202
-821586
-820839
-819918
-819136
-818327
-817354
-816407
-815546
-814625
-813549
-812468
-811479
-810503
-809515
-808576
-807715
-806800
-805820
-804885
-803922
-803003
-802137
-801391
-800604
-799700
-799127
-798450
-797861
-797165
-796603
-796069
-795551
-795002
-794620
-794136
-793757
-793454
-793157
-792862
-792638
-792379
-792132
-791859
-791748
-791625
-791585
-791419
-791319
-791294
-791132
-790923
-790939
-790810
-790745
-790656
-790617
-790734
-790664
-790634
-790528
-790444
-790364
-790420
-790398
-790403
-790425
-790497
-790337
-790364
-790386
-790223
-790137
-790149
-790064
-789971
-789889
-789821
-789723
-789649
-789501
-789334
-789182
-789110
-788985
-788846
-788733
-788607
-788438
-788361
-788244
-787965
-787785
-787594
-787312
-787162
-787056
-786842
-786704
-786654
-786499
-786306
-786156
-786087
-786105
-786309
-786346
-786340
-786260
-786428
-786464
-786678
-786856
-787016
-787327
-787460
-787720
-787913
-788084
-788295
-788725
-789024
-789269
-789557
-789848
-790103
-790298
-790640
-790917
-791189
-791415
-791646
-791836
-792080
-792138
-792393
-792696
-792779
-792816
-792778
-792972
-793162
-793161
-793266
-793330
-793398
-793392
-793300
-793793
-793413
-793344
-793306
-793212
-793210
-793671
-792954
-792970
-792889
-793410
-793207
-792852
-792672
-792553
-792522
-792487
-792512
-792434
-792474
-792302
-792269
-792416
-792411
-792469
-792499
-792294
-792406
-792441
-792515
-792498
-792541
-792544
-792672
-792689
-792763
-792770
-792936
-792900
-792981
-792959
-792976
-793160
-793253
-793328
-793424
-793502
-793590
-793652
-793794
-793899
-793940
-794072
-794251
-794320
-794585
-794694
-794777
-794905
-794987
-795164
-795229
-795516
-795637
-795755
-795951
-796229
-796375
-796282
-796978
-796944
-797344
-797317
-797484
-797574
-797887
-798057
-798323
-798525
-798669
-798896
-799014
-799270
-799404
-799625
-799900
-800106
-800245
-800539
-800683
-800777
-800994
-801290
-801218
-801296
-801720
-801988
-802191
-802332
-802518
-802603
-802688
-802976
-803234
-803351
-803499
-803650
-803827
-803973
-804141
-804326
-804480
-804737
-804838
-805057
-805225
-805343
-805595
-805756
-805905
-806009
-806186
-806392
-806541
-806749
-806962
-807134
-807318
-807575
-807668
-807792
-808111
-808294
-808407
-809089
-808955
-809008
-809199
-809316
-809482
-809588
-809771
-809786
-809882
-810052
-810176
-810301
-810474
-810495
-810577
-810534
-810680
-810709
-810925
-811005
-811107
-811202
-811285
-811191
-811104
-811209
-811726
-811553
-811509
-811604
-811676
-811827
-811741
-811874
-811878
-811838
-812053
-812091
-812048
-812150
-812279
-812368
-812538
-812544
-812628
-812590
-812627
-812744
-812919
-813142
-813319
-813469
-813715
-813713
-813746
-813938
-814121
-814249
-814344
-814480
-814808
-814917
-815090
-815204
-815835
-815606
-815615
-815868
-816001
-816192
-816367
-816694
-816864
-817015
-817246
-817483
-817669
-817954
-818240
-818533
-818630
-818963
-819179
-819399
-819525
-819687
-819950
-820187
-820477
-820727
-820949
-821052
-821288
-821413
-821671
-821827
-821986
-822221
-822510
-822563
-822881
-823155
-823356
-823392
-823533
-823672
-823934
-823979
-824182
-824311
-824366
-824411
-824308
-824349
-824289
-824208
-824050
-823958
-823757
-823577
-823331
-822861
-822315
-821800
-821244
-820682
-820016
-819286
-818540
-817813
-816860
-815964
-814833
-813898
-812954
-811964
-811067
-810016
-809156
-808360
-807421
-806652
-805652
-804849
-803858
-803191
-802354
-801450
-800722
-799998
-799271
-798681
-798079
-797427
-796722
-796050
-795615
-795209
-794767
-794259
-793875
-793485
-793087
-792583
-792281
-791910
-791643
-791419
-791266
-791011
-790913
-790820
-790620
-790534
-790341
-790273
-790157
-790092
-790076
-790127
-790142
-790089
-789928
-789806
-789697
-789711
-789611
-789708
-789590
-789561
-789624
-789442
-789324
-789355
-789165
-789013
-789098
-788801
-788897
-788873
-788825
-788712
-788550
-788484
-788427
-788372
-788319
-788263
-787824
-787874
-787835
-787727
-787660
-787456
-787392
-787293
-787305
-787035
-786644
-786758
-787273
-786700
-786456
-786242
-786211
-786099
-786036
-786139
-785976
-786069
-786139
-786045
-785977
-786009
-786100
-786139
-786397
-786530
-786589
-786911
-787232
-787425
-787364
-787606
-788058
-788493
-788760
-788885
-789474
-789752
-790150
-790544
-790767
-791147
-791369
-791745
-792065
-792339
-792779
-792984
-793100
-792868
-792344
-792354
-792563
-792908
-793308
-793523
-793686
-793716
-793857
-793918
-793953
-793901
-793955
-794035
-793973
-793887
-793830
-793816
-793919
-793789
-793645
-793486
-793339
-794060
-793417
-793279
-793230
-793060
-792933
-792832
-792567
-792252
-792351
-792343
-792299
-792089
-791983
-791973
-792045
-791906
-791850
-791748
-791722
-791758
-791683
-791708
-791834
-791773
-791797
-791891
-791860
-791771
-791789
-791909
-791949
-791958
-792112
-792110
-792151
-792196
-792203
-792060
-792111
-792182
-792319
-792333
-792386
-792438
-792599
-792564
-792634
-792798
-792796
-792926
-792974
-793033
-793143
-793246
-793326
-793428
-793454
-793529
-793629
-793761
-793844
-794082
-794204
-794338
-794412
-794649
-794730
-794897
-794790
-795193
-795349
-795663
-795788
-796043
-796253
-796372
-796546
-796627
-796925
-797248
-797215
-797663
-797944
-798189
-798473
-798583
-798809
-799031
-799125
-799383
-799640
-799986
-800316
-800511
-800719
-800803
-801001
-801031
-801160
-801384
-801489
-801412
-801576
-801296
-801576
-801551
-801450
-801442
-801468
-801256
-801446
-801693
-802211
-801889
-801793
-801797
-801703
-801590
-801669
-801720
-801730
-801849
-801822
-801897
-802101
-802189
-802178
-802279
-802565
-802611
-802726
-802829
-803095
-803292
-803379
-803538
-803639
-803644
-803708
-803904
-804063
-804223
-804298
-804588
-804748
-804874
-805142
-805285
-805504
-805700
-805995
-806156
-806347
-806548
-806661
-806878
-806959
-807022
-807092
-807268
-807373
-807435
-807384
-807442
-807412
-807476
-807429
-807419
-807547
-807644
-807694
-807616
-807839
-807964
-808137
-808110
-807980
-807972
-808036
-808072
-808202
-808362
-808564
-808653
-808860
-808841
-808937
-808955
-809058
-809121
-809263
-809334
-809457
-809536
-809623
-809617
-809691
-809737
-809827
-809912
-809986
-809983
-810039
-810061
-810206
-810318
-810260
-810321
-810407
-810597
-810637
-810710
-810775
-810883
-810923
-810959
-811177
-811157
-811241
-811306
-811431
-811446
-811514
-811622
-811725
-811715
-811755
-811789
-812013
-812227
-812270
-812411
-812484
-812734
-812769
-812906
-812933
-813082
-813237
-813440
-813609
-814126
-814305
-814404
-814536
-814726
-814752
-814744
-814809
-814918
-814877
-814725
-814624
-814362
-814108
-813911
-813519
-813169
-812739
-812160
-811578
-810948
-810326
-809457
-808690
-807824
-806940
-806054
-805147
-804366
-803409
-802520
-801602
-800728
-799727
-798774
-797929
-797068
-796154
-795260
-794486
-793679
-792942
-792163
-791301
-790612
-789872
-789251
-788584
-787901
-787377
-786890
-786499
-785940
-785465
-785133
-784821
-784485
-784264
-784115
-783928
-783767
-783738
-783622
-784115
-783651
-783575
-783488
-783538
-784193
-783735
-783644
-783234
-782614
-782206
-782085
-782187
-782410
-782612
-782722
-782785
-782624
-782652
-782668
-782645
-782492
-782302
-782284
-782196
-782191
-782139
-782033
-782038
-782130
-781992
-781821
-781693
-781428
-781622
-781685
-781694
-781556
-781484
-781455
-781326
-781347
-781170
-781111
-781207
-781090
-781002
-780917
-780803
-780615
-780353
-780174
-779988
-779822
-779730
-779582
-779442
-779445
-779254
-779033
-779023
-778851
-778750
-778795
-778903
-778886
-778977
-779182
-779191
-779149
-779198
-779333
-779344
-779661
-779883
-779996
-780186
-780428
-780564
-780658
-780889
-781025
-781285
-781240
-781658
-781812
-782084
-782309
-782820
-783391
-784253
-784668
-784792
-784903
-784887
-785125
-785446
-785731
-785667
-785611
-785515
-785662
-785642
-785653
-785738
-785884
-785841
-786087
-786080
-786018
-786006
-785828
-785832
-785766
-785741
-785612
-785616
-785561
-785595
-785883
-786050
-786070
-786196
-786141
-786060
-786188
-786367
-786420
-786595
-786532
-786474
-786487
-786434
-786405
-787028
-786780
-786849
-787004
-787085
-787252
-787405
-787544
-787788
-787925
-788195
-788463
-788471
-788685
-788737
-788995
-789043
-789269
-789392
-789664
-789891
-790145
-790362
-790587
-790661
-790772
-790941
-791036
-791132
-791297
-791539
-791635
-791795
-791900
-792071
-792271
-792378
-792578
-792851
-793141
-793467
-793835
-794154
-794512
-794870
-795289
-795775
-796111
-796516
-797021
-797495
-797954
-798418
-798900
-799397
-799776
-800088
-800461
-800871
-801098
-801343
-801617
-801899
-801924
-802098
-802211
-802109
-802086
-802213
-802196
-802214
-802286
-802312
-802412
-802507
-802571
-802604
-802711
-802906
-803152
-803257
-803509
-803754
-804092
-804285
-804566
-804842
-805050
-805531
-805984
-806379
-806750
-807094
-807586
-807923
-808366
-808893
-809404
-809862
-810400
-811032
-811702
-812349
-812782
-813547
-813024
-812627
-812463
-812768
-813137
-813458
-813719
-813894
-813867
-814171
-814353
-814590
-814680
-814935
-815110
-815460
-815570
-815716
-815726
-815696
-815693
-815881
-816221
-816403
-816471
-816646
-816689
-816885
-817064
-817342
-817432
-817525
-817718
-817880
-818170
-818429
-818569
-818955
-819173
-819535
-819528
-820041
-820020
-820385
-820787
-821077
-821502
-821845
-822028
-822279
-822512
-822578
-822836
-823050
-823267
-823441
-823862
-824021
-823972
-824021
-823932
-823968
-823818
-823919
-823780
-823796
-823781
-823738
-823665
-823695
-823592
-823538
-823611
-823760
-823942
-823983
-824171
-824238
-824255
-824517
-824584
-824871
-825150
-825326
-825660
-825924
-826366
-826615
-826982
-827422
-827832
-828267
-828640
-829123
-829473
-830019
-830462
-830780
-831086
-831330
-831422
-831731
-831977
-832091
-832321
-832388
-832676
-832835
-833310
-833729
-834055
-834361
-834606
-834910
-835214
-835521
-835786
-835787
-836036
-836191
-836211
-836239
-836251
-836562
-836326
-836117
-836012
-835812
-835540
-835321
-835077
-834767
-834337
-833985
-833322
-832739
-832213
-831630
-831085
-830406
-829664
-828953
-828252
-827588
-826790
-825951
-825040
-824230
-823257
-822659
-821267
-820249
-819355
-818432
-817604
-816700
-815928
-814958
-814039
-813142
-812290
-811551
-810773
-810129
-809353
-808731
-808020
-807397
-806876
-806252
-805778
-805258
-804821
-804485
-804058
-803709
-803474
-803242
-802885
-802638
-802410
-802223
-802098
-802063
-801950
-801877
-801828
-801691
-801682
-801601
-801489
-801294
-801249
-801275
-801141
-801077
-801025
-801147
-801163
-801046
-801039
-800726
-801041
-801062
-801157
-801262
-801183
-801166
-801124
-801008
-801155
-801487
-801754
-801729
-801734
-801568
-801617
-801689
-801523
-801367
-801179
-801005
-801006
-801026
-800753
-800761
-800580
-800345
-800239
-799914
-799700
-799740
-799659
-799613
-799455
-799365
-799470
-799365
-799362
-799488
-799645
-799821
-799996
-800290
-800504
-800722
-801059
-801162
-801505
-801679
-801992
-802241
-802554
-802766
-802940
-803140
-803372
-803571
-803694
-803867
-803985
-804180
-804284
-804296
-804397
-804385
-804449
-804333
-804245
-804306
-804238
-804149
-804094
-804060
-804031
-803861
-803969
-803770
-803592
-803291
-803228
-802957
-802975
-802752
-802651
-802535
-802524
-802384
-802337
-802204
-802114
-801951
-801982
-801757
-801764
-801513
-801699
-801580
-801374
-801371
-801303
-801242
-801200
-801130
-801203
-801075
-801101
-801125
-801045
-800914
-800976
-801141
-801360
-801664
-801833
-801792
-802188
-802374
-802538
-802458
-802563
-802602
-802745
-802754
-802984
-803094
-803215
-803304
-803312
-803241
-803441
-803474
-803622
-803811
-803923
-804061
-804297
-804488
-804639
-804832
-804978
-805148
-805402
-805590
-805846
-806128
-806351
-806527
-806646
-806786
-806954
-807169
-808040
-807651
-807699
-807801
-807968
-808111
-808294
-808426
-808584
-808767
-808912
-809185
-809708
-810323
-810702
-810798
-810803
-810719
-810806
-810779
-810859
-811126
-811363
-811621
-812058
-812321
-812642
-812916
-813325
-813672
-813917
-814197
-814493
-814829
-815128
-815314
-815597
-815778
-816062
-816466
-816821
-817008
-817346
-817662
-817893
-818038
-818336
-818474
-818646
-819003
-819233
-819440
-819543
-819792
-819950
-820112
-820215
-820276
-820434
-820399
-820648
-820676
-820776
-821015
-821135
-821173
-821186
-821748
-821444
-821204
-821597
-821693
-821944
-822154
-822325
-822556
-822732
-822867
-823109
-823258
-823478
-823720
-823942
-824306
-824534
-824903
-825113
-825365
-825571
-825968
-826107
-826311
-826559
-826913
-827250
-827610
-827892
-828155
-828600
-828877
-829244
-829572
-830000
-830078
-829928
-829629
-829520
-829638
-829804
-829915
-829846
-829997
-830131
-830190
-830151
-830251
-830357
-830366
-830541
-830661
-830732
-830941
-831056
-831098
-831124
-831185
-831287
-831378
-831589
-831720
-831581
-831997
-832269
-832562
-832752
-833053
-833276
-833464
-834185
-834272
-834421
-834610
-835076
-835494
-835750
-836115
-836382
-836668
-837036
-837264
-837533
