PPG
-971053
-971227
-971217
-971172
-971259
-971530
-971754
-971807
-971781
-971768
-972030
-972140
-972241
-972279
-972340
-972530
-972665
-972768
-972807
-972823
-972937
-973066
-973211
-973365
-973366
-973558
-973881
-973855
-973799
-973796
-973970
-974000
-973985
-974106
-974195
-974242
-974554
-974536
-974483
-974407
-974512
-974683
-974774
-974855
-974941
-975066
-975175
-975173
-975149
-975243
-975306
-975383
-975495
-975533
-975480
-975697
-975777
-975891
-976542
-975958
-976012
-975960
-975968
-976141
-976227
-976290
-976457
-976504
-976540
-976456
-976464
-976699
-976640
-976754
-976812
-977044
-977139
-977107
-977084
-977179
-977220
-977221
-977362
-977335
-977409
-977569
-977656
-977652
-977681
-977638
-977724
-977734
-977834
-977934
-977872
-978008
-977874
-978032
-978104
-978033
-978224
-978363
-978381
-978282
-978288
-978526
-978552
-978636
-978585
-978634
-978681
-978643
-978556
-978670
-978609
-978781
-978915
-978681
-978664
-978667
-978797
-978795
-978936
-979047
-979112
-979216
-979206
-979243
-979159
-979197
-979427
-979560
-979725
-979863
-979632
-979986
-980029
-980012
-979997
-980144
-980217
-980353
-980392
-980599
-980607
-980740
-980829
-980952
-981114
-981274
-981239
-981482
-981510
-981646
-981863
-981982
-982081
-982227
-982279
-982466
-982671
-982672
-982744
-982864
-983000
-983044
-983058
-982979
-982895
-982994
-983092
-983219
-983245
-983257
-983476
-983657
-983654
-983599
-983742
-983813
-983786
-983931
-983915
-983936
-984183
-984316
-984188
-984291
-984124
-984251
-984326
-984376
-984393
-984565
-984759
-984739
-984731
-984700
-984762
-984819
-984956
-984972
-985104
-985090
-985328
-985397
-985390
-985365
-985275
-985320
-985373
-985447
-985552
-985641
-985812
-985744
-985696
-985743
-985658
-985582
-985522
-985564
-985673
-985775
-985814
-985694
-985643
-985571
-985599
-985455
-985418
-985396
-986123
-985785
-985585
-985522
-985466
-985570
-985518
-985469
-985629
-985457
-985479
-985395
-985550
-985578
-985496
-985444
-985277
-985206
-984943
-984837
-984508
-984379
-984090
-983717
-983215
-982686
-982349
-981793
-981309
-980742
-980229
-979824
-979150
-978479
-977719
-977127
-976360
-975849
-974995
-974268
-973835
-973290
-972676
-971993
-971163
-970692
-970050
-969452
-968955
-968332
-967952
-968184
-967319
-966778
-966204
-965778
-965383
-965047
-964811
-964355
-964104
-963886
-963557
-963255
-962842
-962573
-962369
-962263
-962094
-961727
-961600
-961490
-961271
-961020
-960796
-960752
-960559
-960372
-960278
-960059
-959964
-959951
-959920
-959772
-959441
-959247
-959195
-958998
-958919
-959488
-958924
-958576
-958552
-958256
-957997
-957862
-957787
-957637
-957303
-957183
-957088
-957058
-956960
-956569
-956321
-956247
-956210
-955974
-955850
-955733
-955721
-955787
-955727
-955576
-955392
-955151
-955092
-954851
-954718
-954591
-954532
-954619
-954564
-954178
-953973
-953889
-953854
-953935
-953776
-953704
-953644
-953836
-953830
-953688
-953630
-953756
-953715
-953751
-953795
-953916
-953979
-954191
-954370
-954433
-954561
-954638
-954706
-954897
-955067
-955158
-955402
-955715
-955797
-955901
-956014
-956070
-956154
-956272
-956546
-956535
-956849
-957116
-957138
-957099
-956994
-957185
-957148
-957292
-957300
-957257
-957513
-957567
-957559
-957594
-957396
-957362
-957407
-957426
-957316
-957282
-957260
-957342
-957391
-957408
-957263
-957158
-957042
-956948
-956848
-956715
-956807
-956837
-956923
-956929
-956952
-956835
-956713
-956607
-956544
-956535
-956614
-956653
-956704
-956892
-956979
-956943
-956821
-956819
-956617
-956679
-956769
-956617
-956908
-957190
-957243
-957221
-957179
-957141
-957053
-956998
-957101
-957264
-957557
-957699
-957752
-957801
-957779
-957542
-957585
-957556
-957679
-957899
-958074
-958367
-958323
-958125
-958283
-958396
-958381
-958325
-958477
-958658
-958914
-958992
-959175
-959241
-959246
-959183
-959193
-959094
-959243
-959404
-959606
-959715
-959874
-959949
-959896
-959886
-959872
-959963
-960077
-960277
-960474
-960227
-960584
-960580
-960585
-960568
-960493
-960545
-960772
-960988
-961079
-961239
-961102
-961159
-961162
-960838
-961101
-961038
-961160
-961305
-961466
-961650
-961746
-961615
-961535
-961499
-961636
-961688
-961872
-962161
-962359
-962478
-962531
-962322
-962407
-962285
-962283
-962240
-962405
-962708
-962907
-962910
-962879
-962877
-962926
-962768
-962759
-962739
-962797
-962943
-963030
-963137
-963242
-963234
-963102
-963088
-962945
-962941
-963154
-963437
-963531
-963572
-963599
-963531
-963515
-963519
-963532
-963423
-963541
-963823
-963874
-963972
-963866
-963885
-963822
-964485
-963957
-963941
-963925
-964015
-964159
-964111
-963993
-963880
-963992
-963971
-964048
-963988
-964067
-964351
-964391
-964080
-964255
-964179
-964297
-964432
-964385
-964478
-964614
-964761
-964882
-964885
-964822
-964774
-964950
-964941
-964977
-965017
-965138
-965404
-965358
-965306
-965384
-965445
-965216
-965373
-965594
-965767
-965826
-966084
-966014
-966139
-966065
-966066
-966088
-966142
-966266
-966397
-966578
-966753
-966821
-966783
-966608
-966747
-966763
-966900
-966983
-966910
-967010
-967325
-967253
-967354
-967239
-967430
-967576
-967567
-967547
-967676
-967820
-967996
-967795
-967938
-967751
-967804
-967897
-967862
-967960
-968001
-968247
-968367
-968291
-968242
-968130
-968245
-968285
-968384
-968436
-968377
-968616
-968699
-968675
-968692
-968584
-968741
-968943
-968945
-969084
-969248
-969132
-969096
-969157
-969161
-969227
-969281
-969525
-969256
-969320
-969286
-969446
-969440
-969512
-969749
-969794
-969810
-969667
-969596
-969645
-969720
-969760
-969586
-969766
-969851
-969998
-969992
-969935
-969819
-969931
-970095
-970124
-970120
-970083
-970081
-970175
-970229
-970158
-970003
-969816
-969897
-969668
-969617
-969515
-969459
-969378
-969102
-968783
-968586
-968095
-967845
-967521
-966972
-966576
-966183
-965660
-965170
-964400
-963773
-963188
-962803
-962250
-961738
-961100
-960588
-960206
-959586
-959017
-958400
-957842
-957504
-957126
-956611
-956330
-956013
-955758
-955365
-954988
-954346
-954314
-954063
-953791
-953462
-953118
-952729
-952889
-952648
-952401
-952187
-951973
-951775
-951757
-951570
-951385
-951394
-951467
-951246
-950975
-950879
-950713
-950708
-950400
-950368
-950379
-950304
-950398
-950183
-949877
-949763
-949583
-949554
-949556
-949417
-949358
-949264
-949209
-949035
-948889
-948611
-948840
-948429
-948356
-948244
-948100
-948029
-947983
-947793
-947443
-947385
-947195
-947093
-946940
-946861
-946768
-946778
-946719
-946537
-946347
-946280
-946178
-946079
-946045
-945968
-946400
-946170
-946083
-945822
-945775
-945725
-945646
-945758
-945650
-945783
-945873
-946037
-946092
-946052
-945823
-945666
-945789
-945905
-946089
-946056
-946162
-946412
-946698
-946687
-946650
-946603
-946748
-946917
-947123
-947280
-947488
-947818
-947962
-948079
-948126
-948234
-948392
-948551
-948548
-948700
-948959
-948948
-949188
-949344
-949389
-949341
-949600
-949592
-949753
-949980
-950106
-950227
-950237
-950252
-950077
-950148
-950269
-950254
-950323
-950028
-950378
-950505
-950488
-950401
-950266
-950204
-950164
-950264
-950218
-950125
-950134
-950239
-950309
-950179
-950091
-950063
-950112
-950079
-949982
-949880
-949983
-950097
-950048
-949867
-949608
-949642
-949461
-949666
-949887
-949929
-949944
-950196
-950334
-950272
-950181
-950396
-950502
-950609
-950679
-950729
-950980
-951280
-951428
-951341
-951367
-951524
-951405
-951800
-951609
-951960
-952211
-952413
-952716
-952681
-952619
-952696
-952961
-953096
-953365
-953404
-953611
-953760
-953853
-953810
-953876
-953953
-954043
-954246
-954295
-954422
-954678
-954857
-954872
-954942
-954849
-955107
-955264
-955442
-955556
-955613
-955914
-956157
-956373
-956298
-956324
-956503
-956584
-956817
-956952
-957028
-957370
-957670
-957782
-957828
-957759
-957840
-958057
-958141
-958429
-958253
-958372
-958636
-958736
-958726
-958690
-958821
-958988
-959190
-959312
-959356
-959584
-959803
-959974
-959964
-960025
-960040
-960106
-960182
-960362
-960409
-960707
-960915
-961043
-960918
-960915
-960989
-961178
-961316
-961390
-961370
-961740
-961917
-962079
-962043
-961956
-962106
-962090
-962296
-962367
-962349
-962549
-962851
-963087
-962983
-962909
-962902
-962978
-963104
-963251
-963473
-963587
-963733
-963948
-963798
-963870
-963857
-964040
-964142
-964187
-964198
-964512
-964690
-964927
-964813
-964662
-964826
-965101
-965169
-965212
-965257
-965417
-965621
-965740
-965659
-965675
-965810
-965928
-966075
-966202
-966156
-966467
-966664
-966677
-966557
-966582
-966580
-966681
-966893
-966983
-966921
-966866
-967258
-967247
-967174
-967147
-967213
-967204
-967275
-967521
-967416
-967642
-967857
-967935
-967815
-967668
-967678
-967910
-967868
-967950
-967948
-968276
-968457
-968529
-968428
-968353
-968368
-968615
-968714
-968830
-968848
-969098
-969395
-969184
-969236
-969228
-969376
-969462
-969687
-969758
-969709
-969889
-970233
-970158
-970198
-970502
-970282
-970426
-970153
-970566
-970553
-970837
-971002
-971020
-971000
-970899
-971090
-971194
-971294
-971466
-971443
-971541
-971786
-971788
-971750
-971744
-971755
-971850
-971831
-971855
-971966
-972093
-972357
-972434
-972297
-972291
-972303
-972565
-972690
-972727
-972709
-973000
-973194
-973234
-973164
-973213
-973302
-973518
-973538
-973664
-973707
-973931
-974246
-974204
-974244
-974092
-974048
-974397
-974398
-974651
-974776
-974909
-975081
-975122
-974986
-975092
-975031
-975143
-975251
-975373
-975367
-975591
-975696
-975743
-975720
-975648
-975670
-975780
-975678
-975694
-975454
-975544
-975643
-975506
-975225
-974806
-974571
-974541
-974176
-973897
-973556
-973314
-973128
-972572
-972115
-971317
-970753
-970252
-969565
-969122
-968759
-968511
-968161
-967479
-966771
-966132
-965647
-965401
-964918
-964389
-963970
-963590
-963374
-962790
-962237
-961599
-961098
-960644
-961133
-960678
-959560
-959159
-958865
-958487
-957985
-957528
-957264
-957109
-956820
-956612
-956460
-956345
-956342
-956038
-955716
-955236
-954888
-954868
-954740
-954511
-954343
-954225
-954314
-954209
-953944
-953532
-953357
-953333
-953096
-952795
-952630
-952518
-952556
-952371
-952142
-951916
-952442
-951790
-951615
-951537
-951239
-951429
-951517
-951327
-950985
-950645
-950506
-950395
-950369
-950333
-950259
-950249
-950353
-950292
-950155
-950072
-950138
-950182
-950119
-950018
-950176
-950164
-949967
-950064
-949963
-949976
-950289
-950548
-950750
-950745
-950703
-950821
-950723
-950770
-950942
-951055
-951247
-951317
-951452
-951629
-951763
-951814
-951793
-951702
-951838
-951883
-952265
-952350
-952554
-952814
-953194
-953275
-953269
-953170
-953405
-953565
-953689
-953793
-953728
-953916
-954012
-953898
-953885
-953745
-953646
-953733
-954237
-953854
-953716
-953818
-953892
-953738
-953566
-953422
-953319
-953326
-953268
-953292
-953225
-952493
-952488
-952576
-952302
-952330
-952565
-952736
-952743
-952552
-952475
-952590
-952753
-952697
-952815
-952833
-952894
-953033
-953046
-952873
-952822
-952947
-953070
-953159
-953327
-953373
-953435
-953482
-953359
-953194
-953154
-953324
-953369
-953510
-953575
-953596
-953766
-954053
-953949
-953867
-953904
-953831
-954111
-954229
-954281
-954345
-954470
-954703
-954710
-954545
-954659
-954717
-954810
-954839
-954963
-954951
-955153
-955178
-955091
-955781
-955167
-955039
-955196
-955241
-955200
-955354
-955454
-955612
-955581
-955531
-955483
-955651
-955630
-955729
-955834
-955894
-956140
-956192
-956146
-956046
-955964
-956123
-956170
-956248
-956424
-956456
-956661
-956675
-956571
-956551
-956615
-956651
-956786
-956912
-956978
-957026
-957231
-957442
-957408
-957067
-957167
-957249
-957329
-957394
-957433
-957544
-957806
-957788
-957779
-957677
-957635
-957615
-957690
-957708
-957874
-957814
-957954
-958071
-957891
-957772
-957706
-957667
-957652
-957612
-957636
-957874
-958008
-958142
-958108
-957829
-957869
-957781
-957908
-957968
-958035
-958156
-958217
-958234
-958133
-957908
-957854
-957864
-957980
-957952
-957902
-957963
-958121
-958101
-958095
-957903
-957747
-957962
-957940
-958036
-957933
-958034
-958135
-958147
-958079
-957873
-957832
-957957
-958074
-958044
-958083
-958113
-958152
-958405
-958018
-958069
-958213
-958367
-958281
-958489
-958472
-958518
-958767
-958835
-958657
-958546
-958541
-958611
-958739
-958861
-958814
-958983
-959231
-959288
-959074
-958918
-958961
-959073
-959092
-959237
-959203
-959244
-959399
-959597
-959443
-959312
-959261
-959407
-959556
-959807
-959829
-959915
-960038
-960112
-959956
-959724
-959890
-959953
-960102
-960154
-960113
-960356
-960508
-960539
-960428
-960262
-960193
-960275
-960383
-960485
-960584
-960697
-960862
-961023
-960663
-960554
-960611
-960714
-960605
-960762
-960740
-960997
-961135
-961160
-961040
-960711
-960850
-960803
-960938
-960917
-961024
-961045
-961311
-961239
-961074
-960965
-961022
-961170
-961195
-961155
-961310
-961341
-961636
-961520
-961471
-961404
-961362
-961473
-961584
-961712
-961704
-961886
-961993
-962054
-961967
-961764
-961850
-961956
-961946
-962046
-962005
-961963
-962066
-961827
-961462
-961033
-960687
-960573
-960253
-959853
-959512
-959143
-958903
-958381
-957572
-956852
-956370
-956082
-955494
-955088
-954411
-953930
-953506
-953039
-952269
-951542
-951085
-950661
-950237
-949701
-949324
-948903
-948684
-948358
-947685
-947284
-946890
-946727
-946335
-946068
-945742
-945427
-945435
-945185
-944795
-944556
-944455
-944407
-944294
-944132
-943971
-944081
-944140
-944081
-943692
-943514
-943374
-943365
-943315
-943317
-943223
-943170
-943353
-943352
-943045
-942772
-942761
-942726
-942816
-942781
-942601
-942710
-942859
-942652
-942403
-942043
-941984
-942043
-941973
-941922
-941714
-941731
-941843
-941751
-941483
-941138
-941013
-940970
-940965
-940829
-940761
-940840
-940839
-940703
-940404
-940144
-939909
-939860
-939782
-939911
-939707
-939762
-939807
-939605
-939254
-939043
-939110
-939174
-939063
-939105
-939066
-939197
-939216
-939157
-938945
-938866
-938903
-938981
-939009
-939117
-939160
-939381
-939744
-939829
-939709
-939660
-939922
-940116
-940345
-940421
-940560
-940807
-941017
-941190
-941107
-941123
-941316
-941487
-941725
-941950
-942046
-942337
-942513
-942655
-942551
-942485
-942561
-942614
-942848
-942862
-942863
-942980
-943266
-943202
-942986
-942815
-942853
-942946
-942997
-942957
-942937
-942993
-943286
-943209
-943100
-942857
-942818
-942988
-943085
-943246
-943136
-943270
-943558
-943447
-943377
-943227
-943356
-943459
-943541
-943651
-943809
-943961
-944343
-944334
-944235
-944239
-944364
-944518
-944702
-944875
-944953
-945138
-945393
-945361
-945291
-945149
-945208
-945335
-945437
-945592
-945735
-945936
-946241
-946183
-946116
-946094
-946138
-946379
-946607
-946605
-946785
-946937
-947158
-947150
-947118
-947091
-947194
-947490
-947620
-947756
-947953
-948201
-948530
-948688
-948727
-948670
-948898
-949197
-949400
-949679
-949763
-950103
-950196
-950315
-950381
-950416
-950583
-950776
-950786
-951080
-951258
-951545
-951825
-951876
-951903
-951708
-952033
-952276
-952319
-952490
-952584
-952890
-953270
-953098
-953095
-953009
-953148
-953443
-953482
-953649
-953680
-953909
-954100
-954184
-954135
-953985
-954260
-954425
-954539
-954797
-954902
-955070
-955494
-955555
-955422
-955319
-955557
-955821
-955922
-956087
-956303
-956566
-956800
-956783
-956517
-956567
-956616
-956928
-957073
-957084
-957229
-957383
-957603
-957611
-957460
-957371
-957650
-957718
-957791
-957874
-957950
-958166
-958353
-958285
-958241
-958127
-958102
-958405
-958430
-958545
-958537
-958773
-958900
-958868
-958762
-958714
-958785
-958956
-959052
-959151
-959212
-959367
-959640
-959591
-959536
-959521
-959566
-959738
-960170
-960425
-960467
-960268
-960129
-960446
-960540
-960727
-960906
-961065
-961205
-961433
-961321
-961058
-961118
-961321
-961553
-961619
-961787
-961904
-962124
-962342
-962168
-962059
-962069
-962181
-962280
-962551
-962627
-962637
-962806
-963084
-962905
-962788
-962624
-962842
-962992
-962987
-963060
-963234
-963367
-963545
-963332
-963334
-963325
-963432
-963604
-963831
-963985
-963965
-964160
-964402
-964430
-964327
-964366
-964609
-964711
-964837
-964936
-965000
-965166
-965481
-965471
-965400
-965334
-965418
-965618
-965822
-965823
-966506
-966363
-966412
-966446
-966310
-966371
-966546
-966682
-966870
-966680
-967048
-967303
-967324
-967346
-967385
-967382
-967536
-967788
-967891
-968058
-968144
-968321
-968408
-968434
-968403
-968311
-968406
-968597
-968750
-968798
-968842
-969061
-969289
-969342
-969188
-969141
-969188
-969379
-969382
-969438
-969488
-969491
-969378
-968939
-968804
-968601
-968499
-968317
-968082
-967858
-967716
-967275
-966755
-966141
-965694
-965225
-964875
-964524
-964118
-963690
-963217
-962727
-962057
-961414
-960842
-960526
-959891
-959604
-959135
-958836
-958496
-958086
-957504
-957037
-956553
-956236
-956089
-955985
-955850
-955668
-955598
-955375
-955115
-954610
-954396
-954184
-954213
-954109
-954038
-954032
-954055
-954043
-953710
-953581
-953416
-953323
-953452
-953410
-953989
-953522
-953575
-953425
-953211
-953002
-952866
-952829
-952908
-952848
-952856
-952974
-953107
-953086
-952856
-952569
-952580
-952623
-952487
-952422
-952529
-952560
-952719
-952877
-952694
-952621
-952386
-952341
-952528
-952540
-952549
-952658
-952624
-952661
-952589
-952419
-952456
-952550
-952447
-952620
-952670
-952681
-952840
-952925
-952693
-952657
-952689
-952702
-952798
-952881
-952928
-953085
-953364
-953465
-953367
-953396
-953516
-953674
-953864
-954025
-954368
-954510
-954848
-955098
-955143
-955077
-955264
-955631
-955776
-956105
-956408
-956496
-956942
-957244
-957229
-957301
-957503
-957948
-958150
-958332
-958531
-958734
-959126
-959262
-959217
-959245
-959327
-959562
-959691
-959785
-959937
-960132
-960330
-960521
-960480
-960282
-960366
-960434
-960482
-960506
-960573
-960731
-960880
-960902
-960630
-960485
-960448
-960420
-960482
-960585
-960551
-960707
-960932
-960854
-960717
-960524
-960641
-960611
-960721
-960706
-960727
-960973
-961035
-961133
-960926
-960759
-960739
-960870
-961079
-961011
-961049
-961287
-961359
-961376
-961354
-961246
-961168
-961395
-961513
-961611
-961592
-961754
-961980
-961975
-961896
-961596
-961643
-961765
-961909
-962020
-962118
-962401
-962705
-962776
-962892
-962827
-962929
-963238
-963362
-963509
-963641
-963905
-964089
-964268
-964167
-964160
-964197
-964348
-964545
-964810
-964952
-965150
-965371
-965489
-965404
-965371
-965473
-965577
-965733
-965883
-966153
-966288
-966546
-966796
-966625
-966703
-966835
-967076
-967164
-967302
-967341
-967513
-967743
-967967
-967856
-967891
-967990
-968202
-968259
-968433
-968571
-968732
-969018
-969053
-969008
-969107
-969123
-969323
-969494
-969568
-969646
-969861
-970100
-970135
-970185
-970105
-970265
-970422
-970504
-970714
-970827
-970990
-971286
-971079
-971191
-971273
-971449
-971589
-971686
-971636
-971698
-972065
-972240
-972357
-972377
-972362
-972401
-972494
-972541
-972651
-972849
-973048
-973342
-973447
-973313
-973266
-973434
-973595
-973819
-973956
-973915
-974211
-974405
-974644
-974579
-974602
-974695
-974879
-974991
-975292
-975108
-975521
-975719
-975985
-975940
-975970
-975969
-975965
-976020
-976257
-976244
-976465
-976634
-976770
-976815
-976867
-976835
-976976
-977063
-977225
-977379
-977537
-977825
-978029
-978033
-978047
-978029
-978088
-978179
-978650
-978416
-978649
-978881
-978864
-978934
-978848
-978953
-979027
-979112
-979935
-979610
-979563
-979774
-979999
-979859
-979786
-979984
-980133
-980237
-980340
-980472
-980698
-981031
-980893
-980805
-980783
-980907
-981045
-981254
-981304
-981345
-981652
-981764
-981856
-981873
-981868
-981934
-982080
-982180
-982140
-982271
-982485
-982779
-982844
-982827
-982826
-982834
-982960
-983088
-983144
-983272
-983487
-983784
-983756
-983730
-983706
-983696
-984455
-984089
-983945
-983869
-983862
-984141
-984136
-984037
-983795
-983883
-983954
-983777
-983637
-983399
-983230
-983175
-982982
-982452
-982087
-981806
-981420
-980980
-980534
-980201
-979841
-979441
-978879
-978351
-977774
-977239
-976761
-976336
-976026
-975582
-975254
-974945
-974325
-973935
-973324
-972880
-972585
-972180
-971783
-971478
-971272
-971136
-970777
-970523
-970095
-969977
-969793
-969624
-969469
-969325
-969239
-969327
-969152
-968988
-969409
-968666
-968557
-968397
-968300
-968203
-968190
-968386
-968223
-968007
-967793
-967714
-967642
-967496
-967449
-967395
-967479
-967473
-967234
-967125
-966950
-966876
-966832
-966792
-966543
-965885
-965887
-965744
-965669
-965546
-965574
-965547
-965438
-965357
-965176
-965070
-965044
-964907
-964869
-964683
-964721
-964952
-964700
-964640
-964351
-964344
-964333
-964351
-964185
-964147
-964191
-964335
-964260
-964177
-964041
-964021
-964040
-963990
-964049
-964066
-964223
-964408
-964494
-964368
-964377
-964536
-964814
-964826
-965029
-965140
-965376
-965602
-965619
-965786
-965722
-966059
-966238
-966523
-966719
-966951
-967230
-967490
-967513
-967577
-967546
-967832
-968010
-968146
-968260
-968324
-968464
-968718
-968877
-968872
-968690
-968962
-968982
-969055
-969231
-969201
-969375
-969543
-969424
-969338
-969185
-969180
-969264
-969295
-969299
-969330
-969457
-969627
-969478
-969317
-969226
-969203
-969165
-969298
-969327
-969304
-969363
-969449
-969281
-969203
-969157
-969151
-969262
-969215
-969252
-969311
-970119
-969837
-969557
-969623
-969484
-969571
-969721
-969724
-969759
-969730
-969833
-970075
-970031
-970033
-969991
-969996
-970133
-970270
-970393
-970403
-970435
-970713
-970717
-970694
-970636
-970800
-970848
-971004
-971014
-971153
-971386
-971427
-971417
-971347
-971453
-971483
-971601
-971716
-971805
-972019
-972331
-972076
-972347
-972296
-972495
-972550
-972700
-972870
-973074
-973071
-973426
-973574
-973577
-973651
-973694
-973780
-974037
-974205
-974278
-974547
-974671
-974985
-975002
-975139
-975142
-975311
-975383
-975583
-975768
-975897
-976084
-976351
-976418
-976433
-976403
-976559
-976848
-976962
-976934
-977127
-977086
-977331
-977311
-977140
-977181
-977266
-977332
-977450
-977563
-977627
-977946
-977971
-977986
-978037
-978125
-978114
-978199
-978305
-978320
-978481
-978720
-978793
-978788
-978767
-978754
-978816
-979076
-979132
-979161
-978995
-979325
-979556
-979539
-979506
-979607
-979671
-979645
-979855
-980616
-980247
-980348
-980394
-980345
-980366
-980369
-980516
-980626
-980718
-980661
-980739
-980934
-981144
-981034
-981354
-981108
-981096
-981171
-981181
-981298
-981357
-981511
-981512
-981459
-981479
-981584
-981563
-981642
-981653
-981767
-981901
-982077
-981918
-981774
-981814
-982010
-981686
-982026
-982053
-982205
-982428
-982485
-982521
-982339
-982375
-982416
-982592
-982636
-982646
-982756
-983093
-983095
-983136
-982896
-983062
-983116
-983234
-983267
-983269
-983397
-983594
-983634
-983642
-983452
-983524
-983642
-984017
-983747
-983827
-983841
-984100
-984125
-984178
-984057
-984082
-984276
-984356
-984366
-984476
-984455
-984629
-984830
-984418
-984614
-984690
-984830
-984929
-984933
-984906
-985151
-985301
-985330
-985328
-985275
-985321
-985405
-985397
-985416
-985482
-985663
-985689
-985824
-985832
-985681
-985737
-985833
-986024
-986070
-986138
-986236
-986406
-986591
-986541
-986431
-986590
-986747
-986720
-986892
-986887
-986990
-987253
-988043
-987507
-987282
-987348
-987476
-987527
-987607
-987570
-987672
-987929
-987848
-987681
-987770
-987669
-987584
-987199
-987223
-986997
-986963
-986692
-986315
-985897
-985308
-985004
-984562
-983998
-983514
-982976
-982595
-982164
-981552
-980710
-979985
-979477
-978880
-978305
-977709
-977143
-976652
-976290
-975889
-975173
-974590
-974091
-973794
-973399
-972973
-972653
-972295
-972196
-971893
-971495
-970968
-970745
-970693
-970518
-970201
-969948
-969869
-969929
-969790
-969597
-969273
-969047
-969079
-968976
-968871
-968658
-968647
-968736
-968660
-968499
-968268
-967966
-968026
-968053
-968028
-967960
-968003
-967949
-967860
-967683
-967485
-967501
-967531
-967320
-967222
-967179
-967267
-967256
-967136
-967011
-966829
-966568
-966586
-966510
-966357
-966260
-966285
-966364
-966363
-966174
-965915
-965881
-965746
-965744
-965697
-965561
-965631
-965851
-965614
-965415
-965277
-965257
-965277
-965219
-965229
-965159
-965076
-965311
-965374
-965076
-964902
-964889
-965011
-965072
-964992
-964998
-965049
-965171
-965357
-965253
-965067
-965045
-965307
-965333
-965545
-965562
-965808
-966138
-966211
-966228
-966244
-966284
-966484
-966658
-966805
-966967
-967115
-967438
-967586
-967593
-967649
-967684
-967930
-968089
-968130
-968304
-968476
-968752
-968768
-968770
-968777
-968673
-968554
-968811
-968925
-968904
-969006
-969245
-969272
-969140
-969036
-969893
-969314
-969053
-969121
-969011
-968998
-969269
-969204
-968996
-968882
-968802
-968789
-968710
-968703
-968678
-968513
-968845
-968890
-968839
-968658
-968579
-968757
-968812
-968813
-968698
-968809
-968922
-969028
-968862
-968681
-968684
-968729
-968874
-968917
-968955
-969093
-969287
-969335
-969150
-969218
-969312
-969347
-969444
-969499
-969417
-969565
-969772
-969786
-969735
-969806
-969830
-970024
-970076
-970109
-970023
-970520
-970503
-970406
-970563
-970739
-970672
-970823
-970905
-971105
-971282
-971284
-971209
-971109
-971186
-971425
-971476
-971561
-971586
-971803
-971970
-971910
-971886
-971956
-971988
-972058
-972270
-972297
-972316
-972621
-972778
-972872
-972753
-972796
-972986
-972997
-973029
-973144
-973391
-973531
-973720
-973776
-973749
-973699
-973867
-974025
-974074
-974171
-974160
-974422
-974672
-974707
-974572
-974680
-974720
-974915
-974990
-975078
-975072
-975323
-975468
-975425
-975431
-975314
-975482
-975555
-975580
-975522
-975594
-975736
-975954
-976000
-975900
-975831
-975828
-975947
-976098
-976107
-976057
-976277
-976496
-976464
-976438
-976365
-976364
-976435
-976481
-976580
-976513
-976752
-976772
-976845
-976766
-976608
-976774
-976790
-976962
-977075
-977054
-977087
-977327
-977260
-977272
-977226
-977399
-977380
-977398
-977514
-977587
-977703
-977841
-977868
-977972
-977811
-977855
-977866
-977960
-978074
-978065
-978283
-978403
-978370
-978289
-978342
-978395
-978477
-978405
-978639
-978542
-978809
-978722
-978869
-978855
-978764
-978796
-978951
-978952
-978964
-979149
-979337
-979421
-979364
-979353
-979323
-979410
-979474
-979539
-979606
-979673
-979879
-980074
-980016
-979986
-980067
-980209
-980217
-980298
-980384
-980553
-980710
-980820
-980932
-980912
-980786
-981019
-981084
-981194
-981235
-981346
-981586
-981816
-981715
-981681
-981551
-981805
-982058
-982015
-982229
-982241
-982438
-982566
-982536
-982618
-982564
-982571
-982683
-982811
-982820
-983033
-983051
-983271
-983385
-983405
-983212
-983328
-983523
-983466
-983664
-983645
-983859
-983923
-983913
-983832
-983847
-983992
-983960
-984171
-984250
-984200
-984418
-984587
-984475
-984531
-984439
-984483
-984614
-984786
-984740
-984809
-984973
-985056
-985074
-984988
-984937
-985077
-985130
-985159
-985303
-985309
-985406
-985653
-985678
-985586
-985634
-985576
-985783
-985863
-985574
-985934
-986069
-986208
-986234
-986195
-986244
-986275
-986498
-986469
-986527
-986542
-986751
-986821
-986788
-986663
-986587
-986486
-986583
-986343
-986435
-986161
-986162
-985971
-985686
-985222
-984717
-984507
-984098
-983706
-983261
-982852
-982482
-982021
-981480
-980838
-980197
-979699
-979179
-978779
-978238
-977608
-977354
-976925
-976345
-975760
-975109
-974733
-974394
-973971
-973495
-973238
-973052
-972827
-972393
-971984
-971711
-971529
-971318
-971083
-970783
-970679
-970732
-970500
-970245
-969956
-969726
-969622
-969491
-969498
-969372
-969295
-969366
-969284
-969172
-968923
-968533
-968606
-968628
-968478
-968399
-968437
-968361
-968287
-968008
-967979
-967878
-967965
-967816
-967781
-967683
-967876
-967741
-967559
-967386
-967221
-967211
-967144
-967157
-967028
-967038
-967078
-967073
-967015
-966872
-966762
-966704
-966643
-966635
-966480
-966499
-966519
-966591
-966512
-966440
-966303
-966083
-966188
-966130
-966157
-966081
-966189
-966416
-966390
-966292
-966184
-966147
-966098
-966054
-966210
-966303
-966461
-967393
-967001
-967130
-967060
-967138
-967062
-967166
-967189
-967302
-967550
-967945
-968093
-968358
-968540
-968658
-968598
-968619
-968795
-968929
-969169
-969406
-969685
-969922
-969919
-970024
-970132
-970075
-970162
-970249
-970545
-970764
-970918
-971004
-971195
-971233
-971107
-971064
-971115
-971046
-971178
-971443
-971665
-971544
-971608
-971514
-971468
-971375
-971387
-971312
-971557
-971779
-971859
-971813
-971627
-971563
-971558
-971591
-971636
-971694
-971768
-971850
-971888
-971958
-971728
-971807
-971850
-971842
-971885
-971919
-972045
-972225
-972200
-972244
-972250
-972236
-971989
-972333
-972457
-972579
-972828
-973041
-972983
-972901
-973085
-973216
-973356
-973264
-973366
-973588
-973834
-973931
-973987
-974050
-974055
-974173
-974303
-974516
-974658
-974900
-975126
-975385
-975499
-975458
-975522
-975585
-975771
-975813
-976022
-976220
-976357
-976500
-976657
-976664
-976740
-976812
-976905
-977061
-977284
-977486
-977836
-977962
-977903
-977886
-977989
-978121
-978315
-978365
-978596
-978732
-979059
-979173
-979220
-979244
-979325
-980042
-979746
-979361
-979745
-980020
-980187
-980362
-980375
-980431
-980482
-980378
-980351
-980698
-980958
-981175
-981367
-981439
-981397
-981484
-981564
-981645
-981755
-981940
-981989
-982311
-982463
-982544
-982488
-982462
-982245
-982336
-982751
-982845
-982895
-983177
-983422
-983434
-983422
-983419
-983496
-983721
-983823
-983877
-983907
-984154
-984394
-984483
-984495
-984499
-984467
-984380
-985236
-984859
-984749
-984663
-984813
-985106
-985169
-985088
-985220
-985271
-985320
-985397
-985463
-985690
-985934
-986112
-986061
-985957
-986358
-986485
-986750
-986737
-986736
-986800
-986741
-986629
-986924
-987101
-987127
-987287
-987459
-987472
-987584
-987548
-987666
-987800
-987817
-987919
-987949
-988143
-988296
-988428
-988413
-988177
-988454
-988662
-988704
-988723
-988920
-988969
-989125
-989320
-989232
-989290
-989244
-989462
-989404
-989455
-989580
-989735
-989962
-990095
-990064
-989939
-990011
-990156
-990299
-990361
-990333
-990538
-990719
-990830
-990837
-990830
-990911
-990939
-991067
-991109
-991228
-991292
-991679
-991647
-991724
-991576
-991672
-991912
-991929
-992018
-992051
-992141
-992394
-992464
-992506
-992475
-992440
-992463
-993261
-992774
-992689
-992849
-992970
-993105
-993024
-993038
-993041
-993103
-993247
-993232
-993479
-993642
-993879
-993744
-993758
-993689
-993797
-993875
-993919
-994122
-994395
-994541
-994474
-994619
-994511
-994550
-994654
-994814
-994849
-994962
-995279
-995369
-995484
-995405
-995276
-995335
-995124
-995352
-995445
-995560
-995725
-995968
-996058
-996024
-995990
-995926
-996110
-996017
-996122
-996145
-996418
-996593
-996769
-996731
-996627
-996676
-996869
-996815
-996877
-997052
-997294
-997463
-997475
-997484
-997467
-997607
-997627
-997736
-997867
-997738
-997968
-998032
-997979
-997897
-997569
-997535
-997269
-997040
-996881
-996681
-996387
-996174
-996724
-995563
-994745
-994270
-993985
-993351
-992948
-992384
-991973
-991740
-991060
-990486
-989938
-989323
-988916
-988489
-987926
-987533
-987072
-986937
-986462
-986083
-985453
-985178
-984817
-984478
-984323
-984072
-983881
-983832
-983472
-983190
-982941
-983392
-982792
-982470
-982311
-982019
-981931
-981718
-981745
-981606
-981395
-981306
-981335
-981237
-981123
-981076
-981080
-981864
-981185
-980879
-980782
-980676
-980623
-980496
-980392
-980434
-980343
-980468
-980210
-980217
-980023
-979976
-979928
-979861
-979893
-979820
-979920
-979917
-979868
-979696
-979569
-979517
-979158
-979401
-979393
-979258
-980011
-979609
-979436
-980085
-979211
-979065
-979133
-979104
-979101
-979052
-979207
-979378
-979203
-979205
-979080
-979051
-979085
-979193
-979203
-979236
-979461
-979655
-979664
-979643
-979711
-979935
-980027
-980063
-980178
-980430
-980684
-980833
-980946
-981098
-981070
-981124
-981259
-981236
-981327
-981534
-981818
-982008
-982092
-982139
-982200
-982245
-982490
-982635
-982716
-982773
-982992
-983243
-983139
-983172
-983121
-983090
-983239
-983277
-983257
-983281
-984153
-983674
-983441
-983268
-983193
-983287
-983170
-983296
-983251
-983307
-983329
-983358
-983284
-983262
-983160
-983211
-983120
-982991
-983078
-983126
-983194
-983114
-982990
-982920
-982818
-982672
-982822
-982710
-982773
-982792
-982563
-982866
-982841
-982760
-982801
-982840
-982853
-982829
-982977
-982892
-982947
-983238
-983271
-983034
-982998
-983076
-983173
-983328
-983324
-983434
-983582
-983639
-983579
-983629
-983578
-983563
-983616
-983719
-983739
-983763
-984024
-984173
-984115
-984143
-984025
-984120
-984310
-984393
-984333
-984493
-984579
-984735
-984714
-984676
-985083
-984916
-984831
-984905
-984996
-985073
-985208
-985330
-985418
-985334
-985215
-985277
-985421
-985496
-985625
-985576
-985765
-986015
-985991
-985978
-985984
-985857
-986097
-986100
-986095
-986241
-986414
-986623
-986600
-986627
-986581
-986624
-986834
-986909
-987004
-987182
-987322
-987478
-987280
-987431
-987497
-987535
-987655
-987763
-987705
-987959
-988107
-988199
-988202
-988311
-988285
-988172
-988239
-988438
-988456
-988606
-988826
-988937
-988816
-988681
-988747
-988853
-989016
-989064
-989047
-989061
-989254
-989432
-989414
-989295
-989346
-989513
-989542
-989478
-989560
-989657
-989716
-989915
-989873
-989746
-989728
-989783
-989869
-990044
-989993
-990062
-990235
-990386
-990260
-990116
-990107
-990034
-990197
-990435
-990534
-990581
-990759
-990908
-990759
-990636
-990705
-990765
-990897
-990820
-990913
-991035
-991130
-991368
-991163
-991117
-991039
-991170
-991145
-991178
-991158
-991355
-992165
-991926
-991750
-991514
-991573
-991538
-991642
-991745
-992394
-992176
-992331
-992375
-992016
-992230
-992134
-992348
-992537
-992450
-992494
-992625
-992770
-992969
-992801
-992694
-992720
-993113
-993383
-993368
-993342
-993382
-993459
-993632
-993457
-993485
-993543
-993630
-993676
-993726
-993617
-993644
-993592
-993709
-993738
-993817
-994033
-994095
-993949
-994014
-993976
-994059
-994165
-994323
-994557
-994678
-994843
-995070
-995109
-995016
-994948
-994935
-995086
-995111
-995319
-995483
-995566
-995488
-995509
-995473
-995660
-995670
-995756
-995836
-996067
-996251
-996377
-996215
-996189
-996280
-996370
-996368
-996413
-996487
-996552
-996829
-996873
-996886
-996814
-996825
-996827
-996919
-996965
-996967
-997028
-997280
-997310
-997317
-997292
-997301
-997341
-997300
-997459
-997377
-997460
-997427
-997476
-997178
-996937
-996736
-996717
-996423
-996201
-995709
-995513
-995230
-994765
-994080
-993489
-993063
-992521
-992102
-991712
-991069
-990699
-990321
-989747
-989049
-988363
-987818
-987434
-986854
-986460
-985805
-985515
-985182
-984849
-984233
-983800
-983475
-983083
-982746
-982516
-982106
-981836
-981702
-981603
-981152
-981364
-980770
-980500
-980264
-980023
-979884
-979841
-979807
-979612
-979243
-978926
-978918
-978736
-978610
-978490
-978373
-978491
-978541
-978645
-978314
-978132
-977929
-977810
-977728
-977821
-977729
-977670
-977740
-977593
-977371
-977320
-977209
-977169
-977035
-976713
-976725
-976796
-976734
-976658
-976511
-976302
-976118
-976169
-976101
-976024
-975808
-975812
-975894
-975705
-975430
-975265
-975177
-975046
-975070
-975073
-974998
-974920
-975081
-974996
-974731
-974419
-974363
-974364
-974392
-974302
-974186
-974176
-974351
-974283
-974085
-973922
-973904
-973996
-973987
-974143
-974057
-974356
-974511
-974598
-975312
-974797
-974687
-974798
-974969
-975107
-975249
-975387
-975669
-975898
-975940
-975949
-976053
-976140
-976374
-976430
-976585
-976759
-977080
-977265
-977087
-976975
-976953
-977263
-977176
-977383
-977301
-977453
-977739
-977733
-977569
-977528
-977404
-977459
-977453
-977381
-977262
-977377
-977572
-977463
-977349
-977205
-977215
-977116
-977009
-976961
-976996
-976992
-977129
-977113
-976864
-976757
-976717
-976643
-976664
-976646
-976661
-976623
-976663
-976652
-976476
-976449
-976357
-976393
-976371
-976869
-976641
-976531
-976771
-976763
-976677
-976480
-977007
-976797
-976621
-976631
-976676
-976767
-976991
-977022
-976978
-976943
-976966
-976876
-977027
-977180
-977203
-977284
-977417
-977471
-977343
-977386
-977363
-977530
-977502
-977703
-977661
-977863
-978036
-978053
-978116
-978068
-978136
-978203
-978262
-978402
-978358
-978684
-978932
-978906
-978954
-978914
-978924
-978987
-979097
-979265
-979253
-979351
-979577
-979766
-979741
-980366
-979910
-979863
-979871
-980642
-980197
-980321
-980525
-980540
-980593
-980596
-980579
-980658
-980801
-980951
-980892
-980981
-981824
-981479
-981213
-981135
-981133
-980927
-981157
-981296
-981163
-981505
-981807
-981719
-981668
-981624
-981680
-981935
-981955
-982028
-982006
-982158
-982424
-982370
-982319
-982204
-982232
-982484
-982454
-982496
-982570
-982641
-982863
-982851
-982724
-982738
-982827
-983010
-982955
-983046
-983149
-983325
-983460
-983476
-983449
-983332
-983382
-983377
-983405
-983500
-983545
-983748
-983996
-983845
-983808
-983826
-983875
-983969
-984004
-984167
-984124
-984312
-984459
-984422
-984362
-984329
-984269
-984397
-984567
-984568
-984477
-984678
-984913
-984809
-984737
-984734
-984669
-984770
-984867
-985029
-985062
-985201
-985192
-985335
-985352
-985226
-985310
-985422
-985465
-985620
-985746
-985830
-985832
-985794
-985676
-985818
-985975
-985990
-986058
-986125
-986308
-986477
-986368
-986316
-986307
-986439
-986583
-986584
-986615
-986754
-986792
-986976
-987017
-986644
-986865
-986934
-987105
-987249
-987236
-987261
-987504
-987790
-987702
-987567
-987514
-987668
-987820
-988496
-988033
-988029
-988171
-988386
-988385
-988134
-988100
-988125
-988213
-988297
-988509
-988455
-988697
-988870
-988722
-988658
-988627
-988613
-988821
-988826
-988961
-989022
-989151
-989301
-989207
-989155
-989055
-989257
-988963
-989215
-989353
-989447
-989602
-989830
-989844
-989793
-989591
-989728
-989842
-989802
-989900
-989938
-990073
-990302
-990206
-990066
-989921
-989940
-990127
-990077
-990368
-989963
-989865
-989817
-989512
-989121
-988881
-988545
-988257
-987825
-987466
-986898
-986534
-986229
-985650
-985030
-984332
-983831
-983420
-982866
-982207
-981577
-981187
-980806
-980176
-979422
-978900
-978365
-978013
-977602
-977078
-976657
-976319
-976094
-975569
-975089
-974731
-974329
-974121
-973917
-973655
-973384
-973181
-973015
-972725
-972431
-972146
-972057
-971941
-971771
-971599
-971513
-971386
-971376
-971043
-970743
-970381
-970355
-970141
-970127
-969893
-969703
-969818
-969751
-969459
-969189
-969162
-968855
-968904
-968808
-968601
-968627
-968572
-968375
-968152
-967845
-967649
-967527
-967553
-967479
-967369
-967343
-967280
-967279
-967077
-966785
-966587
-966394
-966490
-966301
-966311
-966122
-966062
-966093
-965810
-965695
-965494
-965406
-965382
-965267
-965273
-964932
-965064
-965119
-964908
-964771
-964647
-964577
-964407
-964378
-964375
-964274
-964404
-964470
-964298
-964099
-964080
-963941
-964070
-964224
-964203
-964296
-964438
-964616
-964639
-964474
-964547
-964715
-964769
-964991
-965014
-965174
-965398
-965503
-965588
-965624
-965667
-965683
-965792
-965835
-965867
-965982
-966260
-966251
-966243
-966052
-966039
-966035
-966104
-966028
-965961
-966045
-966137
-966087
-965932
-965801
-965778
-965774
-965733
-965812
-965697
-965572
-965679
-965574
-965413
-965186
-965084
-965008
-964926
-964820
-964889
-964854
-965004
-964966
-964540
-964458
-964484
-964666
-964637
-964604
-964360
-964409
-964407
-964367
-964477
-964377
-964412
-964540
-964582
-964436
-964264
-964237
-963978
-964117
-964190
-964122
-964290
-964417
-964460
-964289
-964212
-964133
-964205
-964314
-964306
-964328
-964290
-964479
-964696
-964604
-964601
-964602
-964727
-964742
-964791
-964805
-964877
-965081
-965170
-965081
-965021
-965057
-965164
-965324
-965421
-965540
-965683
-965807
-965596
-965502
-965727
-965790
-965812
-965861
-965856
-966149
-966155
-966156
-966089
-966131
-966195
-966313
-966382
-966364
-966571
-966744
-966878
-966819
-966716
-966661
-966686
-966733
-966739
-966644
-966761
-966970
-967075
-966904
-966844
-966979
-967315
-967138
-967216
-967356
-967561
-967791
-967737
-967667
-967498
-967432
-967524
-967535
-967576
-967612
-967622
-967848
-968028
-967948
-967857
-967858
-968123
-967969
-968063
-968239
-968322
-968547
-968527
-968508
-968309
-968285
-969303
-968810
-968635
-968709
-968897
-969168
-969142
-969065
-969075
-968985
-969193
-969300
-969270
-969306
-969448
-969595
-969699
-969829
-969823
-969911
-970072
-970279
-970373
-970475
-970669
-971014
-971058
-971143
-971110
-971268
-971443
-971515
-971577
-971755
-971837
-971967
-972085
-971990
-971866
-971971
-971982
-972229
-972300
-972386
-972624
-973450
-973003
-972875
-972743
-972670
-972830
-972829
-972871
-972964
-973076
-973340
-973386
-973315
-973222
-973372
-973508
-973588
-973715
-973730
-973814
-974084
-974289
-974191
-974044
-974016
-974174
-974360
-974402
-974603
-974721
-974947
-974983
-974888
-974873
-974753
-974909
-975007
-975115
-975077
-975277
-975494
-975602
-975385
-975288
-975370
-975532
-975557
-975611
-975709
-975808
-975996
-975999
-976035
-976043
-975987
-976191
-976214
-976206
-976356
-976445
-976535
-976530
-976390
-976285
-975952
-976180
-976188
-976205
-975975
-976030
-976129
-976131
-975970
-975882
-976156
-976216
-976359
-976411
-976464
-976722
-976817
-976750
-976696
-976706
-976800
-976759
-976802
-976798
-976767
-976984
-977172
-977092
-977020
-976901
-976849
-976951
-976848
-976722
-976578
-976624
-976569
-976359
-975834
-975422
-975062
-974829
-974524
-974078
-973569
-973324
-973038
-972508
-971856
-971146
-970549
-970089
-969594
-969783
-969004
-968421
-967931
-967564
-966908
-966283
-965626
-965075
-964647
-964104
-963669
-963456
-963201
-962741
-962202
-961802
-961376
-961127
-960929
-960573
-960371
-960181
-960082
-959845
-959461
-959118
-958927
-958825
-958720
-958515
-958449
-958446
-958401
-958283
-958036
-957715
-957605
-957561
-957412
-957195
-957248
-957330
-957148
-956854
-956640
-956361
-956325
-956210
-956098
-955812
-955904
-955804
-955643
-955342
-955093
-954938
-954919
-954724
-954601
-954262
-954166
-954318
-953883
-953774
-953516
-953275
-953211
-953101
-952781
-952634
-952579
-952586
-952309
-952085
-951808
-951801
-951601
-951541
-951396
-951223
-951215
-951336
-951107
-950959
-950667
-950544
-950625
-950528
-950379
-950374
-950349
-950515
-950444
-950315
-950082
-950132
-950257
-950252
-950205
-950144
-950307
-950498
-950490
-950457
-950281
-950389
-950471
-950605
-950645
-950678
-950945
-951056
-951053
-951111
-951100
-951160
-951152
-951155
-951201
-951220
-951370
-951462
-951350
-951302
-951059
-951018
-951152
-951058
-951074
-950797
-950915
-950983
-950895
-950608
-950537
-950651
-950594
-950271
-950325
-950321
-950345
-950407
-950321
-950053
-949905
-949749
-949682
-949728
-949729
-949498
-949536
-949727
-949487
-949413
-949175
-949057
-949125
-948985
-948995
-948845
-948923
-949178
-949047
-948787
-948734
-948695
-948690
-948703
-948619
-948497
-948755
-948862
-948711
-948662
-948483
-948531
-948473
-948461
-948408
-948543
-948577
-948659
-948999
-948697
-948567
-948458
-948514
-948532
-948632
-948563
-948766
-949003
-948923
-948896
-948737
-948834
-948884
-948974
-949065
-949148
-949384
-949429
-949448
-949405
-949364
-949336
-949657
-949658
-949637
-949737
-949896
-950076
-950088
-950173
-950327
-950369
-950456
-950522
-950622
-950862
-951095
-951084
-951116
-950949
-951114
-951338
-951417
-951406
-951302
-951555
-951790
-951873
-951840
-951850
-951928
-952093
-952227
-952249
-952241
-952390
-952610
-952621
-952489
-952423
-952471
-952600
-952731
-952765
-952925
-953084
-953245
-953168
-953138
-952987
-953124
-953207
-953216
-953341
-953268
-953439
-953645
-953795
-953557
-953560
-953676
-953713
-953866
-953989
-954033
-954079
-954354
-954310
-954258
-954268
-954471
-954500
-954616
-954343
-954606
-955001
-955161
-955142
-955034
-954830
-954977
-955131
-955074
-955104
-955149
-955315
-955380
-955373
-955386
-955253
-955275
-955391
-955431
-955521
-955617
-955837
-955890
-955843
-955935
-955765
-955878
-955994
-955985
-955991
-956052
-956343
-956457
-956446
-956368
-956360
-956496
-956493
-956610
-956669
-956817
-956982
-957872
-957353
-957248
-957022
-957741
-957334
-957294
-957265
-957372
-957499
-957737
-957674
-957756
-957698
-957774
-957800
-957962
-957948
-958008
-958059
-958248
-958241
-958225
-958273
-958332
-958356
-958338
-958480
-958614
-958746
-958776
-958598
-958747
-958802
-958804
-958958
-959102
-959087
-959273
-959449
-959488
-959630
-960302
-959925
-959899
-959964
-961003
-960576
-960538
-960666
-960707
-960749
-960782
-960843
-960915
-961137
-961267
-961398
-961564
-961916
-962553
-962291
-962188
-962276
-962398
-962615
-962612
-962804
-962993
-963221
-963422
-963387
-963457
-963355
-963527
-963483
-963639
-963882
-963989
-964298
-964565
-964586
-964533
-964670
-964834
-965004
-965034
-965059
-965124
-965082
-965509
-965601
-965587
-965540
-965715
-965785
-965876
-965933
-966000
-966025
-966198
-966195
-966090
-966020
-965996
-965845
-965756
-965752
-965615
-965620
-965456
-965080
-964726
-964331
-963966
-963659
-963952
-962985
-962620
-962196
-961828
-961217
-960446
-960023
-959408
-958878
-958470
-958022
-957639
-957224
-956754
-956153
-955682
-955137
-954686
-954366
-953984
-953694
-953303
-953124
-952882
-952522
-952095
-951628
-951385
-951181
-951046
-950750
-950717
-951068
-950638
-950245
-949923
-949744
-949594
-949436
-949449
-949465
-949417
-949111
-949229
-949198
-949031
-948942
-948944
-948846
-948831
-948754
-948627
-948763
-948785
-948562
-948253
-947871
-947896
-947817
-947603
-947493
-947212
-947306
-947222
-946801
-946475
-946133
-946051
-945918
-945753
-945495
-945536
-945496
-945417
-945065
-944672
-944487
-944495
-944363
-944149
-944066
-944027
-944180
-943961
-943829
-943551
-943475
-943625
-943328
-943445
-943459
-943659
-943783
-943885
-943576
-943455
-943422
-943525
-943478
-943618
-943468
-943607
-943867
-943820
-943805
-943651
-943729
-944041
-944109
-944308
-944360
-944608
-944858
-944974
-944914
-944775
-945071
-945250
-945268
-945499
-945699
-945816
-946047
-946343
-946176
-946219
-946402
-946601
-946649
-946937
-946934
-946915
-947327
-947552
-947415
-947372
-947464
-947473
-947511
-947575
-947632
-947707
-947840
-947857
-947858
-947749
-947393
-947602
-947816
-947870
-947902
-948001
-948057
-948060
-948005
-947789
-947847
-947831
-947840
-947920
-947933
-948014
-948214
-948327
-948226
-948172
-948195
-948320
-948515
-948634
-948695
-948874
-949226
-949283
-949278
-949234
-949302
-949499
-949656
-949692
-949905
-950170
-950472
-950726
-950698
-950780
-950877
-951036
-951298
-951500
-951579
-951768
-951995
-952357
-952348
-952388
-952607
-952752
-952965
-953142
-953350
-953561
-953823
-954010
-954017
-954183
-954450
-954613
-954804
-955127
-955293
-955604
-955784
-955933
-955980
-956132
-956338
-956947
-956884
-956874
-957031
-957291
-957706
-957896
-957903
-958135
-958310
-958590
-958801
-958857
-958793
-959283
-959624
-959604
-959591
-959543
-959501
-959655
-959700
-959846
-960064
-960345
-960611
-960850
-960776
-960886
-960902
-961090
-961261
-961389
-961370
-961578
-961845
-961834
-961885
-961867
-961891
-962125
-962138
-962125
-962259
-962485
-962658
-962569
-962586
-962411
-962527
-962595
-962778
-962788
-962959
-963121
-963259
-963457
-963455
-963425
-963348
-963475
-963662
-963719
-963821
-963939
-964159
-964386
-964513
-964437
-964403
-964563
-964674
-964709
-964918
-965133
-965447
-965460
-965450
-965387
-965471
-965516
-965638
-965773
-965828
-965884
-966051
-966083
-966029
-966160
-966226
-966587
-966745
-966941
-967034
-967296
-967529
-967522
-967642
-967598
-967629
-967750
-968345
-968321
-968394
-968625
-968776
-969015
-969317
-969411
-969596
-970020
-970160
-970432
-970619
-970729
-970931
-971134
-971092
-971050
-971156
-971352
-971474
-971638
-971756
-971790
-972096
-972040
-972091
-972044
-971916
-972127
-972054
-972207
-972175
-972287
-972360
-972272
-972122
-971927
-971946
-972043
-971949
-971874
-971887
-971980
-971952
-971927
-971875
-971603
-971512
-971526
-971506
-971445
-971450
-971530
-971572
-971618
-971450
-971242
-971317
-971341
-971311
-971262
-971299
-971374
-971632
-971541
-971510
-971428
-971613
-971763
-971910
-971888
-972009
-972278
-972415
-972478
-972552
-972526
-972649
-972888
-973071
-973170
-974142
-974096
-974270
-974359
-974376
-974363
-974368
-974504
-974713
-974588
-974468
-974573
-974616
-975408
-975142
-975347
-975382
-975603
-975857
-975891
-975760
-975849
-976111
-976336
-976489
-976738
-976856
-977091
-977431
-977461
-977358
-977482
-977602
-977537
-977661
-977669
-977593
-977552
-977548
-977295
-976943
-976658
-976077
-976109
-975823
-975512
-975200
-974823
-974572
-974105
-973603
-973032
-972672
-972349
-971942
-971526
-971170
-970807
-970448
-969901
-969420
-968901
-968622
-968292
-967775
-967437
-967025
-966781
-966577
-966106
-965696
-965384
-965099
-964859
-964655
-964379
-964136
-963826
-963772
-963505
-963105
-962930
-962764
-962607
-962504
-962446
-962367
-962351
-962449
-962171
-962062
-961805
-961814
-961836
-961696
-961435
-961259
-961325
-961253
-961043
-960693
-960518
-960506
-960360
-960323
-960107
-960063
-959968
-959978
-959784
-959521
-959394
-959300
-959325
-959126
-959118
-959056
-958920
-958832
-958639
-958393
-958088
-957957
-957941
-957764
-957672
-957551
-957515
-957685
-957349
-957089
-956887
-956762
-956719
-956586
-956717
-956615
-956646
-956675
-956431
-956285
-956236
-956169
-956363
-956435
-956585
-956565
-956708
-956910
-956875
-956976
-956811
-957092
-957344
-957412
-957594
-957663
-957854
-958046
-958284
-958076
-957891
-958105
-958291
-958253
-958500
-958459
-958626
-958803
-958707
-958626
-958550
-958583
-958660
-958634
-958719
-958649
-958303
-958116
-958023
-957981
-957940
-958070
-958255
-958072
-958148
-958056
-957867
-957876
-958110
-958434
-958592
-958816
-958578
-958436
-958083
-957985
-958008
-957899
-957763
-957641
-957723
-957908
-957741
-957583
-957586
-957595
-957511
-957497
-957507
-957628
-957679
-957851
-957562
-957420
-957321
-957259
-957398
-957452
-957395
-957457
-957577
-957784
-957724
-957765
-957684
-957886
-958342
-958503
-958802
-958975
-959181
-959613
-959649
-959650
-959839
-960027
-960262
-960497
-960709
-960855
-961176
-961315
-961309
-961357
-961204
-961386
-961803
-961975
-962079
-962163
-962521
-962673
-962742
-962785
-962714
-962928
-963342
-963652
-963813
-963969
-964299
-964553
-964585
-964715
-964895
-965141
-965340
-965534
-965663
-965887
-966114
-966408
-966411
-966412
-966608
-966796
-967024
-967247
-967404
-967498
-967609
-967816
-967662
-967873
-968003
-968177
-968470
-968690
-968659
-969202
-969642
-969835
-969816
-969624
-969716
-969954
-970107
-970156
-970269
-970254
-970539
-970535
-970410
-970451
-970359
-970541
-970683
-970788
-970912
-971092
-971323
-971420
-971374
-971370
-972395
-972000
-972057
-972234
-972313
-972637
-972888
-973015
-972934
-972890
-972990
-973280
-973453
-973716
-973802
-974023
-974435
-974553
-974600
-974475
-974512
-974597
-974767
-974827
-974979
-975131
-975343
-975437
-975329
-975297
-975317
-975516
-975644
-975911
-975836
-976013
-976189
-976280
-976232
-976035
-976145
-976328
-976391
-976513
-976563
-976674
-976907
-977097
-977006
-976815
-976906
-977189
-977342
-977468
-977626
-977752
-978020
-978071
-977904
-977771
-977821
-977982
-978159
-978278
-978358
-978606
-978732
-978794
-978680
-978544
-978522
-978767
-978938
-979120
-979392
-979685
-979967
-980125
-980116
-979975
-980229
-979732
-979964
-980492
-980959
-981290
-981471
-981339
-981107
-981012
-981097
-981142
-981242
-981384
-981385
-981595
-981851
-981931
-981665
-981378
-981379
-981527
-981690
-981750
-981950
-982113
-982305
-982196
-981978
-981703
-981609
-981773
-981718
-981595
-981530
-981443
-981452
-981224
-980707
-980144
-979908
-979832
-979438
-979044
-978701
-978298
-978017
-977550
-977515
-976241
-975611
-975136
-974369
-974146
-973793
-973306
-972924
-972418
-971672
-971095
-970637
-970351
-969981
-969612
-969225
-968840
-968794
-968464
-967799
-967281
-966914
-966796
-966549
-966448
-966314
-966251
-966284
-966254
-965887
-965576
-965348
-965276
-965243
-965200
-964941
-964877
-964956
-964859
-964541
-964085
-963818
-963810
-963694
-963682
-963441
-963350
-963494
-963264
-962981
-962588
-962471
-962667
-962497
-962368
-962333
-962246
-962231
-961971
-961564
-961193
-961065
-960940
-960790
-960909
-960727
-960723
-960787
-960574
-960343
-960049
-960068
-960213
-960146
-960095
-959868
-960576
-960348
-960391
-960028
-959690
-959527
-959483
-959516
-959327
-959209
-959251
-959416
-959189
-958909
-958746
-958796
-958848
-958847
-958918
-959010
-959056
-959262
-959434
-959228
-959268
-959290
-959501
-959667
-959722
-959771
-959987
-960229
-960241
-960110
-959965
-960035
-960189
-960282
-960407
-960379
-960510
-960848
-960884
-960601
-960386
-960632
-960726
-960989
-961045
-961115
-961362
-961570
-961579
-961242
-961043
-961162
-961326
-961261
-961271
-961411
-961635
-961810
-961717
-961369
-961191
-961212
-961294
-961372
-961255
-961237
-961285
-961429
-961309
-960967
-960635
-960545
-960594
-960575
-960694
-960638
-960636
-960752
-960759
-960408
-960194
-959955
-960077
-960266
-960436
-960302
-960026
-959858
-959835
-960034
-959984
-959913
-959999
-960025
-960272
-960066
-959971
-959721
-959887
-959947
-960155
-960209
-960131
-960279
-960260
-960339
-960217
-959869
-959922
-960125
-960167
-960260
-960217
-960384
-960544
-960485
-960182
-959836
-959810
-959791
-959904
-959877
-959821
-959908
-960035
-959966
-959754
-959592
-959586
-959831
-959907
-959910
-959966
-960204
-960383
-960363
-960141
-959802
-960047
-960390
-960567
-960697
-960717
-960912
-961156
-961158
-961021
-960834
-961024
-961206
-961278
-961438
-961392
-961495
-961770
-961737
-961679
-961403
-961565
-961911
-961901
-962155
-962158
-962442
-962744
-962720
-962525
-962246
-962340
-962649
-962838
-962855
-962756
-962892
-962792
-962934
-962695
-962532
-962625
-962782
-962851
-962894
-962945
-963129
-963312
-963163
-962965
-962811
-962927
-963083
-963222
-963268
-963297
-963622
-963805
-963684
-963499
-963392
-963412
-963715
-963771
-963800
-963747
-963923
-964161
-964022
-963832
-963601
-963684
-963760
-963833
-963925
-963865
-964059
-964186
-964025
-963812
-963616
-963713
-963872
-963967
-963960
-963981
-964245
-964374
-964159
-963934
-963755
-963826
-963975
-964090
-964131
-964063
-964335
-964480
-964272
-964104
-964004
-964107
-964209
-964162
-964424
-964440
-964551
-964714
-964515
-964305
-963983
-964042
-964192
-964373
-964398
-964351
-964468
-964306
-964382
-964201
-964019
-964077
-964278
-964336
-964352
-964254
-964430
-964667
-964389
-964265
-964121
-964168
-964343
-964416
-964393
-964427
-964579
-964814
-964530
-964314
-964199
-964355
-964519
-964669
-964736
-964770
-964854
-965160
-964974
-964825
-964599
-964605
-964876
-964761
-964807
-964674
-964983
-965006
-964649
-964305
-964159
-964088
-963991
-963881
-963750
-963421
-963213
-962980
-962479
-961800
-961319
-960898
-960620
-960150
-959683
-959145
-958810
-958486
-957796
-957143
-956353
-955985
-955528
-955005
-954627
-954104
-953846
-953561
-952846
-952245
-951497
-951138
-950861
-950546
-950206
-949755
-949560
-949421
-948857
-948316
-947822
-947586
-947551
-947302
-947046
-946812
-946775
-946733
-946267
-946286
-945740
-945468
-945379
-945205
-945161
-945076
-945129
-945026
-944733
-944480
-944131
-944149
-945026
-944385
-944122
-943870
-943986
-943780
-943516
-943295
-942883
-942968
-943020
-942884
-942857
-942620
-942587
-942672
-942402
-942048
-941867
-941735
-941745
-941629
-941604
-941382
-942382
-941791
-940940
-940721
-940511
-940447
-940640
-940584
-940433
-940334
-940450
-940389
-940086
-939875
-939624
-939603
-939556
-939654
-939753
-939555
-939475
-939599
-939418
-939122
-939052
-939071
-939195
-939301
-939359
-939230
-939441
-939583
-939240
-939224
-939112
-939314
-939486
-939616
-939810
-939872
-940114
-940235
-940258
-940253
-940177
-940385
-940682
-940948
-941045
-941218
-941503
-941685
-941566
-941413
-941440
-941653
-941886
-942079
-942262
-942443
-942609
-942854
-942674
-942498
-942510
-942721
-942823
-942915
-943049
-943106
-943281
-943250
-943120
-942921
-942850
-942823
-942997
-942963
-943057
-943041
-943097
-943139
-942927
-942634
-942532
-942475
-942695
-942794
-942868
-942875
-942943
-942928
-942843
-942566
-942524
-942529
-942778
-942816
-942957
-943012
-943080
-943046
-942773
-942583
-942529
-942613
-942671
-942763
-942879
-942990
-943037
-943135
-942926
-942830
-942847
-942907
-943105
-943192
-943301
-943363
-943505
-943639
-943502
-943336
-943422
-943471
-943686
-943738
-943832
-943965
-944157
-944337
-944109
-943986
-944109
-944234
-944376
-944443
-944641
-944873
-945069
-945078
-944946
-944832
-944806
-945095
-945265
-945382
-945392
-945455
-945791
-945740
-945684
-945518
-945604
-945769
-945997
-946079
-946162
-946401
-946638
-946705
-946594
-946324
-946530
-946656
-946833
-947002
-947173
-947250
-947494
-947610
-947416
-947407
-947379
-947522
-947677
-947914
-948031
-948067
-948296
-948398
-948188
-948104
-948159
-948288
-948479
-948690
-948641
-948940
-949075
-949153
-948959
-948884
-948802
-949035
-949181
-949368
-949351
-949472
-949839
-949739
-949620
-949567
-949610
-949806
-949856
-949945
-950123
-950253
-950454
-950352
-950215
-950126
-950127
-950352
-950517
-950688
-950639
-950813
-950979
-951105
-950884
-950835
-950770
-951069
-951144
-951379
-951393
-951537
-951777
-951798
-951551
-951407
-951503
-951578
-951731
-951903
-952009
-952185
-952414
-952306
-952232
-952083
-952152
-952315
-952450
-952471
-952527
-952503
-952860
-952946
-952762
-952627
-952765
-952870
-953045
-953098
-953156
-953380
-953555
-953660
-953367
-953214
-953393
-953431
-954318
-953936
-953795
-954084
-954258
-954300
-954037
-953915
-954013
-954249
-954351
-954473
-954621
-954800
-955111
-955122
-954922
-954707
-954811
-955058
-955236
-955526
-955457
-955642
-955827
-955844
-955759
-955620
-955716
-955869
-955952
-956084
-956273
-956439
-956689
-956703
-956541
-956345
-956410
-956514
-956617
-956882
-956827
-957030
-957374
-957074
-957056
-956848
-956799
-956986
-957010
-956978
-956797
-956717
-956684
-956536
-955814
-956291
-955405
-954968
-954538
-954203
-953785
-953435
-953143
-952568
-951821
-951243
-950761
-950514
-950063
-949716
-949191
-948719
-948390
-947999
-947284
-946554
-946230
-946061
-945779
-945331
-945121
-944927
-944839
-944398
-943787
-943268
-943013
-942985
-942743
-942641
-942341
-942065
-942064
-941809
-941210
-941031
-941032
-941207
-941186
-941147
-941015
-940973
-941048
-940934
-940613
-940275
-940248
-940380
-940429
-940325
-940214
-940351
-940368
-940260
-939945
-939662
-939753
-939687
-939793
-939772
-939711
-939833
-939864
-939771
-939354
-939004
-939041
-939028
-939017
-939029
-938808
-938936
-939102
-938989
-938489
-938175
-938165
-938298
-938327
-938357
-938164
-938272
-938274
-938249
-937942
-937714
-937690
-937733
-937781
-937723
-937695
-937488
-937922
-937780
-937414
-937353
-937444
-937581
-937542
-937536
-937610
-937679
-937881
-937939
-937742
-937627
-937819
-938000
-938124
-938349
-938459
-938620
-938996
-939073
-938883
-938909
-938967
-939497
-939760
-940112
-940227
-940605
-941003
-941114
-941089
-941210
-941372
-941804
-942032
-942260
-942479
-942879
-943183
-943337
-943360
-943285
-943508
-943848
-943701
-944292
-944558
-944984
-945258
-945316
-945263
-945272
-945563
-945825
-945966
-946205
-946254
-946619
-946891
-946877
-946777
-946753
-946892
-947267
-947512
-947757
-947782
-947999
-948406
-948413
-948217
-948052
-948202
-948479
-948582
-948701
-948743
-949085
-949393
-949763
-949144
-948694
-948991
-949156
-949364
-949562
-949512
-949821
-949994
-949956
-949931
-949890
-950097
-950305
-950485
-950688
-950795
-951002
-951322
-951430
-951342
-951316
-951451
-951407
-951685
-952099
-952158
-952536
-952811
-952846
-952900
-952813
-953116
-953347
-953654
-953905
-954201
-954483
-954866
-955065
-954807
-954956
-955171
-955651
-955995
-956396
-956723
-957174
-957585
-957781
-957932
-958201
-958485
-958908
-959049
-959431
-959649
-959975
-960588
-960669
-960742
-961016
-961311
-961772
-962015
-962188
-962529
-962909
-963391
-963635
-963715
-963489
-963952
-964250
-964676
-964959
-965158
-965560
-966065
-966386
-966431
-966542
-966723
-966898
-967155
-967552
-968503
-968208
-968607
-968716
-968856
-968897
-969316
-969785
-969970
-970337
-970662
-971083
-971446
-971620
-971655
-971815
-972080
-972610
-972862
-973248
-973125
-973712
-974168
-974243
-974264
-974388
-974414
-976115
-975584
-975843
-975805
-976202
-976521
-976504
-976730
-976807
-977212
-977520
-977772
-978051
-978107
-978488
-978924
-978936
-978989
-979187
-979428
-979791
-980041
-980399
-980553
-980927
-981310
-981679
-981786
-981803
-981837
-982198
-982350
-982731
-982990
-983436
-983768
-983883
-983962
-984119
-984354
-984596
-984584
-985890
-985418
-985641
-985857
-986393
-985909
-985715
-985804
-986050
-986322
-986583
-986658
-986910
-987062
-986898
-986754
-986777
-986930
-987190
-987370
-987697
-987833
-988211
-988542
-988645
-988491
-988657
-988931
-989172
-989416
-989585
-989822
-990068
-990607
-990499
-990743
-991382
-991765
-991888
-991945
-991956
-992049
-992416
-992625
-992765
-992958
-993152
-993357
-993485
-993392
-993295
-993392
-993745
-993816
-993924
-993918
-994147
-994231
-994115
-994101
-993993
-994156
-994261
-994363
-994375
-994371
-994596
-994652
-994521
-994375
-994155
-994002
-993916
-993681
-993568
-993264
-993174
-993128
-992639
-992108
-991441
-991011
-990688
-990213
-989881
-989234
-988934
-988559
-987903
-987335
-986639
-986141
-985787
-985381
-985026
-984621
-984391
-984178
-983702
-983167
-982664
-982346
-982379
-982078
-981947
-981631
-981487
-981369
-980908
-980585
-980219
-979818
-980016
-979935
-979739
-979462
-979391
-979320
-979074
-978881
-978657
-978702
-978464
-978282
-978159
-977996
-978059
-978190
-977960
-977674
-977463
-977370
-977477
-977353
-977392
-977250
-977353
-977275
-977191
-977109
-977013
-976904
-976937
-976872
-976833
-976872
-976774
-976833
-976650
-976416
-976078
-975993
-975999
-975995
-975890
-975829
-975911
-975972
-975607
-975440
-975176
-975145
-975238
-975335
-975244
-975128
-975159
-975127
-974975
-974802
-974621
-974620
-974554
-974722
-974639
-974545
-974650
-974634
-974520
-974347
-974272
-974344
-974392
-974539
-974534
-974580
-974918
-974988
-974825
-974758
-974781
-974786
-974869
-974990
-975102
-975316
-975582
-975781
-975593
-975602
-975736
-975913
-976038
-976331
-976657
-976973
-977187
-977267
-977074
-977294
-977463
-977503
-977672
-977874
-978025
-978155
-978291
-978259
-978208
-978099
-978102
-978006
-978186
-978138
-978230
-978112
-978116
-978060
-977796
-977451
-977195
-977025
-977008
-977015
-976926
-976883
-976855
-976823
-976606
-976460
-976316
-975881
-976079
-976232
-976200
-976196
-976381
-976348
-976166
-976074
-975882
-975862
-975923
-975965
-975949
-975855
-975932
-975931
-975826
-975583
-975467
-975593
-975702
-975758
-975805
-975911
-975999
-975967
-975678
-975504
-975505
-976544
-975926
-975811
-975714
-975753
-975776
-975893
-975721
-975606
-975555
-975566
-975758
-975931
-975953
-976091
-976473
-976395
-976160
-976079
-976126
-976355
-976455
-976626
-976684
-976933
-977295
-977271
-977230
-977164
-977457
-977688
-977908
-978188
-978424
-978697
-979002
-979241
-979311
-980128
-980001
-980029
-980202
-980786
-981056
-981324
-981774
-982015
-982105
-982062
-982300
-982358
-982622
-982643
-982774
-982927
-982774
-983638
-983017
-982852
-982797
-982686
-982722
-982704
-982656
-982473
-982250
-982139
-982191
-982171
-982206
-982063
-981921
-982033
-982161
-982180
-981918
-981889
-981908
-981963
-982004
-982180
-982173
-982284
-982527
-982497
-982393
-982296
-982430
-982549
-982501
-982557
-982468
-982305
-982223
-982084
-981728
-981443
-981273
-981129
-981154
-981344
-981287
-981487
-981753
-981780
-981783
-981864
-982021
-982275
-982548
-982905
-983114
-983414
-983881
-984247
-984366
-984404
-984683
-985117
-985216
-985396
-985386
-985508
-985642
-985593
-985279
-984967
-984889
-984748
-984632
-984415
-984211
-984011
-983883
-983535
-983026
-982672
-982458
-982202
-981961
-981677
-981328
-981166
-981010
-980722
-980214
-979867
-980131
-980064
-979238
-978765
-978591
-978838
-978782
-978525
-978390
-978180
-977798
-978168
-977703
-977409
-977710
-977721
-977817
-977825
-977545
-977386
-977359
-977527
-977512
-977603
-977615
-977704
-978011
-978126
-977984
-977967
-978104
-978393
-978615
-978816
-979106
-979394
-979698
-979934
-979870
-979942
-980107
-980199
-980269
-981089
-980575
-980665
-980808
-980850
-980460
-980328
-980423
-980344
-980162
-980211
-980014
-979888
-979837
-979598
-979117
-978580
-978285
-978525
-977580
-977133
-976505
-976250
-975951
-975281
-974623
-973839
-973293
-972843
-972342
-971709
-971289
-970759
-970416
-969805
-969172
-968531
-967956
-967552
-967162
-966769
-966240
-965918
-965625
-965303
-964801
-964243
-964045
-963818
-963548
-963221
-963050
-962788
-962766
-962619
-962207
-961835
-961466
-961394
-961131
-960927
-960753
-960664
-960627
-960357
-960014
-959700
-959534
-959498
-959496
-959377
-959242
-959158
-959285
-958956
-958728
-958459
-958317
-958224
-958155
-958063
-957951
-957995
-957919
-957772
-957534
-957259
-957077
-956956
-956940
-956907
-956754
-956465
-956653
-956384
-956020
-955825
-955602
-955552
-955504
-955233
-955040
-955027
-955043
-954724
-954398
-953767
-953863
-953853
-953755
-953776
-953729
-953716
-953699
-953491
-953205
-952981
-952948
-953171
-952954
-952974
-952964
-953179
-953376
-953371
-953293
-953205
-953319
-953497
-953625
-953782
-953827
-953823
-953976
-954006
-953870
-953625
-953702
-953875
-953164
-954753
-955170
-955711
-956621
-956692
-956269
-955647
-955602
-955456
-955431
-955439
-956178
-955917
-956193
-956196
-956188
-956207
-956348
-956558
-957294
-956956
-956938
-957079
-957192
-957300
-957275
-957088
-957132
-957357
-957550
-957694
-957534
-957772
-958031
-957907
-957653
-957625
-957621
-957807
-957825
-957883
-957919
-958159
-958476
-958245
-958048
-957879
-957756
-957750
-957713
-957429
-957376
-957532
-957744
-957587
-957357
-956956
-957039
-957049
-956890
-956883
-956822
-956901
-957078
-956981
-956645
-956473
-956468
-956459
-956514
-956462
-956328
-956316
-956496
-956263
-956144
-955906
-955917
-956057
-955987
-955949
-955950
-956103
-956291
-956182
-955974
-955749
-955847
-956011
-956082
-956201
-956204
-956381
-956611
-956565
-956379
-956330
-956405
-956531
-956651
-956880
-956964
-957071
-957304
-957320
-957354
-957090
-957413
-957511
-957599
-957715
-957687
-957954
-958181
-957986
-957852
-957919
-958001
-958046
-958173
-958254
-958426
-958481
-958586
-958513
-958415
-958574
-958711
-958924
-959059
-959088
-959155
-959403
-959429
-959376
-959348
-959506
-959588
-959911
-960232
-960461
-960557
-960671
-960509
-960257
-960082
-960063
-960128
-960183
-960305
-960431
-960807
-961074
-961121
-961067
-961077
-961204
-961277
-961229
-961370
-961399
-961654
-961788
-961578
-961568
-961345
-961395
-961575
-961566
-961602
-961486
-961592
-961671
-961486
-961134
-960848
-960947
-961013
-961077
-961160
-961223
-961423
-961563
-961511
-961373
-961201
-961393
-961599
-961620
-961903
-961883
-962270
-962493
-962407
-962325
-962361
-962467
-962893
-962997
-963218
-963264
-963441
-963613
-963483
-963340
-963202
-963082
-963115
-963078
-962976
-962934
-963061
-963189
-963078
-962917
-962717
-962697
-962792
-962849
-962669
-962626
-962574
-962828
-962571
-962364
-962222
-962264
-962492
-962560
-962808
-963030
-963323
-963556
-963527
-963674
-963680
-963809
-964040
-964255
-964500
-964623
-964807
-965079
-965168
-965229
-965351
-965723
-965953
-966125
-966289
-966498
-966685
-966868
-966892
-966805
-966581
-966595
-966474
-966302
-965647
-965423
-964522
-964072
-963489
-962902
-962214
-961718
-961178
-960671
-960096
-959558
-959085
-958673
-958047
-957514
-956996
-956561
-956018
-955747
-955473
-955228
-955071
-955105
-954900
-954514
-954299
-954399
-954396
-954496
-954716
-954919
-955357
-955461
-955284
-955137
-954957
-954959
-954994
-955158
-955138
-955166
-955309
-955473
-955278
-955166
-955178
-955293
-955512
-955645
-955888
-956177
-956558
-956831
-956945
-957184
-957384
-957490
-957854
-957980
-958226
-958532
-958857
-958966
-958863
-958699
-958619
-958696
-958690
-958696
-958521
-958483
-958654
-958701
-958677
-958629
-958483
-958652
-958634
-958841
-959053
-959324
-959588
-959716
-959790
-959699
-959726
-959796
-959940
-960879
-960637
-960533
-960865
-961001
-961018
-961143
-960929
-961064
-961412
-961565
-961307
-961216
-961189
-960886
-961123
-961101
-961374
-961637
-961843
-962034
-962031
-962082
-962007
-961978
-962282
-962397
-962602
-962744
-963115
-963281
-963392
-963428
-963452
-963804
-963866
-964040
-964356
-964671
-964906
-965210
-965176
-965251
-965404
-965523
-965513
-965852
-966004
-966361
-966645
-966833
-966846
-966728
-966903
-967042
-967288
-967462
-967642
-967891
-968293
-968537
-968611
-968593
-968608
-968812
-969053
-969262
-969308
-969483
-969854
-970009
-970068
-970114
-970109
-970498
-970635
-970843
-971082
-971387
-971846
-972225
-972332
-972464
-972664
-973195
-973532
-973836
-974129
-974645
-975096
-975440
-975522
-975654
-975931
-976125
-976414
-976780
-976996
-977436
-977790
-978097
-978069
-978198
-978411
-978685
-978893
-979157
-979503
-979827
-980184
-980540
-980713
-980714
-980886
-981316
-981608
-981895
-982100
-982585
-982838
-983222
-983229
-983292
-983509
-983753
-983876
-984240
-984455
-984762
-985292
-985459
-985504
-985482
-985670
-986050
-986242
-986506
-986712
-986989
-987400
-987741
-987933
-988024
-988261
-988782
-988970
-989325
-989502
-989874
-990393
-990661
-990635
-990380
-990815
-991051
-991410
-991757
-991972
-992267
-992564
-992924
-992983
-992998
-993218
-993383
-993576
-993961
-994167
-994383
-994883
-995034
-995057
-995058
-995419
-995713
-995969
-996089
-996257
-996672
-997258
-997533
-997515
-997526
-997785
-998112
-998340
-998670
-998859
-999272
-999676
-999785
-999894
-999972
-1000122
-1000466
-1000708
-1000955
-1001171
-1001573
-1001921
-1002154
-1001990
-1002119
-1002401
-1002498
-1002780
-1002967
-1003013
-1003544
-1003925
-1004063
-1004149
-1004201
-1004394
-1004834
-1005003
-1005363
-1006384
-1006164
-1006433
-1006764
-1006833
-1006855
-1007116
-1007445
-1007492
-1007882
-1008279
-1008691
-1009180
-1009295
-1009469
-1009432
-1009760
-1010118
-1010465
-1010536
-1010728
-1011313
-1011820
-1012101
-1012076
-1012186
-1012413
-1012680
-1012924
-1013135
-1013415
-1013576
-1013844
-1013813
-1013832
-1013773
-1013889
-1014120
-1014350
-1014519
-1014747
-1015040
-1015377
-1015532
-1015404
-1015299
-1015503
-1015730
-1015936
-1016039
-1016007
-1016472
-1016877
-1017018
-1016799
-1016781
-1016883
-1017085
-1017158
-1017250
-1017346
-1017641
-1017903
-1017924
-1017670
-1017397
-1017403
-1017427
-1017332
-1017427
-1017192
-1017109
-1017023
-1016627
-1016204
-1015715
-1015428
-1015235
-1014790
-1014447
-1014045
-1013738
-1013429
-1012879
-1012189
-1011467
-1010971
-1010595
-1010162
-1009745
-1009224
-1008852
-1008543
-1007993
-1007400
-1006768
-1006397
-1006103
-1005768
-1005415
-1005097
-1005113
-1005124
-1004739
-1004285
-1003826
-1003813
-1003848
-1003784
-1003701
-1003640
-1003687
-1003753
-1003549
-1003197
-1002910
-1002848
-1002973
-1002856
-1002901
-1002807
-1003040
-1003163
-1002950
-1002749
-1002398
-1002340
-1002397
-1002399
-1002402
-1002304
-1002204
-1002342
-1002185
-1001947
-1001620
-1001424
-1001477
-1001471
-1001467
-1001267
-1001481
-1001199
-1000808
-1000587
-1000570
-1000533
-1000445
-1000397
-1000375
-1000522
-1000676
-1000262
-1000065
-999678
-999654
-999536
-999519
-999607
-999496
-999600
-999833
-999662
-999364
-999095
-999200
-999404
-999377
-999337
-999152
-999455
-999597
-999523
-999442
-999284
-999283
-999542
-999643
-999669
-999727
-999877
-1000055
-999987
-999965
-999753
-999922
-1000001
-999933
-1000132
-1000045
-1000199
-1000548
-1000573
-1000567
-1000422
-1000614
-1000824
-1001115
-1001446
-1001634
-1001746
-1002259
-1002429
-1002452
-1002453
-1002688
-1002940
-1003112
-1003419
-1003652
-1003980
-1004338
-1004352
-1004424
-1004338
-1004534
-1004727
-1004903
-1005157
-1005089
-1005571
-1005630
-1005705
-1005641
-1005567
-1005792
-1005959
-1006001
-1006182
-1006076
-1006262
-1006511
-1006322
-1006143
-1005922
-1005880
-1006018
-1005964
-1006018
-1005894
-1006228
-1006535
-1006411
-1006223
-1006018
-1005995
-1006201
-1006095
-1006107
-1006162
-1006198
-1006583
-1006340
-1006136
-1005929
-1005992
-1006162
-1006298
-1006169
-1006288
-1006457
-1006735
-1006655
-1006638
-1006540
-1006636
-1006812
-1006855
-1007038
-1007158
-1007348
-1007598
-1007485
-1007361
-1007142
-1007279
-1007338
-1007365
-1007525
-1007572
-1007691
-1007925
-1007750
-1007668
-1007356
-1007558
-1007830
-1007888
-1007939
-1008009
-1008048
-1008377
-1008197
-1008203
-1008101
-1008163
-1008356
-1008481
-1008428
-1008388
-1008783
-1008946
-1008725
-1008653
-1008550
-1008626
-1008758
-1008882
-1008913
-1008923
-1009154
-1009462
-1009319
-1009020
-1008951
-1008965
-1009071
-1009255
-1009272
-1009206
-1009335
-1009451
-1009286
-1009127
-1008988
-1009070
-1009206
-1009190
-1009132
-1009014
-1009240
-1009538
-1009283
-1009033
-1008759
-1008956
-1009106
-1009182
-1009087
-1009015
-1009294
-1009571
-1009509
-1009305
-1009192
-1009199
-1009304
-1009435
-1009427
-1009453
-1009682
-1009857
-1009615
-1009496
-1009339
-1009258
-1009598
-1009546
-1009576
-1009563
-1009581
-1009990
-1009903
-1009703
-1009505
-1009635
-1009796
-1009718
-1009856
-1009953
-1010090
-1010263
-1009948
-1009867
-1009666
-1009714
-1009834
-1009935
-1009849
-1009855
-1010036
-1010188
-1010118
-1009882
-1009727
-1009771
-1009909
-1010007
-1010037
-1009995
-1010094
-1010291
-1010247
-1009983
-1009814
-1009915
-1010104
-1010249
-1010404
-1010407
-1010427
-1010584
-1010502
-1010388
-1010172
-1010169
-1010333
-1010597
-1010611
-1010728
-1010931
-1011159
-1010926
-1010791
-1010560
-1010789
-1011038
-1011081
-1011309
-1011470
-1011706
-1011760
-1011616
-1011578
-1011453
-1011683
-1011810
-1011852
-1011823
-1011835
-1011947
-1012103
-1011874
-1011542
-1011179
-1010965
-1010861
-1010738
-1010480
-1010276
-1010096
-1009745
-1009217
-1008617
-1008031
-1007619
-1006954
-1006718
-1006310
-1005977
-1005631
-1005135
-1004510
-1003944
-1003356
-1003112
-1002839
-1002453
-1001953
-1001698
-1001530
-1001305
-1000837
-1000352
-999985
-999871
-999630
-999510
-999303
-999068
-999043
-999075
-998654
-998345
-997998
-997931
-997909
-997738
-997603
-997681
-997790
-997766
-997601
-997299
-997136
-996979
-997000
-996932
-996658
-996203
-996143
-995958
-996009
-995874
-995765
-995901
-995996
-996028
-995779
-995395
-995160
-995225
-995151
-995045
-994963
-994775
-994866
-994803
-994612
-994342
-994097
-994090
-994023
-993925
-993877
-993928
-993971
-993935
-993717
-993402
-993367
-993335
-993271
-993420
-993379
-993397
-993595
-993609
-993335
-993202
-993092
-993126
-993959
-993554
-993270
-993371
-993452
-993404
-993175
-992940
-992827
-992950
-993081
-993122
-992942
-992971
-993250
-993242
-993069
-992816
-992812
-992969
-992902
-993119
-993116
-993280
-993507
-993665
-993427
-993310
-993298
-993456
-993260
-993511
-993596
-993660
-994022
-993983
-993756
-993608
-993663
-993762
-993827
-993885
-993924
-994052
-994199
-994195
-993975
-993738
-993610
-993670
-993762
-993715
-993696
-993938
-994241
-994279
-994008
-993702
-993535
-993398
-993300
-993465
-993289
-993373
-993541
-993509
-993175
-992898
-992805
-992754
-992689
-992666
-992651
-992700
-992850
-992770
-992463
-992102
-991985
-992162
-992110
-992074
-991900
-992041
-992225
-992226
-992041
-991890
-991833
-991887
-992007
-992050
-991928
-992179
-992237
-992289
-991997
-991749
-991759
-991845
-991877
-992000
-991931
-992161
-992255
-992348
-992255
-992120
-992136
-992342
-992402
-992542
-992655
-992853
-993061
-993252
-993003
-992823
-992802
-993018
-993030
-993139
-993093
-993226
-993481
-993559
-993262
-993017
-992959
-993129
-993208
-993354
-993322
-993426
-993796
-993706
-993441
-993311
-993323
-993558
-993714
-993761
-993771
-993905
-994144
-994317
-994181
-994027
-994001
-994135
-994177
-994330
-994175
-994355
-994592
-994626
-994309
-994183
-994097
-994216
-994172
-994242
-994187
-994377
-994533
-994268
-994024
-993972
-994087
-994082
-994158
-994136
-994511
-994808
-994935
-994667
-994548
-994489
-994685
-994787
-994809
-994727
-995081
-995309
-995426
-995174
-995071
-994979
-995022
-995137
-995260
-995161
-995455
-995713
-995789
-995638
-995533
-995554
-995671
-995810
-995896
-996026
-996179
-996460
-996533
-996332
-996217
-996340
-996516
-996555
-996613
-996547
-996796
-997022
-997061
-996813
-996679
-996692
-996798
-996819
-996927
-996903
-997045
-997380
-997326
-997236
-996933
-996898
-997032
-997095
-997170
-997204
-997323
-997611
-997627
-997337
-997091
-997113
-997344
-997453
-997509
-997469
-997625
-997887
-997837
-997688
-997477
-997619
-997828
-997809
-997788
-997791
-997912
-998123
-997892
-997722
-997354
-997144
-997142
-996979
-996971
-996725
-996518
-996354
-996008
-995368
-994752
-994315
-993998
-993491
-993091
-992636
-992304
-992004
-991522
-990891
-990246
-989741
-989408
-989079
-988500
-988160
-987927
-987812
-987577
-987194
-986677
-986470
-986142
-985983
-985821
-985578
-985496
-985719
-985411
-985166
-984860
-984698
-984924
-984845
-984809
-984713
-985031
-985292
-985067
-984851
-984561
-984594
-984646
-984680
-984730
-984700
-985049
-985353
-985447
-985247
-984895
-984856
-985077
-985162
-985149
-985220
-985424
-985514
-985600
-985535
-985487
-985696
-985857
-985854
-985975
-985895
-986089
-986500
-986545
-986408
-986239
-986220
-986440
-986366
-986362
-986324
-986564
-986920
-986741
-986461
-986305
-986294
-986510
-986528
-986688
-986344
-986755
-987106
-987095
-986935
-986703
-986648
-986953
-986950
-987056
-986887
-987211
-987488
-987476
-987295
-987079
-987243
-987417
-987492
-987708
-987871
-988117
-988521
-988376
-988411
-988330
-988513
-988799
-988985
-989207
-989004
-989465
-989911
-989989
-989841
-989832
-989971
-990089
-990298
-990434
-990573
-990808
-991158
-991155
-990965
-990753
-990806
-991204
-991255
-991336
-991496
-991841
-992114
-992084
-992065
-991949
-992167
-992358
-992372
-992401
-992316
-992630
-992884
-992748
-992542
-992300
-992355
-992357
-992281
-992345
-992262
-992429
-992642
-992531
-992305
-992006
-991886
-992021
-991852
-991892
-991737
-991814
-991938
-991602
-991291
-991049
-990995
-991024
-990917
-990820
-990795
-990967
-991216
-990957
-990670
-990296
-990230
-990243
-990302
-990254
-990236
-990359
-990518
-990330
-990052
-989703
-989768
-989757
-989814
-989748
-989772
-989849
-989951
-989800
-989548
-989144
-989280
-989327
-989425
-989267
-989300
-989434
-989590
-989445
-989249
-989006
-988970
-989135
-989143
-989056
-988936
-989219
-989279
-989071
-988832
-988561
-988247
-988647
-988498
-988618
-988640
-988696
-988952
-988849
-988507
-988166
-988353
-988505
-988564
-988588
-988563
-988802
-989039
-988809
-988653
-988397
-988482
-988577
-988466
-988571
-988554
-988644
-988870
-988654
-988433
-988160
-988222
-988386
-988285
-988523
-988450
-988633
-988828
-988623
-988385
-988127
-988251
-988401
-988424
-988360
-988049
-988510
-988729
-988585
-988313
-988171
-988322
-988814
-988584
-988649
-988657
-988889
-989102
-989047
-988729
-988443
-988533
-988745
-988892
-988916
-988871
-989182
-989428
-989131
-988917
-988712
-988869
-989005
-989115
-989235
-989369
-989628
-989843
-989549
-989477
-989315
-989447
-989634
-989605
-989638
-989776
-989908
-990149
-990022
-989797
-989625
-989792
-990132
-990165
-990270
-990369
-990671
-991004
-990853
-990813
-990778
-990853
-991096
-991337
-991496
-991698
-991983
-992269
-992126
-992106
-992077
-992173
-992365
-992562
-992698
-992994
-993189
-993335
-993215
-993078
-992939
-992997
-993051
-993148
-993152
-993132
-993223
-993201
-992809
-992310
-991936
-991813
-991656
-991407
-990933
-990548
-990266
-990049
-989438
-988667
-988052
-987630
-987381
-986978
-986533
-986090
-985814
-985295
-984594
-983985
-983484
-983088
-982823
-982509
-982180
-981807
-981568
-981396
-980876
-980192
-979671
-979408
-979203
-979008
-978872
-978804
-978743
-978579
-978208
-977747
-977600
-977537
-977484
-977323
-977292
-977226
-977354
-977263
-976871
-976633
-976412
-976302
-976318
-976470
-976377
-976329
-976478
-976379
-976108
-975743
-975534
-975607
-975571
-975640
-975665
-975738
-975702
-975668
-975474
-974200
-974670
-974773
-974846
-974943
-974904
-974936
-975054
-975165
-974838
-974589
-974294
-974397
-974330
-974444
-974181
-974229
-974333
-974246
-973809
-973430
-973325
-973274
-973304
-973316
-973334
-973388
-973420
-973260
-973104
-973156
-972714
-972590
-972600
-972526
-972501
-972441
-972638
-972567
-972295
-972039
-971846
-971894
-971924
-972069
-972000
-972060
-972365
-972241
-971980
-971769
-971727
-971726
-971755
-971813
-971873
-972142
-972363
-972386
-972082
-971856
-971957
-972022
-972071
-972201
-972400
-972577
-972828
-972830
-972672
-972416
-972319
-972479
-972638
-972674
-972653
-972844
-973094
-973044
-972659
-972289
-972303
-972299
-972337
-972463
-972479
-972678
-972842
-972939
-972498
-972185
-972165
-972310
-972348
-972299
-972283
-972386
-972761
-972724
-972362
-972112
-972137
-972131
-972221
-972330
-972317
-972490
-972835
-972728
-972550
-972133
-972142
-972265
-972466
-972600
-972454
-972609
-972703
-972788
-972381
-972097
-971858
-972107
-972116
-971850
-972058
-972208
-972369
-972401
-972174
-971859
-971662
-971801
-971933
-972003
-971898
-971970
-972256
-971946
-971491
-971556
-971666
-971749
-971709
-971624
-971788
-972026
-972055
-971692
-971308
-971360
-971251
-971460
-971552
-971598
-971653
-971936
-971845
-971613
-971171
-971244
-971361
-971387
-971426
-971458
-971685
-971884
-971758
-971318
-971056
-971050
-971199
-971102
-971172
-971093
-971248
-971454
-971432
-971050
-970835
-970739
-970918
-971641
-971277
-971187
-971364
-971719
-971535
-971222
-970894
-970955
-971149
-971302
-971542
-971505
-971731
-972051
-971892
-971577
-971235
-971255
-971466
-971306
-971472
-971358
-971550
-971639
-971635
-971095
-971182
-971291
-971371
-971488
-971921
-971769
-971440
-971153
-971261
-971395
-971393
-971370
-971407
-971512
-971799
-971747
-971393
-971091
-971201
-971471
-971545
-971513
-971538
-971766
-971904
-971864
-971650
-971262
-971318
-971611
-971643
-971744
-971653
-971954
-972148
-972094
-971840
-971541
-971713
-971661
-971876
-972009
-971897
-972114
-972308
-972341
-971980
-971735
-971850
-972053
-972154
-972116
-972107
-972352
-972648
-972623
-972287
-972179
-972228
-972439
-972427
-972523
-972665
-972780
-973104
-973101
-972754
-972555
-972824
-972986
-973145
-973136
-973207
-973410
-973640
-973662
-973351
-972980
-973094
-973102
-973197
-973273
-973359
-973469
-973527
-973328
-972837
-972400
-972108
-971950
-971616
-971368
-971034
-970739
-970674
-970059
-969155
-968259
-967834
-967513
-966955
-966361
-965830
-965457
-965007
-964487
-963616
-962840
-962414
-962104
-961683
-961153
-960653
-960487
-960438
-959957
-959317
-958560
-958349
-958167
-958306
-957780
-957448
-957467
-957537
-957277
-956754
-956380
-956201
-956200
-956114
-956065
-955927
-956294
-956095
-955948
-955628
-955336
-955273
-955393
-955397
-955380
-955451
-955485
-955797
-955424
-955304
-954977
-955066
-955263
-955166
-955270
-955195
-955417
-955681
-955585
-955310
-954908
-954917
-955212
-955202
-955245
-955232
-955428
-955451
-955598
-955315
-954995
-955019
-955325
-955437
-955466
-955427
-955542
-955893
-955797
-955389
-955008
-955019
-955338
-955376
-955409
-955363
-955491
-955764
-955665
-955384
-955154
-955282
-955333
-955360
-955356
-955347
-955539
-955876
-955708
-955590
-955423
-955398
-955709
-955778
-955843
-956004
-956327
-956597
-956320
-956429
-956150
-956433
-956722
-956788
-957132
-957047
-957547
-957909
-957868
-957504
-957480
-957729
-958032
-958030
-958325
-958400
-958766
-958991
-958927
-958835
-958575
-958667
-959094
-959115
-959407
-959307
-959630
-959883
-959801
-959599
-959397
-959550
-959851
-959902
-960099
-960078
-960318
-960550
-960596
-960307
-960055
-960100
-960417
-960545
-960680
-960545
-960915
-961094
-960798
-960713
-960572
-960540
-960877
-960795
-960880
-960934
-961124
-961401
-961309
-961039
-960875
-960951
-961171
-961168
-961238
-961271
-961540
-961864
-961635
-961294
-961157
-961119
-961389
-961577
-961643
-961711
-961940
-962360
-962058
-961929
-961666
-961500
-961998
-962122
-962319
-962379
-962677
-963017
-962934
-962687
-962529
-962547
-962953
-963090
-963302
-963303
-963710
-964035
-963894
-963770
-963311
-963684
-963882
-964104
-964353
-964382
-964664
-965115
-964870
-964828
-964730
-964994
-965177
-965250
-965141
-965430
-965925
-966188
-966141
-965912
-965747
-965919
-966160
-966289
-966513
-966622
-966968
-967319
-967208
-967187
-966977
-967166
-967825
-967752
-967881
-967917
-968256
-968537
-968408
-968345
-968155
-968300
-968527
-968737
-968993
-969125
-969487
-969751
-969559
-969526
-969307
-969467
-969754
-970007
-970148
-970308
-970597
-970888
-970834
-970639
-970489
-970675
-971104
-971278
-971417
-971354
-971798
-972177
-971987
-971785
-971660
-971739
-972114
-972280
-972323
-972394
-972745
-972964
-972773
-972658
-972469
-972603
-973000
-973081
-973164
-973441
-973600
-973982
-973770
-973607
-973449
-973654
-973990
-974136
-974217
-974435
-974621
-975067
-974870
-974760
-974632
-974878
-974904
-975242
-975412
-975556
-975844
-976105
-976140
-975960
-975807
-975855
-976197
-976297
-976414
-976432
-976750
-977102
-976859
-976705
-976546
-976830
-977054
-977311
-977410
-977371
-977630
-977962
-977808
-977780
-977544
-977696
-977908
-978032
-978268
-978376
-978782
-978945
-978701
-978592
-978435
-978527
-978544
-978522
-978651
-978491
-978497
-978513
-978096
-977601
-977221
-976979
-976807
-976503
-976210
-975647
-975423
-975334
-974663
-973974
-973289
-972870
-972586
-972363
-971830
-971368
-971113
-970733
-970127
-969504
-968843
-968464
-968163
-968063
-967748
-967467
-967224
-967155
-966489
-965905
-965564
-965376
-965382
-965328
-965177
-965106
-965026
-965066
-964619
-964180
-964117
-964069
-964105
-964184
-964162
-964262
-964469
-964556
-964224
-963938
-963762
-963969
-964042
-964210
-964319
-964467
-964534
-964703
-964539
-964363
-964108
-964267
-964223
-964460
-964716
-964684
-964916
-965085
-964963
-964662
-964677
-964687
-964896
-965037
-965097
-965272
-965407
-965522
-965284
-965084
-964983
-965142
-965308
-965342
-965471
-965784
-966057
-966005
-965795
-965591
-965638
-965912
-965940
-966235
-966277
-966626
-966841
-966912
-966749
-966602
-966625
-966877
-967061
-967265
-967469
-967673
-968132
-968311
-968147
-968178
-968351
-968538
-968865
-969083
-969346
-969527
-970266
-970477
-970115
-969828
-969923
-970126
-970335
-970550
-970652
-970964
-971355
-972084
-971630
-971318
-971253
-971353
-971579
-971794
-971839
-972084
-972238
-972340
-972108
-971891
-971911
-972684
-972267
-972276
-972255
-972414
-972682
-972718
-972347
-972135
-972053
-972224
-972343
-972447
-972365
-972521
-972829
-972739
-972391
-971958
-972142
-972260
-972377
-972398
-972214
-972483
-972776
-972798
-972447
-972230
-972125
-972277
-972309
-972467
-972474
-972667
-972852
-972935
-972724
-972576
-972465
-972653
-972733
-972739
-972793
-972997
-973354
-973315
-973135
-972727
-972845
-972979
-973095
-973269
-973340
-973515
-973793
-973940
-973794
-973490
-973589
-973695
-973831
-974030
-974185
-974463
-974836
-974774
-974505
-974244
-974375
-974639
-974769
-974983
-975085
-975329
-975736
-975739
-975537
-975309
-975416
-975717
-975829
-975870
-976087
-976363
-976581
-976610
-976340
-976196
-976228
-976467
-976623
-976633
-976755
-977062
-977245
-977378
-977054
-976921
-977419
-977316
-977345
-977500
-977567
-977740
-978116
-978133
-977904
-977690
-977736
-977938
-978022
-978299
-979072
-978875
-978926
-978949
-978677
-978495
-978506
-978778
-978957
-979040
-979077
-979424
-979787
-979868
-979630
-979261
-979244
-979552
-979745
-979803
-979942
-980057
-980297
-980431
-980258
-980014
-980010
-980353
-980315
-980492
-980552
-980881
-981082
-981018
-980727
-980534
-980630
-980854
-981032
-980996
-981043
-981218
-981538
-981578
-981252
-981070
-981018
-981266
-981410
-981432
-981405
-981693
-981991
-981973
-981619
-981235
-981226
-981337
-981541
-981620
-981616
-981790
-982071
-982058
-981768
-981561
-981543
-981934
-981910
-981951
-982054
-982189
-982515
-982555
-982240
-982054
-982042
-982156
-982180
-982312
-982168
-982391
-982707
-982810
-982396
-982077
-981993
-982207
-982180
-982273
-982281
-982386
-982553
-982469
-981914
-981407
-981311
-981390
-981247
-981082
-980749
-980467
-980456
-980122
-979237
-978426
-978069
-977840
-977278
-976777
-976159
-975953
-975759
-975060
-974266
-973304
-972940
-972549
-972105
-971693
-971321
-971031
-970624
-970365
-969568
-969028
-968564
-968394
-968183
-967949
-967595
-967573
-967546
-967343
-966738
-966234
-965942
-966025
-965840
-965543
-965237
-965397
-965462
-965362
-964835
-964327
-964171
-964180
-964174
-964138
-964575
-964387
-964382
-964215
-963784
-963396
-963309
-963317
-963492
-963411
-963269
-963500
-963744
-963492
-963222
-962847
-962810
-962974
-962998
-963048
-962959
-963158
-963429
-963375
-963120
-962630
-962736
-962862
-962899
-962912
-962954
-963161
-963382
-963259
-962971
-962688
-962600
-962722
-962747
-962936
-962849
-963119
-963375
-963181
-962875
-962641
-962607
-962713
-962893
-963051
-962937
-963258
-963566
-963373
-963197
-962877
-963063
-963306
-963476
-963566
-963571
-963872
-964164
-964242
-964080
-963838
-964002
-964315
-964658
-964791
-964872
-965373
-966236
-965808
-965682
-965488
-965486
-965849
-966006
-966253
-966269
-966579
-966772
-966755
-966607
-965988
-966414
-966377
-966756
-966968
-966876
-967026
-967054
-967185
-967284
-967242
-967481
-967811
-967728
-967553
-967117
-967177
-967382
-967426
-967641
-967447
-967844
-968016
-967944
-967689
-967403
-967330
-967546
-967567
-967584
-967675
-967820
-968181
-967775
-967642
-967278
-967362
-967564
-967696
-967813
-967754
-967940
-968186
-968143
-967885
-967513
-967622
-967848
-967917
-968096
-968077
-968243
-968664
-968471
-968123
-967918
-967963
-968171
-968352
-968424
-968485
-968686
-969113
-968937
-968737
-968553
-968669
-968926
-969094
-969359
-969316
-969686
-969903
-969817
-969684
-969441
-969542
-969870
-969981
-970175
-970140
-970418
-970798
-970762
-970648
-970386
-970535
-970764
-970775
-970905
-970939
-971166
-971544
-971287
-971209
-970962
-971135
-971253
-971457
-971504
-971535
-971794
-972089
-972040
-971935
-971747
-971738
-972099
-972078
-972321
-972242
-972609
-972964
-972816
-972534
-972494
-972649
-972812
-972959
-973184
-973254
-973459
-973822
-973787
-973621
-973341
-973527
-973745
-973922
-974034
-974095
-974384
-974690
-975040
-974548
-974202
-974375
-974634
-974586
-974661
-974656
-975028
-975278
-975188
-974945
-974754
-974771
-975096
-975091
-975106
-975648
-975560
-975720
-975533
-975381
-975123
-975362
-975483
-975642
-975737
-975770
-976056
-976289
-976080
-975894
-975702
-976004
-976184
-976216
-976396
-976543
-976679
-976853
-976862
-976782
-976653
-976737
-977923
-977279
-977241
-977135
-977299
-977716
-977493
-977294
-977042
-977067
-977395
-977546
-977541
-977544
-977706
-978001
-977839
-977695
-977450
-977564
-977776
-977550
-978449
-978185
-978256
-978432
-978318
-978104
-978014
-978030
-978352
-978351
-978515
-978416
-978660
-978938
-978854
-978712
-978338
-978441
-978476
-978548
-978402
-978239
-978283
-978366
-977882
-977565
-976852
-976589
-976085
-975949
-975515
-975024
-974342
-974264
-973582
-972880
-972192
-971696
-971241
-970788
-970173
-969573
-969235
-968849
-968186
-967505
-966789
-966246
-966119
-965533
-965174
-964742
-964527
-964355
-963851
-963247
-962843
-962627
-962445
-962138
-961899
-961685
-961711
-961762
-961322
-960988
-960555
-960424
-960394
-960456
-960363
-960158
-960143
-960283
-960009
-959756
-959584
-959451
-959356
-959483
-959663
-959708
-959894
-960057
-959804
-959586
-959407
-959473
-959549
-959583
-959640
-959603
-959777
-959940
-959825
-959652
-959416
-959526
-959638
-959557
-959596
-959657
-959831
-960058
-959938
-959715
-959659
-959636
-959800
-959999
-960069
-960068
-960347
-960461
-960385
-960170
-960194
-960249
-960360
-960504
-960586
-960712
-960876
-961869
-961303
-960995
-960882
-961084
-961911
-961585
-961460
-961541
-961816
-961981
-962042
-961970
-961864
-961995
-962318
-962464
-962646
-962877
-963307
-963473
-963439
-963338
-963421
-963578
-963968
-964208
-964417
-964637
-964946
-965119
-965157
-965052
-965111
-965192
-965369
-965789
-965676
-965845
-966185
-966272
-965979
-965792
-965986
-966301
-966484
-966544
-966620
-966710
-967008
-967073
-966911
-966567
-966552
-967315
-966741
-966717
-966765
-966863
-966975
-967082
-966768
-966528
-966164
-966289
-966429
-966583
-966498
-966493
-966735
-966741
-966527
-966264
-966219
-966305
-966376
-966352
-966342
-966329
-966574
-966689
-966433
-966187
-966100
-966044
-966224
-966203
-966255
-966354
-966571
-966462
-966110
-965674
-965576
-965667
-965795
-965869
-965857
-966064
-966150
-966291
-965985
-965744
-965768
-965921
-965871
-966044
-966027
-966167
-966298
-966410
-966262
-966001
-965845
-965853
-965964
-966150
-966083
-966251
-966565
-966547
-966366
-966091
-966172
-966189
-966321
-966514
-966544
-966756
-966945
-967077
-966798
-966425
-966375
-966679
-966717
-966923
-966863
-967129
-967329
-967334
-967131
-966941
-966945
-966998
-967090
-967381
-967294
-967489
-967820
-968011
-967765
-967542
-967584
-967900
-968165
-968254
-968326
-968728
-969135
-969159
-968950
-968740
-968699
-968987
-969141
-969341
-969436
-969802
-970090
-970072
-969897
-969803
-970985
-970687
-970414
-970387
-970536
-970651
-970814
-970958
-971124
-971459
-971204
-970884
-971011
-971138
-971307
-971522
-971548
-971750
-972127
-972194
-971927
-971637
-971540
-971743
-971852
-971946
-972050
-972190
-972472
-972481
-972202
-971814
-971841
-971966
-972029
-972147
-972212
-972292
-972559
-972650
-972300
-972011
-971995
-972179
-972385
-972454
-972395
-972483
-972759
-973437
-972776
-972342
-972323
-972340
-972150
-972218
-972467
-972555
-972914
-972908
-972438
-972195
-972122
-972209
-972179
-972377
-972071
-972393
-972602
-972432
-971988
-971568
-971442
-971455
-971185
-971100
-970925
-970766
-970681
-970260
-969710
-968935
-968577
-968349
-967913
-967525
-967074
-966775
-966465
-965946
-965171
-964348
-963855
-963442
-963117
-962658
-962325
-961996
-961889
-961454
-960529
-959854
-959499
-959334
-959197
-959005
-958615
-958609
-958541
-958287
-957762
-957094
-956692
-956889
-956793
-956777
-956607
-956730
-956784
-956692
-956238
-955732
-955660
-955810
-955549
-955702
-955598
-955728
-955932
-955999
-955490
-955091
-955026
-955258
-955317
-955355
-955384
-956076
-956038
-955860
-955342
-955007
-954945
-955169
-955237
-955453
-955354
-955528
-955863
-955787
-955426
-955094
-954931
-955159
-955269
-955290
-955268
-955442
-955678
-955591
-955284
-954943
-955231
-955083
-955099
-955108
-955196
-955299
-955551
-955528
-955097
-954813
-954676
-954599
-954752
-954865
-954859
-954990
-955297
-955232
-954947
-954573
-954610
-954896
-954990
-955151
-955159
-955511
-955834
-955893
-955563
-955562
-955741
-955949
-956138
-956382
-956416
-956656
-956996
-957196
-956958
-956694
-956882
-957190
-957399
-957612
-957661
-958127
-958431
-958515
-958288
-957915
-957993
-958046
-958148
-958241
-958264
-958478
-958679
-958597
-958271
-958076
-958130
-958116
-958134
-958179
-958187
-958482
-958323
-957950
-957573
-957472
-957549
-957612
-957595
-957481
-957539
-957685
-957437
-957033
-956656
-956636
-956749
-956679
-956561
-956509
-956749
-956875
-956715
-956320
-955969
-955929
-956012
-956058
-956063
-956077
-956214
-956416
-956281
-955817
-955438
-955511
-955616
-955536
-955532
-955452
-955501
-955700
-955585
-955111
-954664
-954581
-954777
-954738
-954741
-954634
-954927
-955130
-954980
-954712
-954433
-954435
-954641
-954854
-954917
-954958
-955145
-955474
-955406
-955090
-954633
-954732
-955054
-955189
-955230
-955246
-955500
-955767
-955620
-955456
-955030
-955051
-955241
-955370
-955482
-955469
-955678
-955901
-955894
-955619
-955181
-955253
-955532
-955620
-955828
-955855
-956017
-956363
-956248
-956740
-955973
-955875
-956099
-956149
-955970
-956218
-957037
-957048
-956878
-956739
-956428
-956588
-956906
-956847
-957146
-957063
-957315
-957606
-957433
-957322
-957011
-957070
-957295
-957272
-957337
-957418
-957615
-957946
-957624
-957346
-957131
-957499
-957626
-957826
-957835
-958245
-958482
-958338
-958184
-957834
-958402
-958438
-958459
-958575
-958654
-959001
-959256
-959171
-959025
-958897
-959063
-959259
-959327
-959441
-959653
-960580
-960428
-960177
-959959
-959874
-959922
-960342
-960367
-960467
-960512
-960698
-960992
-960885
-960550
-960370
-960466
-960715
-960952
-961120
-961172
-961485
-961799
-961696
-961582
-961188
-961314
-961614
-961687
-961956
-962105
-962327
-962626
-962540
-962309
-962110
-962309
-962504
-962709
-962826
-962946
-963089
-963508
-963383
-963254
-963041
-963135
-963391
-963623
-963678
-963786
-963958
-964379
-964099
-963816
-963631
-963657
-963868
-963777
-963819
-963630
-963657
-963705
-963278
-962708
-962008
-961784
-961536
-961063
-960662
-960078
-959526
-959337
-958619
-957749
-956862
-956430
-955949
-955457
-954897
-954235
-953857
-953563
-952622
-951933
-951100
-950560
-950271
-949745
-949380
-948949
-948763
-948612
-947971
-947365
-946723
-946416
-946263
-945997
-945899
-945599
-945572
-945570
-945094
-944673
-944233
-944175
-944176
-944002
-944028
-943853
-943968
-944137
-943780
-943507
-943078
-943132
-943142
-943262
-943285
-943088
-943211
-943495
-943212
-942812
-942422
-942507
-942535
-942536
-942628
-942594
-942697
-942873
-942536
-942149
-941727
-941772
-941964
-941884
-941865
-941847
-941871
-942016
-941664
-941361
-941111
-941151
-941157
-941111
-941148
-941067
-941246
-941218
-940928
-940573
-940334
-940343
-941068
-940568
-940548
-940419
-940617
-940792
-940542
-940304
-940052
-940272
-940579
-940898
-941069
-941152
-941467
-941803
-941744
-941553
-941267
-941544
-941834
-942010
-942154
-942174
-942606
-942883
-942891
-942790
-942797
-942891
-943352
-943529
-943872
-943953
-944328
-944657
-944458
-944426
-944260
-944429
-944875
-944911
-945059
-945111
-946062
-945959
-945538
-945365
-945164
-945317
-945562
-945643
-945567
-945634
-945690
-945842
-945604
-945409
-945104
-945153
-945320
-945269
-945404
-945504
-945180
-944818
-944537
-944590
-944748
-944687
-944609
-944764
-944929
-944661
-944405
-944099
-944162
-944234
-944301
-944289
-944344
-945269
-944900
-944478
-944218
-943842
-944594
-944234
-944114
-944072
-944042
-944176
-944173
-943822
-943422
-943216
-943172
-943125
-943335
-943309
-943375
-943230
-943679
-943548
-943267
-943166
-943181
-943425
-943530
-943619
-943599
-943876
-944038
-943752
-943512
-943447
-943507
-943779
-943799
-943850
-943891
-944162
-944248
-944126
-944019
-943869
-943953
-944151
-944267
-944397
-944487
-944638
-944897
-944669
-944395
-944278
-944552
-944750
-944742
-944836
-944887
-945186
-945456
-945231
-945013
-945027
-945175
-945377
-945523
-945614
-945775
-946138
-946307
-946101
-945850
-945889
-946000
-946258
-946373
-946562
-946801
-947080
-947271
-947123
-946935
-946928
-946970
-947329
-947367
-947492
-947773
-948000
-948177
-947990
-947690
-947762
-947787
-947864
-948019
-948237
-948405
-948718
-948956
-948863
-948686
-948506
-948774
-948976
-949116
-949239
-949416
-949723
-949695
-949367
-949146
-949188
-949097
-949368
-949633
-949701
-949871
-949946
-950194
-949874
-949644
-949658
-949779
-949990
-950204
-950521
-950288
-950230
-950453
-950675
-950733
-950778
-951048
-951360
-951446
-951236
-951063
-951060
-951176
-951378
-951957
-951680
-951735
-951972
-952036
-951818
-951534
-951518
-951616
-951719
-951906
-951939
-952206
-952588
-952620
-952490
-952190
-952178
-952207
-952422
-952607
-952732
-952925
-953135
-953228
-952970
-952667
-952720
-952936
-952924
-953017
-952995
-953249
-953474
-953505
-953239
-952916
-952999
-953027
-953062
-953245
-953053
-953128
-953360
-953219
-952878
-952431
-952038
-951822
-951726
-951572
-951107
-950986
-950689
-950210
-949474
-948618
-948103
-947238
-947028
-947202
-946215
-945565
-945117
-944610
-943661
-942921
-942262
-941852
-941380
-940918
-940540
-940128
-939979
-939468
-938788
-938058
-937648
-937312
-937063
-936882
-936496
-936429
-936434
-936194
-936353
-935542
-935152
-935180
-935179
-935120
-934962
-935056
-935326
-935266
-934966
-934607
-934588
-934714
-934892
-934838
-934673
-934820
-935164
-935044
-934721
-934430
-934182
-934418
-934491
-934438
-934488
-934507
-934541
-934534
-933933
-933819
-933753
-933767
-933785
-933725
-933784
-933923
-934049
-933991
-933678
-933321
-933069
-933233
-933131
-933190
-933073
-933172
-933288
-933261
-932831
-932431
-932233
-932432
-932324
-932381
-932218
-932204
-932317
-932309
-931994
-931647
-931665
-931783
-931881
-932018
-932052
-932233
-932588
-932621
-932420
-932391
-932500
-932834
-933135
-933441
-933618
-933915
-934383
-934515
-934483
-934405
-934618
-934994
-935317
-935775
-936032
-936365
-936807
-937078
-936977
-936890
-937218
-937547
-937802
-938142
-938285
-938765
-939111
-939386
-939196
-939010
-939007
-939260
-939500
-939740
-939773
-939998
-940305
-940437
-940043
-939848
-939832
-940436
-940126
-939535
-939994
-940174
-940490
-940407
-940099
-939772
-939828
-939817
-939885
-939909
-939832
-939821
-940050
-939933
-939524
-939147
-939179
-939337
-939459
-939300
-939411
-939590
-939610
-939169
-938881
-938961
-938978
-939007
-939103
-939114
-939324
-939587
-939553
-939132
-939433
-938907
-938885
-938847
-939017
-938937
-939211
-939509
-939470
-939085
-938810
-938979
-939189
-939277
-939379
-939523
-939829
-939628
-939472
-939273
-939300
-939594
-939530
-939842
-939934
-940429
-940397
-940196
-940203
-940100
-940114
-940326
-940470
-940668
-940684
-940984
-941263
-941356
-941086
-940730
-940803
-941076
-941101
-941274
-941444
-941601
-941986
-941962
-941538
-941349
-941374
-941617
-941589
-941752
-942357
-943015
-943031
-942441
-942042
-941703
-941810
-941888
-942043
-942117
-942166
-942404
-942574
-942507
-942285
-942052
-942027
-942302
-942443
-942447
-942508
-942757
-943014
-943038
-942819
-942453
-942511
-942621
-942677
-942802
-943011
-943208
-943603
-943607
-943407
-943219
-943400
-943698
-943785
-943986
-943756
-944119
-944432
-944430
-944156
-943817
-943872
-944159
-944269
-944446
-944520
-944751
-944997
-944999
-944620
-944308
-944329
-944549
-944512
-944668
-944594
-944816
-945195
-945183
-944735
-944567
-944608
-944809
-944825
-944925
-944887
-944989
-945375
-945259
-944927
-944641
-944689
-944847
-944990
-944973
-945050
-945640
-945560
-945359
-944976
-944825
-944560
-945362
-945217
-945366
-945200
-945479
-945751
-945603
-945395
-945077
-945079
-945354
-945501
-945626
-945764
-945915
-946201
-946163
-945963
-945640
-945769
-945917
-946126
-946248
-946334
-946530
-946799
-946756
-946331
-946274
-946432
-946851
-946835
-946943
-946866
-947295
-947587
-947529
-947266
-946971
-947046
-947193
-947242
-947311
-947205
-947431
-947663
-947401
-947009
-946771
-946584
-946585
-946497
-946398
-946174
-946075
-946111
-945646
-944955
-944082
-943727
-943343
-942899
-942388
-941882
-941614
-941338
-940397
-939656
-938819
-938305
-937729
-937177
-936659
-936123
-935847
-935608
-934954
-934181
-933379
-933093
-932832
-932401
-932193
-931917
-931859
-931894
-931382
-930636
-930140
-929993
-929864
-929607
-929518
-929287
-929318
-929391
-929079
-928708
-928235
-928053
-928115
-927942
-927878
-927837
-927826
-928050
-927700
-927326
-926921
-926823
-926911
-926788
-926754
-926592
-926495
-926633
-926216
-925877
-925480
-925336
-925316
-925079
-925045
-924883
-924971
-924967
-924636
-924229
-923783
-923918
-923983
-923799
-923826
-923737
-923542
-923855
-923671
-923375
-923086
-922975
-923175
-923090
-923140
-923090
-923145
-923298
-922714
-922735
-922423
-922467
-922545
-922490
-922661
-922548
-922746
-922984
-922752
-922450
-922226
-922467
-922604
-922771
-922851
-922918
-923183
-923485
-923340
-923301
-923147
-923369
-923640
-923735
-923965
-924719
-924676
-924933
-924788
-924595
-924523
-924707
-924896
-925099
-926119
-925501
-925603
-925862
-925636
-925403
-925086
-925220
-925370
-925287
-925385
-925344
-925636
-925883
-925604
-925436
-925088
-925111
-925427
-925303
-925398
-925294
-925440
-925575
-925275
-924956
-924583
-924644
-924653
-924531
-924518
-924317
-924312
-924451
-924095
-923656
-923331
-923294
-923332
-923300
-923230
-922990
-923102
-923288
-922922
-922579
-922282
-922130
-922167
-922108
-922122
-921955
-922208
-922313
-922097
-921928
-921504
-921560
-921603
-921538
-921581
-921502
-921598
-922003
-921723
-921531
-921251
-921293
-921498
-921501
-921606
-921513
-921771
-921913
-921765
-921489
-921280
-921415
-921419
-921508
-921568
-921602
-921700
-921940
-921746
-921478
-921153
-921247
-921365
-921460
-921480
-921380
-921643
-921799
-921636
-921367
-921070
-921143
-921385
-921326
-921397
-921337
-921483
-921623
-921350
-921258
-920988
-921103
-921277
-921369
-921458
-921394
-921454
-921775
-921500
-921040
-921091
-921251
-921494
-921562
-921703
-921686
-921966
-922162
-921945
-921760
-921507
-921618
-921967
-922030
-922150
-922286
-922445
-922666
-922562
-922452
-922164
-922198
-922541
-922715
-922865
-922990
-923268
-923518
-923460
-923275
-923160
-923257
-923589
-923801
-923883
-923923
-924147
-924340
-924118
-923833
-923603
-923715
-923785
-923889
-923946
-924031
-924216
-924573
-924489
-924241
-924165
-924194
-924239
-924523
-924576
-924613
-924847
-925066
-924948
-924763
-924709
-924773
-924967
-925183
-925220
-925368
-925606
-925769
-925728
-925667
-925529
-925601
-925926
-926027
-926101
-926248
-926544
-926779
-926708
-926589
-926434
-926692
-927047
-927187
-927401
-927525
-927896
-928151
-928082
-928155
-928056
-928411
-928777
-928884
-929100
-929192
-929437
-929722
-929784
-929712
-929698
-929839
-929959
-930337
-930518
-930848
-931100
-931378
-931343
-931188
-931154
-931362
-931650
-931842
-932042
-932206
-932473
-932830
-932725
-932548
-932562
-932757
-932904
-933154
-933347
-933547
-933890
-934164
-934081
-933997
-934060
-934245
-934671
-935015
-935191
-935208
-935410
-935508
-935345
-935064
-934778
-934936
-935207
-935528
-935903
-936151
-936447
-936643
-936786
-936530
-936626
-936723
-936946
-937059
-936933
-937141
-937260
-937174
-936792
-936311
-936032
-935888
-935678
-935326
-934958
-934689
-934385
-933922
-933144
-932343
-931649
-931095
-930680
-930209
-929720
-929234
-928814
-928377
-927529
-926735
-926227
-925775
-925414
-924978
-924592
-924268
-924080
-923670
-923113
-922530
-922203
-922116
-921963
-921823
-921462
-921528
-921687
-921498
-921225
-920850
-920491
-920490
-920425
-920411
-920113
-920241
-920359
-920319
-919950
-919629
-919513
-919488
-919506
-919519
-919518
-919510
-919690
-919756
-919654
-919351
-919113
-919163
-919361
-919416
-919574
-919601
-919776
-919807
-919603
-919260
-919166
-919193
-919168
-919206
-919208
-919336
-919578
-919494
-919298
-918901
-918732
-918880
-919025
-919168
-919288
-919430
-919690
-919750
-919658
-919364
-919279
-919361
-919579
