PPG
-583749
-583873
-584039
-584260
-584432
-584548
-584685
-584828
-584992
-585230
-585370
-585589
-585670
-585912
-586153
-586413
-586620
-586729
-586939
-587116
-587356
-587564
-587751
-587929
-588176
-588257
-588423
-588634
-588796
-588997
-589069
-589257
-589477
-589552
-589712
-589899
-590021
-590143
-590305
-590507
-590670
-590937
-591069
-591270
-591397
-591550
-591720
-591996
-592007
-592281
-592434
-592639
-592831
-592980
-593005
-593177
-593450
-593610
-593645
-593784
-593947
-594265
-594389
-594449
-594670
-594715
-594967
-595098
-595213
-595367
-595515
-595609
-595973
-596093
-596286
-596928
-596686
-596758
-596853
-597024
-597111
-597131
-597244
-597324
-597494
-597628
-597782
-597854
-597946
-598051
-598199
-598308
-598326
-598454
-598540
-598734
-598822
-598901
-598983
-599130
-599187
-599316
-599221
-599274
-599272
-599330
-599202
-599099
-598916
-598727
-598520
-598149
-597735
-596951
-596500
-596053
-595470
-594926
-594167
-593299
-591819
-591130
-590272
-589449
-588516
-587687
-586810
-585802
-583840
-582865
-581913
-581031
-580062
-579192
-578279
-577403
-576672
-575710
-574880
-574151
-573442
-572687
-571948
-571246
-570607
-570079
-569549
-568985
-568506
-568012
-567579
-567194
-566855
-566505
-566192
-565869
-565636
-565454
-565290
-564969
-564831
-564625
-564530
-564516
-564523
-564502
-564428
-564413
-564411
-564388
-564474
-564575
-564718
-564810
-564838
-564894
-565034
-565197
-565351
-565530
-565694
-565947
-566077
-566291
-566497
-566685
-566961
-567048
-567265
-567545
-567791
-568553
-568424
-568501
-568820
-569013
-569256
-569598
-569815
-570090
-570419
-570648
-570903
-571315
-571673
-572023
-572247
-572512
-572852
-573189
-573546
-573729
-574146
-574535
-574726
-575190
-575562
-575836
-576186
-576473
-576893
-577267
-577504
-577865
-578237
-578549
-578851
-579063
-579235
-579530
-579844
-580031
-580274
-580540
-580748
-580887
-581116
-581272
-581341
-581536
-581673
-581941
-581936
-582059
-582322
-582377
-582450
-582558
-582651
-582764
-582721
-582771
-582855
-582881
-582900
-582881
-582970
-582927
-582881
-582882
-582856
-582714
-582695
-582673
-582628
-582509
-582465
-582329
-582279
-582006
-581992
-581947
-581790
-581720
-581573
-581430
-581379
-581162
-581041
-580911
-580838
-580681
-580528
-580307
-580274
-580176
-580079
-579908
-579852
-579784
-579715
-579641
-579603
-579487
-579545
-579449
-579455
-579204
-579377
-579450
-579565
-579632
-579518
-579689
-579793
-579801
-579661
-579828
-579983
-580139
-580269
-580389
-580542
-580720
-580835
-580956
-581104
-581237
-581438
-581572
-581799
-582004
-582159
-582456
-582663
-582857
-583069
-582995
-583350
-583620
-583891
-584102
-584383
-584610
-584907
-585109
-585268
-585438
-585637
-585936
-585980
-586367
-586617
-586919
-587181
-587360
-587560
-587859
-588135
-588402
-588627
-588909
-589092
-589436
-589674
-589907
-590168
-590474
-590734
-590902
-591328
-591627
-591773
-592076
-592513
-592787
-593098
-593395
-593656
-594059
-594362
-594650
-594906
-595284
-595610
-595873
-596224
-596463
-596843
-597103
-597479
-597810
-598084
-598438
-598631
-598857
-599284
-599553
-599834
-600072
-600441
-600742
-600980
-601312
-601596
-601851
-602177
-602351
-602579
-602871
-603166
-603477
-603688
-603890
-604164
-604347
-604795
-605126
-605351
-605544
-605770
-606054
-606311
-606559
-606844
-607157
-607391
-607567
-607641
-607601
-607666
-607775
-607667
-607569
-607410
-607299
-607007
-606609
-606235
-605848
-605303
-604756
-604156
-603444
-602638
-601832
-601032
-600203
-599345
-598460
-597466
-596470
-595493
-594464
-593362
-592379
-591357
-590398
-589342
-588339
-587387
-586427
-585450
-584466
-583562
-582627
-581692
-580785
-579950
-579175
-578318
-577562
-576922
-576249
-575509
-574833
-574367
-573729
-573233
-572723
-572202
-571829
-571403
-570988
-570550
-570136
-569933
-569622
-569350
-569104
-568833
-568702
-568473
-568306
-568235
-567922
-567887
-567863
-567781
-567707
-567639
-567624
-567536
-567619
-567580
-567558
-567571
-567713
-567735
-567782
-567803
-567930
-568114
-568192
-568283
-568416
-568560
-568976
-569546
-569781
-569946
-570182
-570495
-570986
-571253
-571774
-572134
-572483
-572826
-573079
-573399
-573631
-574004
-574396
-574689
-574965
-575310
-575739
-576018
-576417
-576707
-577077
-577380
-577761
-578359
-578717
-579040
-579301
-579567
-579867
-580450
-580745
-580983
-581224
-581604
-581899
-582050
-582269
-582451
-582674
-582948
-583122
-583337
-583578
-583766
-583995
-584049
-584279
-584380
-584467
-584600
-584706
-584792
-584909
-585084
-585111
-585112
-585198
-585253
-585252
-585382
-585761
-585506
-585407
-585425
-585437
-585417
-585437
-585365
-585491
-585290
-585416
-585394
-585427
-585424
-585373
-585460
-585409
-585432
-585457
-585573
-585555
-585599
-585707
-585678
-585744
-585766
-585808
-585811
-585813
-585899
-585986
-586104
-586149
-586491
-586716
-586807
-586860
-586980
-587021
-587130
-587214
-587200
-587357
-587411
-587536
-587602
-587673
-587774
-587861
-587916
-588200
-588312
-588354
-588477
-588653
-588861
-588896
-588971
-589074
-589194
-589335
-589450
-589664
-589784
-589861
-590033
-590212
-590335
-590481
-590503
-590701
-590858
-590870
-590914
-591225
-591399
-591427
-591541
-591731
-591829
-591964
-592179
-592308
-592386
-592565
-592724
-592775
-592977
-592996
-593152
-593276
-593385
-593624
-593719
-593969
-594159
-594529
-594461
-594448
-594586
-594791
-594890
-595119
-595170
-595294
-595445
-595530
-595683
-595796
-595947
-596030
-596139
-596219
-596366
-596569
-596580
-596802
-596914
-596949
-597082
-597167
-597377
-597469
-597547
-597733
-597867
-597957
-598042
-598111
-598180
-598321
-598495
-598553
-598614
-598827
-598872
-598935
-598929
-599143
-599207
-599175
-599220
-599180
-599037
-598899
-598759
-598515
-598263
-597938
-597585
-597249
-596665
-596158
-595653
-594953
-594241
-593476
-592806
-592125
-591176
-590299
-589359
-588554
-587636
-586558
-585582
-584504
-583597
-582627
-581544
-580647
-579611
-578653
-577698
-576792
-575848
-574974
-574104
-573144
-572364
-571579
-570717
-570059
-569369
-568643
-567980
-567355
-566773
-566231
-565787
-565292
-564813
-564449
-564073
-563700
-563286
-562955
-562747
-562456
-562180
-562010
-561791
-561736
-561540
-561431
-561206
-561151
-561067
-561075
-561090
-561045
-561032
-561043
-561102
-561157
-561192
-561270
-561357
-561402
-561523
-561724
-561791
-562006
-562232
-562663
-565730
-566010
-570348
-570528
-570826
-571249
-571561
-571823
-572112
-572387
-572743
-573012
-573255
-573424
-573745
-574007
-574256
-574474
-574736
-574943
-575236
-575407
-575557
-575715
-576442
-576488
-576646
-576765
-576930
-577024
-577080
-577186
-577301
-577349
-577444
-577465
-577565
-577715
-577668
-577693
-577659
-577672
-577759
-577754
-577826
-577716
-577702
-577749
-577696
-577713
-577614
-577619
-577680
-577711
-577647
-577526
-577516
-577587
-577537
-577505
-577426
-577341
-577391
-577755
-577434
-577365
-577310
-577301
-577288
-577347
-577296
-577281
-577285
-577377
-577422
-577421
-577424
-577600
-577680
-577663
-577652
-577713
-577808
-577890
-577997
-578064
-578087
-578206
-578282
-578447
-578531
-578680
-578812
-578858
-578978
-579144
-579309
-579461
-579587
-579708
-579806
-579930
-580075
-580262
-580395
-580576
-580703
-581020
-581218
-581280
-581486
-581615
-581798
-582003
-582074
-582283
-582514
-582708
-582744
-582968
-583068
-583228
-583437
-583589
-583790
-583912
-584155
-584315
-584475
-584688
-584823
-585013
-585246
-585409
-585664
-585795
-585940
-586262
-586417
-586626
-586738
-586890
-587127
-587227
-587449
-587562
-587804
-588049
-588233
-588337
-588565
-588759
-588972
-589107
-589300
-589516
-589598
-589836
-589930
-590101
-590226
-590354
-590482
-590577
-590691
-590779
-590976
-591119
-591236
-591399
-591537
-591564
-591729
-591858
-591989
-592154
-592210
-592442
-592540
-592649
-592730
-592842
-593012
-593109
-593272
-593464
-593610
-593750
-593888
-593937
-594008
-594153
-594148
-594169
-594138
-594078
-594120
-594006
-593878
-593736
-593394
-593053
-592741
-592319
-591846
-591348
-590773
-590210
-589597
-588863
-588149
-587445
-586584
-585835
-584928
-584097
-583156
-582303
-581382
-580581
-579510
-578577
-577618
-576691
-575710
-574900
-574024
-573133
-572279
-571383
-570561
-569900
-569039
-568285
-567620
-566889
-566236
-565635
-564979
-564378
-563838
-563329
-562835
-562432
-562029
-561556
-561318
-561012
-560597
-560322
-559996
-559811
-559480
-559396
-559288
-559148
-559026
-558981
-558834
-558806
-558736
-558722
-558742
-558773
-558747
-558818
-558836
-558927
-558995
-559044
-559046
-559159
-559247
-559424
-559547
-559651
-559834
-560072
-560240
-560426
-560555
-560739
-561009
-561129
-561442
-561552
-562296
-562319
-562490
-562691
-562970
-563196
-563585
-563788
-564135
-564438
-564787
-565175
-565500
-565803
-566044
-566295
-566615
-566881
-567261
-567413
-567813
-568168
-568539
-568802
-569061
-569329
-569990
-569977
-570155
-570379
-570597
-570918
-571170
-571280
-571511
-571731
-571920
-572195
-572296
-572503
-572784
-572886
-573052
-573290
-573332
-573540
-573584
-573692
-573823
-573900
-574061
-574214
-574257
-574289
-574404
-574392
-574456
-574486
-574535
-574499
-574603
-574562
-574536
-574569
-574589
-574583
-574587
-574565
-574537
-574470
-574433
-574385
-574400
-574375
-574340
-574303
-574328
-574211
-574213
-574199
-574172
-574111
-574155
-573931
-573986
-573975
-574061
-574003
-574058
-573926
-573921
-573975
-573935
-573979
-574004
-574002
-574025
-573916
-574037
-574041
-574154
-574261
-574304
-574326
-574344
-574505
-574598
-574606
-574624
-574742
-574845
-574896
-574916
-575108
-575177
-575246
-575375
-575443
-575386
-575506
-575751
-575884
-576024
-576164
-576207
-576343
-576551
-576543
-576746
-576939
-577065
-577219
-577390
-577571
-577647
-577789
-578047
-578239
-578442
-578602
-578819
-578954
-579071
-579292
-579416
-580041
-579991
-580076
-580305
-580474
-580579
-580810
-580976
-580889
-581080
-581405
-581696
-581933
-582184
-582319
-582644
-582892
-583133
-583381
-583586
-583813
-584073
-584211
-584405
-584735
-584994
-585257
-585489
-585674
-585918
-586162
-586421
-586695
-586964
-587137
-587416
-587722
-587926
-588192
-588356
-588626
-588782
-589168
-589441
-589725
-590035
-590538
-590730
-590981
-591198
-591446
-591612
-591896
-592177
-592488
-592705
-592881
-593096
-593288
-593549
-593798
-594463
-594693
-595044
-595171
-595294
-595469
-595603
-595845
-595847
-595754
-595784
-595830
-595758
-595610
-595453
-595259
-594923
-594633
-594318
-593802
-593382
-592908
-592320
-591691
-591056
-590501
-589768
-589041
-588269
-587501
-586775
-586011
-585094
-584166
-583351
-582566
-581780
-580954
-580060
-579262
-578500
-577603
-576850
-575912
-574910
-574472
-573904
-573334
-572586
-571964
-571417
-570969
-570419
-569813
-569297
-568940
-568564
-568271
-567902
-567630
-567377
-567146
-566877
-566697
-566505
-566443
-566308
-566265
-566202
-566119
-566131
-566008
-565990
-566469
-566117
-566026
-566178
-566247
-566306
-566355
-566541
-566682
-566873
-567045
-567125
-567315
-567558
-567771
-568004
-568195
-568544
-568757
-569056
-569320
-569552
-569908
-570211
-570495
-570749
-571065
-571453
-571849
-572161
-572510
-572885
-573219
-573526
-573914
-574248
-574576
-574991
-575367
-575745
-575940
-576394
-576751
-577140
-577498
-577759
-578147
-578477
-578830
-579095
-579495
-579810
-580168
-580387
-580716
-580983
-581275
-581581
-581825
-582038
-582065
-582432
-582723
-583291
-583504
-583652
-583812
-583956
-583969
-584109
-584196
-584217
-584170
-584205
-584316
-584225
-584175
-584090
-583517
-583224
-582269
-582048
-581787
-581399
-581103
-580646
-580353
-579811
-579623
-579348
-579047
-578749
-578436
-577811
-576714
-576509
-576190
-575845
-575188
-574874
-574603
-574207
-573884
-573511
-573283
-572921
-572613
-572136
-571881
-570673
-569237
-568928
-568737
-568467
-573619
-573638
-573200
-572406
-572003
-571608
-571335
-570902
-570427
-569897
-569356
-568808
-568212
-567572
-566918
-566247
-565496
-564825
-564035
-563255
-562538
-561751
-560943
-560089
-559388
-558644
-557903
-557150
-556341
-555615
-554957
-554283
-553550
-552913
-552235
-551567
-550978
-550399
-549841
-548444
-548440
-548384
-547941
-547305
-546865
-546581
-546379
-546059
-545789
-545588
-545318
-545023
-544971
-544809
-544676
-544622
-544655
-544637
-544628
-544591
-544592
-544638
-544728
-544777
-544746
-544937
-545016
-545138
-545236
-545414
-545661
-545798
-545953
-546182
-546328
-546588
-546833
-547098
-547862
-548130
-548591
-548911
-549197
-549489
-549793
-550157
-550409
-550855
-551079
-551439
-551742
-552130
-552527
-552962
-553372
-553712
-554082
-554524
-554884
-555357
-555768
-556143
-556582
-556998
-557256
-557776
-558334
-558666
-559134
-559573
-560001
-560346
-560813
-561176
-561714
-562135
-562568
-563046
-563432
-563789
-564152
-564567
-565042
-565551
-566051
-566346
-566795
-567193
-567504
-567931
-568221
-568535
-568874
-569241
-569435
-569657
-569969
-570190
-570904
-571076
-571315
-571547
-571719
-571894
-572598
-572830
-572973
-572947
-573097
-573225
-573301
-573294
-573379
-573446
-573495
-573560
-573600
-573665
-573752
-573705
-573825
-574042
-573955
-574128
-574298
-574692
-574887
-574968
-575223
-575211
-575495
-575506
-575672
-576038
-576070
-576067
-576238
-576355
-576525
-576656
-576752
-576875
-576991
-577230
-577349
-577492
-577728
-578000
-578208
-578398
-578594
-578886
-579108
-579275
-579553
-579648
-579903
-580023
-580185
-580473
-580698
-580868
-581043
-581357
-581484
-581785
-582088
-582293
-582508
-582856
-583156
-583298
-583524
-583871
-584075
-584222
-584434
-584649
-584865
-585181
-585314
-585629
-585774
-586101
-586330
-586530
-586754
-586933
-587162
-587919
-588122
-588339
-588615
-588719
-588939
-589216
-589422
-589635
-589792
-590030
-590206
-590387
-590436
-590789
-590911
-591045
-591221
-591374
-591586
-591767
-591990
-592081
-592228
-592308
-592492
-592706
-592842
-593048
-593113
-593208
-593417
-593486
-593640
-593633
-593749
-593732
-593815
-593769
-593619
-593616
-593566
-593403
-593114
-592700
-592301
-591991
-591513
-590971
-590419
-589698
-589045
-588350
-587670
-586835
-585876
-585126
-584247
-583316
-582375
-581501
-580493
-579539
-578405
-577517
-576524
-575537
-574613
-573559
-572658
-571733
-570783
-569842
-568973
-568103
-567253
-566427
-565642
-564838
-564250
-563553
-562861
-562275
-561787
-561142
-560671
-560217
-559763
-559308
-559003
-558673
-558388
-558017
-557773
-557490
-557367
-557187
-557002
-556837
-556742
-556642
-556650
-556581
-556732
-556572
-556487
-556498
-556489
-556537
-556586
-556636
-556769
-556791
-556927
-556954
-557109
-557219
-557436
-557613
-557740
-557944
-558208
-558435
-558626
-558815
-559095
-559363
-559677
-559957
-560228
-560626
-560881
-561242
-561623
-561943
-562246
-562694
-563004
-563279
-563632
-563993
-564388
-564769
-565045
-565312
-565684
-565898
-566260
-566669
-567029
-567317
-567677
-567980
-568168
-568396
-569126
-569297
-569751
-570196
-570443
-570595
-570730
-570888
-571107
-571294
-571492
-571664
-571787
-571919
-572065
-572091
-572238
-572325
-572483
-572611
-572653
-572693
-572844
-572881
-572932
-572904
-572995
-573029
-572993
-572971
-572983
-572919
-572903
-572984
-573005
-572938
-572908
-572864
-572875
-572779
-572825
-572817
-572794
-572811
-572788
-572777
-572785
-572802
-572797
-572756
-572729
-572849
-572773
-572797
-572766
-572837
-572776
-572898
-572990
-572944
-573034
-573109
-573085
-573097
-573116
-573171
-573285
-573227
-573319
-573389
-573525
-573516
-573576
-573551
-573673
-573756
-573854
-573938
-573968
-574085
-574114
-574139
-574419
-574429
-574512
-574639
-574755
-574842
-574982
-575493
-575731
-575954
-576109
-576244
-576380
-576577
-576721
-576676
-576869
-577006
-577154
-577298
-577511
-577671
-577758
-577937
-578051
-578252
-578435
-578608
-578823
-578935
-579001
-579258
-579503
-579671
-579801
-579934
-580219
-580445
-580610
-580860
-581003
-581208
-581485
-581633
-581781
-582050
-582262
-582520
-582711
-582841
-583028
-583250
-583444
-583623
-583835
-584096
-584216
-584410
-584528
-584745
-584692
-584997
-585161
-585244
-585220
-585324
-585314
-585277
-585287
-585135
-584964
-584748
-584438
-584195
-583709
-583253
-582780
-582208
-581709
-581092
-580423
-579784
-579069
-578326
-577566
-576704
-575904
-575071
-574233
-573438
-572551
-571657
-570785
-569944
-569011
-568189
-567334
-566441
-565667
-564841
-564094
-563293
-562530
-561761
-561027
-560364
-559660
-559047
-558450
-557926
-557269
-556798
-556291
-555803
-555397
-554882
-554593
-554142
-553872
-553562
-553280
-553115
-552897
-552718
-552432
-552276
-552177
-552063
-551969
-551949
-551788
-551827
-551831
-551876
-551896
-551837
-551874
-551948
-552122
-552219
-552279
-552370
-552534
-552711
-552810
-552974
-553116
-553349
-553500
-553824
-553948
-554161
-554473
-554658
-554931
-555151
-555392
-555693
-555994
-556371
-556525
-556889
-557304
-557581
-557877
-558258
-558640
-558871
-559203
-559617
-559871
-560232
-560658
-560964
-561277
-561538
-561955
-562213
-562483
-562884
-563156
-563459
-563771
-563951
-564230
-564529
-564776
-564967
-565229
-565555
-565742
-565959
-566177
-566321
-566496
-566546
-566733
-566910
-567066
-567182
-567209
-567384
-567500
-567506
-567599
-567612
-567645
-567687
-567723
-567760
-567728
-567775
-567863
-567864
-567778
-567744
-567658
-567700
-567701
-567722
-567647
-567629
-567515
-567462
-567477
-567496
-567379
-567386
-567304
-567195
-567174
-567212
-567101
-567080
-567112
-567027
-567018
-567127
-567050
-567042
-567077
-567100
-567120
-567174
-567268
-567326
-567376
-567345
-567521
-567605
-567694
-567679
-567776
-567863
-567914
-567988
-568131
-568250
-568334
-568370
-568414
-568578
-568634
-568881
-568918
-569075
-569127
-569201
-569347
-569392
-569516
-569718
-569770
-569773
-569958
-570077
-570185
-570299
-570350
-570499
-570676
-570802
-570810
-570930
-570979
-571066
-571275
-571324
-571412
-571605
-571785
-571880
-572063
-572237
-572361
-572579
-572749
-572860
-573034
-573563
-573505
-573528
-573697
-573775
-573920
-574163
-574300
-574416
-574614
-574804
-575008
-575115
-575340
-575433
-575557
-575758
-575957
-576197
-576299
-576528
-576703
-576846
-577012
-577158
-577286
-577560
-577744
-577835
-578026
-578115
-578333
-578518
-578604
-578683
-578957
-579077
-579197
-579290
-579316
-579430
-579486
-579432
-579445
-579256
-579061
-578864
-578641
-578297
-577860
-577502
-577056
-576482
-575868
-575297
-574602
-573897
-573141
-572332
-571506
-570716
-569783
-568843
-567914
-566875
-566009
-565013
-564018
-563047
-562062
-561077
-560064
-559112
-558192
-557257
-556341
-555418
-554539
-553784
-552877
-552027
-551336
-550555
-549812
-549130
-548578
-547992
-547352
-546764
-546304
-545823
-545381
-544945
-544392
-544007
-543782
-543441
-543160
-542870
-542515
-542316
-542135
-541958
-541808
-541576
-541501
-541384
-541332
-541176
-541142
-541108
-540973
-541076
-541002
-541071
-541184
-541234
-541332
-541318
-541349
-541435
-541464
-541578
-541710
-541807
-541916
-542103
-542170
-542276
-542453
-542657
-542736
-542888
-543073
-543273
-543420
-543668
-543901
-544038
-544319
-544469
-544760
-544961
-545173
-545398
-545713
-545965
-546258
-546564
-546907
-547175
-547438
-547598
-547861
-548180
-548539
-548918
-549102
-549375
-549755
-549982
-550331
-550511
-550885
-551133
-551413
-551665
-551962
-552238
-552441
-552654
-552901
-553195
-553326
-553549
-553752
-553926
-554276
-554472
-554536
-554655
-554891
-554965
-555063
-555190
-555176
-555253
-555362
-555421
-555306
-555364
-555347
-555438
-555431
-555449
-555373
-555420
-555404
-555489
-555438
-555363
-555351
-555345
-555365
-555382
-555320
-555318
-555394
-555338
-555364
-555210
-555141
-555193
-555169
-555295
-555327
-555328
-555306
-555367
-555351
-555375
-555447
-555413
-555449
-555693
-555723
-555789
-555831
-555964
-555966
-556362
-556221
-556282
-556339
-556442
-556448
-556551
-556605
-556679
-556730
-556883
-556927
-556988
-557189
-557204
-557343
-557344
-557495
-557564
-557736
-557831
-557865
-558048
-558203
-558312
-558418
-558526
-558669
-558785
-558955
-559057
-559179
-559266
-559528
-559590
-559710
-559820
-559979
-560078
-560211
-560419
-560581
-560688
-560933
-561022
-561160
-561318
-561553
-561670
-561808
-562045
-562199
-562298
-562563
-562716
-562885
-562968
-563204
-563309
-563417
-563631
-563721
-563840
-564182
-564319
-564512
-564667
-564845
-565020
-565092
-565392
-565559
-565773
-566025
-566108
-566327
-566471
-566632
-566853
-566962
-567225
-567127
-567439
-567625
-567740
-567874
-567850
-567933
-567931
-567844
-567809
-567661
-567445
-567131
-566783
-566387
-566005
-565435
-564880
-564329
-563680
-562978
-561460
-560597
-558806
-556923
-555974
-552934
-551978
-550939
-549919
-548902
-547866
-546986
-545990
-545112
-544172
-543315
-542480
-541629
-540857
-540136
-539373
-538693
-538040
-537393
-536830
-536225
-535690
-535214
-534679
-534230
-533815
-533384
-533176
-532806
-532450
-532157
-531887
-531668
-531533
-531260
-531017
-530934
-530891
-530737
-530683
-530576
-530552
-530484
-530102
-530204
-530245
-530384
-530394
-530426
-530329
-530393
-530450
-530612
-530595
-530683
-530812
-530882
-530950
-531059
-531219
-531233
-531335
-531585
-531712
-531740
-531886
-532064
-532181
-532389
-532562
-532793
-532968
-533132
-533364
-533497
-533783
-533961
-534169
-534397
-534708
-534997
-535312
-535587
-535821
-536060
-536357
-536638
-537006
-537268
-537543
-537865
-538226
-538439
-538775
-539051
-539274
-539648
-539931
-540193
-540529
-540858
-541105
-541398
-541707
-542008
-542199
-542427
-542651
-542903
-543213
-543437
-543638
-543799
-543978
-544154
-544366
-544564
-545068
-545310
-545432
-545437
-545587
-545770
-545805
-545771
-545808
-545929
-546187
-546194
-546238
-546307
-546387
-546346
-546399
-546422
-546475
-546453
-546535
-546492
-546578
-546542
-546684
-546668
-546797
-546803
-547035
-547027
-547143
-547158
-547333
-547388
-547552
-547573
-547696
-547862
-548099
-548259
-548476
-548516
-548617
-548818
-548939
-549073
-549327
-549457
-549509
-549774
-549839
-549971
-550079
-550393
-550546
-550595
-550727
-550943
-551013
-551063
-551380
-551593
-551904
-552028
-552108
-552252
-552374
-552479
-552566
-552727
-552880
-553027
-553153
-553281
-553429
-553546
-553665
-553759
-554040
-554094
-554255
-554395
-554528
-554668
-554825
-554965
-555035
-555225
-555325
-555504
-555718
-555829
-555982
-556081
-556223
-556393
-556537
-556760
-557011
-557084
-557310
-557446
-557678
-557833
-558001
-558199
-558366
-558497
-558737
-558953
-559215
-559445
-559677
-559801
-560046
-560286
-560643
-560734
-560874
-561111
-561420
-561555
-561783
-561988
-562250
-562402
-562618
-562828
-563155
-563285
-563490
-563619
-563856
-564013
-564133
-564330
-564436
-564408
-564489
-564539
-564486
-564227
-564084
-563869
-563628
-563181
-562828
-562418
-561899
-561302
-560581
-559896
-559161
-558387
-557495
-556635
-555709
-554723
-553790
-552813
-551867
-550891
-549859
-548830
-547753
-546774
-545766
-544801
-543836
-542894
-541832
-540837
-539989
-539198
-538330
-537350
-536611
-535955
-535192
-534506
-533912
-533232
-532574
-532019
-531550
-531024
-530476
-530007
-529604
-529211
-528893
-528556
-528256
-528048
-527802
-527483
-527290
-527102
-527017
-526859
-526759
-526618
-526585
-526499
-526401
-526412
-526311
-526320
-526347
-526311
-526368
-526402
-526512
-526521
-526586
-526663
-526688
-526822
-526884
-527045
-527198
-527310
-527484
-527513
-527739
-527853
-528028
-528210
-528459
-528653
-528882
-529085
-529365
-529650
-529826
-530060
-530285
-530535
-530950
-531143
-531531
-531748
-532140
-532504
-532780
-533007
-533325
-533675
-533910
-534243
-534608
-534917
-535254
-535660
-535944
-536237
-536385
-536783
-537157
-537404
-537784
-537971
-538273
-538578
-538824
-539078
-539224
-539478
-539768
-540034
-540296
-540417
-540674
-540833
-540988
-541093
-541179
-541374
-541456
-541532
-541685
-541786
-541902
-541945
-542072
-542082
-542123
-542220
-542273
-542268
-542167
-542323
-542357
-542401
-542277
-542273
-542285
-542324
-542301
-542316
-542240
-542237
-542208
-542264
-542238
-542248
-542190
-542217
-542253
-542224
-542229
-542164
-542237
-542145
-542127
-542179
-542238
-542312
-542325
-542372
-542380
-542367
-542414
-542272
-542393
-542367
-542534
-542678
-542682
-542706
-542826
-542810
-542921
-542939
-543020
-543046
-543204
-543327
-543352
-543434
-543639
-543702
-543809
-543890
-543937
-544020
-544054
-544200
-544325
-544389
-544426
-544656
-544721
-544686
-544895
-545078
-545358
-545566
-545701
-545849
-546045
-546124
-546221
-546389
-546564
-546794
-546930
-547172
-547199
-547239
-547407
-547460
-547521
-547505
-547504
-547639
-547686
-547737
-547855
-548010
-548099
-548156
-548152
-548139
-548177
-548340
-548410
-548452
-548516
-548640
-548736
-548866
-548964
-548968
-549126
-549321
-549481
-549626
-549723
-549819
-550033
-550228
-550352
-550380
-550575
-550720
-550866
-550970
-551060
-551215
-551464
-551559
-551613
-551767
-551879
-552088
-552270
-552331
-552502
-552668
-552816
-552879
-552998
-553194
-553220
-553336
-553513
-553649
-553755
-553883
-554102
-554190
-554372
-554574
-554737
-554805
-554957
-555184
-555382
-555477
-555621
-555821
-555968
-556069
-556217
-556410
-556570
-556695
-556734
-556830
-557152
-557570
-559160
-560747
-560854
-558336
-557733
-557154
-556504
-555674
-547563
-544534
-543590
-542574
-541572
-540719
-539710
-538735
-537898
-537095
-536164
-535258
-534484
-533769
-533047
-532452
-531707
-531075
-530449
-529923
-529401
-528853
-528398
-528043
-527616
-527242
-526901
-526897
-526483
-526060
-525577
-525414
-525197
-525000
-524849
-524729
-524629
-524639
-524570
-524529
-524503
-524381
-524436
-524461
-524423
-524474
-524424
-524416
-524607
-524671
-524702
-524823
-524946
-525031
-525167
-525261
-525441
-525654
-525777
-525886
-525975
-526168
-526400
-526529
-526677
-526891
-527104
-527313
-527471
-527733
-527881
-528102
-528345
-528610
-528862
-528957
-529298
-529576
-529886
-530058
-530238
-530308
-530717
-530982
-531371
-531555
-531902
-532142
-532391
-532517
-532779
-532983
-533264
-533541
-533805
-533923
-534150
-534439
-534621
-534884
-534960
-535132
-535400
-535555
-535725
-535851
-536029
-536128
-536219
-536424
-536437
-536505
-536668
-536701
-536759
-536893
-536957
-536988
-536909
-536919
-537015
-536933
-536928
-536999
-536940
-536861
-536914
-536762
-536719
-536702
-536760
-536685
-536660
-536599
-536562
-536627
-536596
-536420
-536511
-536406
-536380
-536420
-536431
-536445
-536420
-536368
-536411
-536327
-536349
-536263
-536294
-536150
-536121
-536303
-536408
-536359
-536419
-536387
-536523
-536558
-536571
-536594
-536624
-536660
-536783
-536821
-536902
-536910
-536891
-537071
-537234
-537239
-537385
-537359
-537550
-537639
-537787
-537891
-537970
-538034
-538175
-538241
-538501
-538566
-538785
-538732
-538950
-539084
-539217
-539386
-539597
-539755
-539860
-540017
-540195
-540261
-540431
-540493
-540712
-540870
-541047
-541128
-541210
-541442
-541522
-541799
-541772
-541856
-542050
-542280
-542380
-542517
-542706
-542878
-542984
-543108
-543233
-543330
-543506
-543639
-543800
-543945
-544004
-543972
-544316
-544390
-544505
-544610
-544732
-544911
-545072
-545258
-545315
-545436
-545596
-545746
-545779
-545893
-546025
-546171
-546757
-546661
-546650
-546784
-546915
-547050
-547118
-547262
-547375
-547501
-547653
-547729
-547787
-548011
-548146
-548325
-548416
-548553
-548697
-548871
-548923
-549135
-549177
-549349
-549602
-549677
-549731
-549891
-550043
-550186
-550277
-550431
-550499
-550617
-550802
-550821
-550979
-551038
-551135
-551606
-551443
-551486
-551539
-551665
-551780
-551852
-551908
-551950
-552051
-552156
-552180
-552309
-552313
-552392
-552442
-552549
-552601
-552617
-552688
-552733
-552804
-552976
-552968
-553051
-553204
-553227
-553321
-553266
-553315
-553435
-553466
-553503
-553427
-553551
-553672
-553755
-553789
-553836
-553940
-554114
-553986
-554569
-554395
-554422
-554525
-554591
-554612
-554727
-554863
-554967
-555070
-555205
-555335
-555537
-555613
-555737
-555757
-555918
-556017
-556104
-556256
-556348
-556272
-556374
-556362
-556325
-556211
-556181
-556034
-555862
-555638
-555343
-554983
-554618
-554119
-553633
-553105
-552513
-551897
-551115
-550316
-549646
-548779
-547959
-547002
-546142
-545200
-544131
-543157
-542216
-541213
-540269
-539222
-538287
-537268
-536621
-535426
-534418
-533485
-532577
-531636
-530882
-529962
-529191
-528438
-527647
-526876
-526214
-525529
-525009
-524393
-523801
-523207
-522790
-522267
-521813
-521423
-521009
-520647
-520213
-519921
-519767
-519445
-519265
-519075
-518876
-518646
-518492
-518354
-518310
-518174
-518071
-517941
-517851
-517885
-517805
-517803
-517782
-517900
-517920
-517824
-517906
-517924
-518045
-518122
-518241
-518237
-518297
-518410
-518508
-518577
-518757
-518777
-518933
-519141
-519209
-519271
-519411
-519465
-519642
-519869
-519917
-520111
-520277
-520545
-520628
-520748
-520898
-521165
-521416
-521594
-521843
-522007
-522290
-522564
-522826
-523003
-523277
-523557
-523929
-524096
-524337
-524651
-525013
-525271
-525499
-525738
-526027
-526252
-526504
-526776
-527030
-527261
-527561
-527843
-528047
-528161
-528347
-528571
-528777
-528984
-529116
-529298
-529508
-529625
-529843
-529832
-530000
-530167
-530294
-530317
-530414
-530480
-530595
-530655
-530704
-530702
-530759
-530867
-530906
-530955
-530989
-531023
-531124
-531132
-531102
-531168
-531075
-531083
-531105
-531139
-531095
-531118
-531192
-531183
-531172
-531156
-531166
-531087
-531122
-531123
-531119
-531079
-531117
-531127
-531224
-531124
-531158
-531176
-531260
-531329
-531322
-531340
-531455
-531484
-531507
-531458
-531541
-531654
-531708
-531835
-531824
-531960
-532011
-532115
-532221
-532188
-532299
-532443
-532458
-532607
-532709
-532798
-532914
-533101
-533127
-533220
-533305
-533494
-533603
-533685
-533797
-533900
-534062
-534162
-534251
-534297
-534489
-534586
-534679
-534846
-534889
-535038
-535186
-535288
-535426
-535472
-535523
-535702
-535822
-535884
-536010
-536033
-536223
-536342
-536430
-536425
-536483
-536645
-536741
-536810
-536820
-536954
-537136
-537237
-537357
-537468
-537575
-537653
-537749
-537900
-537864
-537965
-538197
-538273
-538275
-538390
-538465
-538661
-538706
-538778
-538929
-539118
-539267
-539375
-539332
-539425
-539548
-539677
-539854
-539948
-540003
-540230
-540350
-540486
-540485
-540606
-540751
-540845
-541032
-541100
-541191
-541364
-541515
-541549
-541619
-541737
-541846
-541946
-542056
-542204
-542278
-542455
-542670
-542931
-542917
-543063
-543190
-543385
-543547
-543774
-543915
-544126
-544280
-544436
-544590
-544752
-544901
-545129
-545338
-545506
-545641
-545838
-546051
-546297
-546453
-546629
-546885
-547002
-547593
-547491
-547620
-547817
-547921
-548052
-548237
-548462
-548675
-548839
-549046
-549184
-549448
-549604
-549781
-549919
-549983
-550124
-550314
-550565
-550717
-550870
-551010
-551193
-551422
-551452
-551590
-551771
-551909
-552034
-552224
-552344
-552523
-552697
-552827
-552983
-553054
-553186
-553291
-553491
-553605
-553774
-553878
-554037
-553947
-554205
-554336
-554535
-554657
-554808
-554987
-554943
-555179
-555294
-555481
-555522
-555657
-555770
-556022
-556195
-556222
-556324
-556538
-556607
-556772
-556857
-557001
-557088
-557327
-557414
-557483
-557689
-557745
-557943
-557990
-558090
-558231
-558322
-558452
-558576
-558720
-558654
-558724
-558756
-558792
-558687
-558593
-558484
-558240
-557966
-557677
-557381
-557039
-556505
-555966
-555423
-554703
-554058
-553304
-552549
-551712
-550766
-549876
-548957
-547934
-546941
-545929
-544755
-543653
-542525
-541505
-540372
-539314
-538265
-537167
-536026
-535034
-534095
-532981
-532114
-531150
-530191
-529340
-528487
-527701
-526861
-526147
-525333
-524632
-524019
-523406
-522795
-522295
-521831
-521301
-520854
-520315
-519931
-519593
-519229
-518919
-518723
-518437
-518279
-518038
-517829
-517614
-517380
-517175
-517022
-517002
-516816
-516845
-516760
-516715
-516658
-516626
-516665
-516699
-516674
-516734
-516693
-516813
-516926
-516928
-516963
-516960
-517132
-517200
-517284
-517346
-517448
-517591
-517738
-517762
-517910
-517974
-518144
-518307
-518433
-518564
-518714
-518824
-519038
-519237
-519385
-519564
-519778
-520055
-520125
-520382
-520583
-520807
-520997
-521302
-521530
-521677
-521904
-522242
-522413
-522682
-522888
-523248
-523443
-523678
-523909
-524084
-524280
-524505
-524694
-524912
-525121
-525249
-525486
-525726
-525789
-525975
-526169
-526283
-526461
-526625
-526681
-526807
-526942
-526956
-527044
-527106
-527209
-527277
-527241
-527160
-527302
-527374
-527393
-527313
-527350
-527394
-527367
-527419
-527402
-527373
-527180
-527301
-527350
-527267
-527193
-527160
-527171
-527109
-527056
-527125
-527064
-527056
-527069
-527012
-527036
-527007
-527045
-527037
-526995
-527080
-526931
-527100
-527202
-527200
-527218
-527249
-527288
-527251
-527341
-527409
-527372
-527497
-527530
-527621
-527632
-527691
-527771
-527791
-527899
-528021
-528105
-528164
-528250
-528344
-528442
-528511
-528659
-528683
-528858
-528950
-529047
-529168
-529400
-529472
-529588
-529672
-529835
-529973
-530114
-530297
-530385
-530614
-530812
-530931
-531117
-531282
-531414
-531619
-531796
-531997
-532116
-532276
-532424
-532546
-532729
-532749
-532900
-533342
-533346
-533482
-533550
-533852
-533964
-534148
-534293
-534455
-534558
-534750
-535001
-535142
-535342
-535504
-535695
-535840
-535975
-536112
-536335
-536511
-536613
-536755
-536835
-537169
-537351
-537447
-537595
-537744
-537978
-538230
-538358
-538526
-538674
-538873
-539047
-539154
-539273
-539386
-539558
-539791
-539891
-540076
-540286
-540440
-540603
-540820
-540884
-541061
-541226
-541457
-541662
-541826
-542007
-542202
-542387
-542538
-542746
-542862
-543038
-543278
-543321
-543574
-543666
-543923
-544158
-544359
-544440
-544671
-544836
-544977
-545152
-545284
-545450
-545681
-545917
-545989
-546092
-546218
-546456
-546582
-546760
-546904
-546964
-547302
-547404
-547490
-547552
-547708
-547941
-548103
-548343
-548400
-548500
-548702
-548925
-549090
-549236
-549307
-549476
-549677
-549806
-549979
-549944
-550307
-550458
-550692
-550779
-550995
-551209
-551395
-551585
-551795
-551917
-552053
-552365
-552532
-552706
-552811
-553049
-553321
-553457
-553580
-553765
-554011
-554198
-554391
-554579
-554759
-554794
-554966
-555158
-555302
-555524
-555716
-555936
-556063
-556454
-556435
-556549
-556788
-556982
-557163
-557293
-557446
-557590
-557743
-557880
-557986
-558185
-558174
-558355
-558481
-558549
-558661
-558757
-558679
-558506
-558385
-558324
-558039
-557831
-557639
-557238
-556938
-556566
-556067
-555511
-554863
-554361
-553713
-553053
-552293
-551594
-550938
-550176
-549359
-548476
-547601
-546736
-545852
-544994
-544130
-543207
-542329
-541496
-540640
-539770
-538919
-538019
-537327
-536550
-535858
-535063
-534403
-533711
-533019
-532301
-531726
-531210
-530702
-529233
-528912
-528549
-528367
-527766
-527392
-527155
-526904
-526663
-526454
-526332
-526211
-526042
-525910
-525764
-525815
-525681
-525710
-525720
-525686
-525724
-525826
-525880
-525895
-525995
-525949
-526127
-526148
-526335
-526425
-526542
-526702
-526898
-526995
-527080
-527234
-527534
-527719
-527885
-528121
-528212
-528462
-528761
-529007
-529122
-529428
-529743
-530180
-530274
-530545
-530862
-531075
-531304
-531674
-531887
-532233
-532664
-532928
-533256
-533556
-533930
-535032
-535222
-535595
-535909
-536174
-536654
-536923
-537224
-537651
-537844
-538171
-538443
-538740
-539031
-539256
-539633
-539830
-540040
-540315
-540506
-540851
-541025
-541226
-541446
-541714
-541816
-542344
-542289
-542423
-542646
-542715
-542856
-542911
-543038
-543212
-543241
-543334
-543451
-543546
-543553
-543589
-543657
-543648
-543675
-543794
-543647
-543667
-543732
-543697
-543708
-543629
-543600
-543671
-543581
-543582
-543611
-543595
-543612
-543540
-543453
-543468
-543451
-543390
-543453
-543461
-543338
-543345
-543424
-543395
-543394
-543307
-543276
-543363
-543413
-543380
-543325
-543458
-543467
-543400
-543492
-543505
-543619
-543595
-543715
-543812
-543760
-543858
-543945
-544015
-544128
-544157
-544397
-544467
-544585
-544774
-544921
-545006
-545155
-545636
-545551
-545593
-545746
-545824
-546011
-546218
-546331
-546470
-546512
-546760
-546936
-547119
-547236
-547454
-547615
-547764
-547826
-548033
-548110
-548333
-548538
-548749
-548843
-549006
-549350
-549468
-549683
-549782
-549890
-550108
-550302
-550388
-550626
-550798
-551027
-551222
-551315
-551535
-551598
-551658
-551884
-551977
-552064
-552202
-552345
-552519
-552581
-552655
-552822
-552918
-553127
-553238
-553490
-553532
-553737
-553937
-554015
-554138
-554317
-554506
-554542
-554728
-554917
-555051
-555267
-555401
-555479
-555557
-555659
-555820
-555999
-556049
-556183
-556347
-556463
-556573
-556683
-556793
-556886
-556969
-557120
-557202
-557269
-557337
-557538
-557574
-557591
-557640
-557752
-557843
-557945
-558157
-558064
-558230
-558394
-558541
-558552
-558632
-558760
-558764
-558826
-558961
-559011
-559115
-559272
-559287
-559267
-559441
-559463
-559536
-559636
-559740
-559886
-560030
-560171
-560200
-560188
-560624
-560757
-560881
-561003
-561163
-561208
-561297
-561369
-561435
-561573
-561755
-561865
-561921
-562254
-562355
-562502
-562819
-562874
-562994
-563187
-563210
-563387
-563560
-563837
-563884
-564115
-564283
-564420
-564459
-564552
-564704
-564975
-565075
-565076
-565159
-565163
-565225
-565153
-565112
-564843
-564606
-561369
-557695
-553983
-553197
-547232
-546523
-545891
-545156
-544474
-542122
-537405
-537216
-536790
-536860
-536899
-537063
-537195
-537249
-537398
-538028
-538196
-538985
-539219
-539531
-539780
-540026
-540620
-540606
-540930
-541137
-541712
-542833
-543121
-543445
-543830
-544229
-544546
-545036
-545320
-545816
-546133
-546625
-546939
-547259
-547665
-548061
-548443
-548818
-549130
-549526
-549850
-550697
-551087
-551349
-555074
-554976
-554987
-554873
-554896
-554815
-554720
-554671
-554665
-554577
-554518
-554425
-554418
-554397
-554337
-554247
-554229
-554237
-554214
-554173
-554054
-553975
-554040
-554039
-553996
-553957
-554000
-553972
-553942
-553982
-553957
-553975
-553969
-553936
-554071
-554096
-554088
-554131
-554216
-554253
-554169
-554297
-554362
-554502
-554550
-554528
-554560
-554682
-554762
-554835
-554877
-555011
-555126
-555237
-555275
-555399
-555481
-555647
-555803
-555835
-555884
-556057
-556108
-556296
-556442
-556519
-556652
-556737
-556888
-556995
-557042
-557196
-557286
-557450
-557662
-557774
-557862
-558001
-558157
-558297
-558377
-558926
-558822
-558848
-558954
-559148
-559260
-559447
-559633
-559771
-559861
-560040
-560139
-560278
-560435
-560623
-560624
-560864
-560951
-561072
-561194
-561296
-561417
-561631
-561756
-561865
-561967
-562113
-562211
-562380
-562469
-562852
-562761
-562906
-562947
-563076
-563187
-563365
-563491
-563676
-563684
-563839
-563944
-564121
-564274
-564417
-564482
-564655
-564787
-564922
-565024
-565128
-565342
-565486
-565651
-565771
-565913
-566068
-566124
-566363
-566441
-566520
-566730
-566834
-566950
-567109
-567326
-567550
-567666
-567819
-567863
-568409
-568277
-568290
-568379
-568553
-568611
-569052
-569053
-569318
-569369
-569692
-569863
-569985
-570160
-570321
-570365
-570694
-570896
-571025
-571120
-571179
-571459
-572096
-571913
-571912
-571941
-572078
-572112
-572234
-572243
-572279
-572236
-572290
-572124
-572073
-571834
-571731
-571503
-571024
-570748
-570319
-570263
-569468
-568901
-568234
-567563
-566834
-566088
-565417
-564605
-563708
-562883
-561994
-561085
-560108
-559198
-558351
-557403
-556533
-555523
-554544
-553691
-552756
-551887
-550948
-550132
-549354
-548376
-547675
-546834
-546111
-545377
-544671
-543953
-543322
-542609
-542063
-541557
-541045
-540467
-540048
-539552
-539134
-538715
-538378
-538091
-537816
-537417
-537122
-536871
-536659
-536569
-536312
-536150
-536179
-535870
-535805
-535762
-535615
-535469
-535532
-535503
-535419
-535445
-535516
-535633
-535673
-535632
-535600
-535845
-535965
-536033
-536374
-536407
-536459
-536582
-536663
-536900
-537040
-537122
-537299
-537412
-537688
-537810
-537984
-538197
-538378
-538571
-538869
-539029
-539273
-539451
-539729
-539865
-540217
-540379
-540579
-540834
-541088
-541346
-541599
-541900
-542633
-542619
-542716
-542835
-543089
-543419
-543555
-543812
-544010
-544344
-544558
-544731
-544852
-544988
-545227
-545424
-545549
-545749
-545859
-546074
-546238
-546402
-546502
-546583
-546614
-546774
-546887
-546899
-547032
-547077
-547207
-547224
-547216
-547320
-547376
-547396
-547431
-547328
-547305
-547431
-547402
-547360
-547240
-547325
-547330
-547280
-547246
-547219
-547161
-547110
-547093
-547044
-547000
-546947
-547000
-546941
-546864
-546774
-546708
-546789
-546788
-546679
-546600
-546618
-546606
-546516
-546608
-546528
-546548
-546506
-546503
-546481
-546472
-546572
-547024
-547089
-547251
-547303
-547383
-547563
-547616
-547692
-547797
-547831
-547901
-548018
-548109
-548230
-548428
-548471
-548563
-548662
-548672
-548790
-548926
-549044
-549212
-549302
-549459
-549554
-549695
-550074
-550458
-550487
-550978
-551213
-551273
-551513
-551795
-551955
-552010
-552119
-552201
-552330
-552430
-552572
-552655
-552805
-552904
-553071
-553139
-553296
-553405
-553552
-553664
-553723
-553812
-553913
-554111
-554134
-554173
-554377
-554419
-554576
-554740
-554747
-554919
-555016
-555149
-555302
-555368
-555476
-555535
-555686
-555821
-555908
-556069
-556119
-556350
-556461
-556666
-556727
-556932
-556992
-557118
-557314
-557369
-557520
-557799
-557948
-558037
-558141
-558275
-558511
-558663
-558817
-559061
-559143
-559321
-559570
-559679
-559829
-560027
-560131
-560353
-560484
-560614
-560715
-560940
-561117
-561198
-561393
-561418
-561555
-561607
-561674
-561732
-561657
-561712
-561684
-561585
-561431
-561196
-561033
-560629
-560293
-559958
-559549
-559098
-557919
-557346
-556653
-555927
-555210
-554425
-553656
-552786
-552081
-551099
-550224
-549378
-548446
-547527
-545673
-544863
-543954
-543153
-542231
-538942
-538117
-537340
-536679
-535928
-535294
-533980
-533404
-532752
-532213
-531733
-531174
-530815
-530291
-529967
-529514
-529189
-528961
-528548
-528297
-528046
-527840
-527649
-527474
-527319
-527137
-527063
-526939
-526783
-526693
-526653
-526694
-526657
-526624
-526623
-526689
-526707
-526657
-526607
-526750
-526739
-526821
-526910
-526943
-527117
-527210
-527216
-527373
-527410
-527482
-527703
-527778
-527975
-527974
-528183
-528321
-528457
-528626
-528761
-528999
-529198
-529289
-529548
-529739
-529877
-530091
-530389
-530588
-530901
-531063
-531292
-531513
-531788
-531974
-532218
-532490
-532757
-532925
-533187
-533474
-533766
-533985
-534226
-534457
-534794
-534948
-535155
-535383
-535512
-535784
-536008
-536302
-536396
-536636
-536883
-537033
-537216
-537369
-537526
-537668
-537887
-538012
-538101
-538208
-538418
-538498
-538529
-538632
-538711
-538828
-538949
-538931
-539058
-539114
-539181
-539164
-539165
-539160
-539221
-539264
-539281
-539284
-539312
-539232
-539335
-539302
-539265
-539206
-539204
-539150
-539188
-539177
-539144
-539079
-539095
-539063
-539094
-538947
-538939
-538877
-538956
-538968
-538962
-538903
-538931
-538924
-538902
-538771
-538738
-538852
-538865
-538916
-538891
-538961
-538974
-539022
-539004
-539063
-539051
-539186
-539177
-539284
-539332
-539389
-539449
-539491
-539562
-539571
-539627
-539783
-539833
-539969
-540132
-540374
-540476
-540581
-540676
-540808
-540900
-541056
-541265
-541311
-541607
-541935
-542078
-542248
-542292
-542475
-542748
-542822
-543027
-543141
-543261
-543361
-543562
-543603
-543842
-544027
-544116
-544227
-544406
-544483
-544629
-544748
-544932
-545056
-545204
-545347
-545557
-545644
-545800
-545919
-546036
-546284
-546406
-546760
-546911
-547080
-547519
-548488
-548661
-548789
-548896
-549057
-549267
-549339
-549609
-549653
-549841
-550056
-550181
-550377
-550523
-550672
-550842
-551018
-551227
-551409
-551583
-551726
-551891
-552028
-552188
-552355
-552590
-552729
-552911
-553021
-553171
-553384
-553603
-553750
-553858
-554085
-554187
-554399
-554511
-554674
-554809
-555028
-555176
-555255
-555384
-555569
-555586
-555654
-555702
-555852
-555889
-555892
-555798
-555696
-555529
-555314
-555047
-554757
-554514
-554077
-553714
-553205
-552599
-552043
-551448
-550806
-550113
-549416
-548617
-547820
-547006
-546175
-545407
-544507
-543675
-542761
-541889
-540929
-540037
-539176
-538338
-537549
-536583
-535816
-534987
-534176
-533346
-532628
-531894
-531249
-530577
-529985
-529428
-528736
-528153
-527542
-527182
-526784
-526286
-525803
-525460
-525187
-524899
-524566
-524202
-523972
-523739
-523598
-523405
-523151
-523007
-522967
-522921
-522787
-522700
-522633
-522604
-522644
-522678
-522769
-522774
-522821
-522889
-522903
-523013
-523216
-523178
-523370
-523514
-523625
-523776
-523959
-524091
-524165
-524320
-525167
-525418
-525774
-528325
-528753
-529047
-529319
-529666
-530226
-530595
-531232
-531448
-532032
-532347
-532696
-533011
-533209
-533528
-534079
-534582
-534995
-535756
-538220
-538264
-538295
-538285
-538421
-538425
-538466
-538495
-538619
-538563
-538615
-541145
-541214
-541342
-541432
-541608
-541715
-541848
-541958
-542161
-542265
-542399
-542493
-542576
-542660
-542867
-542966
-543147
-543197
-543382
-543468
-543585
-543740
-543888
-544003
-544038
-544029
-544251
-544296
-544444
-544529
-544637
-544725
-544720
-544819
-544852
-544856
-545003
-545126
-545176
-545233
-545287
-545439
-545508
-545610
-545661
-545786
-545829
-545911
-546094
-546200
-546339
-546373
-546346
-546502
-546522
-546729
-546892
-547004
-547121
-547272
-547401
-547482
-547674
-547785
-547849
-548069
-548198
-548245
-548442
-548569
-548661
-548885
-548917
-549099
-549219
-549406
-549608
-549709
-549854
-549979
-550043
-550243
-550269
-550551
-550709
-550771
-550991
-551088
-551318
-551432
-551555
-551642
-551762
-551867
-552087
-552275
-552426
-552558
-552715
-552809
-553051
-553195
-553258
-553372
-553539
-553571
-553718
-553719
-553911
-553899
-553935
-554020
-553887
-553812
-553709
-553621
-553381
-553136
-552939
-552620
-552152
-551659
-551071
-550456
-549959
-549291
-548708
-547962
-547281
-546538
-545785
-544955
-544158
-543264
-542413
-541542
-540747
-539794
-538946
-538078
-537202
-536407
-535489
-534671
-533888
-533101
-532385
-531669
-530941
-528313
-527715
-527646
-526340
-525398
-525094
-524699
-524399
-523973
-523670
-523466
-523168
-522993
-522873
-522676
-522632
-522539
-522370
-522287
-522086
-522186
-522122
-522158
-522148
-522232
-522307
-522279
-522412
-522357
-522471
-522602
-522781
-522857
-522927
-525845
-526570
-526841
-527098
-527391
-527647
-527984
-528335
-528562
-528790
-529067
-529498
-529759
-530110
-530376
-531065
-531304
-531602
-531897
-532239
-532594
-532875
-533163
-533428
-533656
-534262
-535014
-535767
-536459
-536654
-536844
-536949
-537204
-537400
-537586
-537657
-537815
-537989
-538106
-538168
-538335
-538413
-538603
-538683
-538616
-538861
-538836
-538997
-538968
-539048
-539115
-539159
-539126
-539244
-539274
-539217
-539271
-539298
-539760
-539504
-539282
-539423
-539428
-539422
-539510
-539487
-539506
-539584
-539508
-539569
-539568
-539595
-539588
-539587
-539591
-539660
-539650
-539809
-539783
-539815
-539758
-539816
-539882
-539869
-539981
-540037
-540152
-540179
-540201
-540342
-540669
-540527
-540431
-540525
-540763
-540771
-540765
-541135
-541054
-541036
-541145
-541196
-541259
-541347
-541390
-541458
-541589
-541586
-541661
-541675
-541739
-541877
-541936
-542082
-542160
-542109
-542135
-542199
-542270
-542314
-542328
-542464
-542514
-542538
-542621
-542641
-542712
-542858
-542924
-542975
-543153
-543195
-543283
-543495
-543618
-544236
-544351
-544577
-544588
-544622
-544895
-544932
-545003
-545074
-545218
-545322
-545403
-545433
-545431
-545491
-545781
-545846
-545917
-546009
-546044
-546028
-546147
-546232
-546305
-546429
-546490
-546564
-546708
-546790
-546828
-546840
-546958
-547052
-547263
-547347
-547366
-547529
-547742
-547806
-547965
-548056
-548196
-548339
-548484
-548618
-548841
-548949
-549122
-549276
-549467
-549470
-549646
-549799
-549945
-550089
-550193
-550416
-550522
-550723
-550816
-550876
-551045
-551286
-551345
-551513
-551706
-551813
-552034
-552137
-552271
-552347
-552475
-552566
-552603
-552725
-552764
-552773
-552712
-552756
-552474
-552790
-552521
-552076
-551912
-551672
-551315
-550977
-550502
-550057
-549522
-548945
-548320
-547775
-547102
-546367
-545735
-544994
-544285
-543591
-542760
-541894
-541127
-540370
-539610
-538754
-537927
-537106
-536346
-535588
-534910
-534065
-533324
-532617
-531942
-531283
-530598
-530054
-529553
-528886
-528340
-527689
-527273
-526794
-526395
-525915
-525554
-525185
-524866
-524532
-524287
-524019
-523775
-523575
-523399
-523266
-523045
-523005
-522926
-522817
-522791
-522729
-522760
-522750
-522675
-522720
-522785
-522885
-523007
-523043
-523104
-523212
-523373
-523546
-523721
-523843
-523982
-524162
-524410
-524667
-524864
-525102
-525312
-525614
-525803
-526100
-526282
-526630
-526911
-527235
-527556
-527775
-528058
-528443
-528795
-529194
-529429
-529853
-530207
-530442
-530836
-531139
-531389
-531873
-532153
-532547
-532851
-533327
-533661
-534007
-534296
-534642
-534944
-535199
-535516
-535838
-536059
-536456
-536735
-537085
-537309
-537526
-537784
-538092
-538233
-538513
-538752
-538920
-539141
-539294
-539482
-539618
-539729
-539894
-540032
-540139
-540230
-540328
-540477
-540509
-540571
-540651
-540731
-540796
-540827
-540919
-540899
-540900
-540934
-540915
-540958
-540894
-540916
-540855
-540785
-540748
-540762
-540769
-540747
-540717
-540651
-540597
-540545
-540534
-540563
-540513
-540512
-540482
-540440
-540507
-540432
-540290
-540325
-540340
-540352
-540298
-540293
-540370
-540339
-540354
-540395
-540397
-540332
-540342
-540395
-540404
-540407
-540491
-540588
-540557
-540630
-540615
-540721
-540784
-540869
-540966
-541061
-541115
-541161
-541237
-541322
-541554
-541909
-542043
-542385
-542612
-542766
-543529
-544679
-545907
-548088
-548225
-548377
-548518
-548671
-548783
-548887
-549023
-549208
-549149
-549365
-549553
-549658
-549876
-550004
-550180
-550276
-550365
-550745
-551005
-551094
-551184
-551495
-551990
-552028
-552207
-552384
-552648
-552818
-552918
-553118
-553206
-553388
-553605
-553733
-553873
-554082
-554289
-554431
-554563
-554850
-555101
-555273
-555437
-555542
-555760
-555886
-556076
-556367
-556503
-556586
-556743
-556844
-556899
-557073
-557102
-556965
-557068
-557145
-557048
-556915
-556780
-556554
-556342
-556013
-555753
-555357
-554966
-554481
-554056
-553460
-552820
-552129
-551452
-550798
-550030
-549173
-548492
-547638
-546902
-546006
-545110
-544270
-543433
-542462
-541704
-540655
-539901
-539140
-538229
-537374
-536600
-535791
-535073
-534306
-533708
-532902
-532346
-531694
-531088
-530484
-529893
-529317
-528822
-528384
-528051
-527500
-527207
-526866
-526469
-526156
-525974
-525642
-525425
-525222
-525020
-524855
-524788
-524610
-524525
-524375
-524286
-524302
-524309
-524251
-524297
-524300
-524357
-524389
-524416
-524536
-524570
-524674
-524844
-524915
-525128
-525259
-525441
-525786
-525804
-525909
-526060
-526297
-526557
-526646
-526960
-527088
-527393
-527648
-527918
-528208
-528359
-528696
-529336
-529385
-529511
-529883
-530125
-530483
-530835
-531100
-531321
-531638
-532022
-532332
-532668
-533007
-533375
-533619
-533895
-534161
-534434
-534691
-534987
-535279
-535600
-535834
-536087
-536374
-536484
-536673
-536953
-537172
-537372
-537595
-537724
-537897
-538191
-538329
-538455
-538574
-538629
-538752
-538941
-538950
-539068
-539134
-539221
-539323
-539338
-539404
-539373
-539383
-539463
-539524
-539437
-539494
-539511
-539489
-539438
-539388
-539369
-539339
-539256
-539166
-539184
-539147
-539134
-539092
-538936
-538829
-538843
-538827
-538659
-538692
-538568
-538601
-538496
-538510
-538427
-538302
-538373
-538382
-538791
-538426
-538265
-538230
-538232
-538194
-538203
-538162
-538213
-538230
-538198
-538270
-538405
-538450
-538456
-538393
-538420
-538503
-538588
-538759
-538831
-539483
-539679
-539801
-540031
-540225
-540512
-540659
-540968
-541263
-541383
-541711
-541873
-541993
-542160
-542281
-542352
-542608
-542633
-542818
-542943
-543077
-543215
-543521
-544066
-544176
-544269
-544487
-544653
-544693
-544910
-544966
-545143
-545315
-545471
-545630
-545912
-545984
-546236
-546631
-547422
-547533
-547708
-547798
-548305
-549083
-549896
-549983
-550038
-550279
-550413
-550560
-550655
-550857
-550990
-551639
-551434
-551562
-551666
-551883
-552019
-552253
-552294
-552475
-552599
-552794
-552957
-553040
-553215
-553452
-553589
-553716
-553725
-553931
-553963
-554063
-554082
-554160
-554158
-554178
-554104
-553948
-553808
-553691
-553447
-553206
-552904
-552575
-552150
-551675
-551195
-550606
-549990
-549432
-548861
-548170
-547468
-546600
-545842
-545127
-544215
-543363
-542564
-541663
-540807
-539972
-539068
-538169
-537446
-536574
-535776
-534864
-534000
-533227
-532506
-531815
-531116
-530444
-529782
-529166
-528481
-527889
-527322
-526759
-526293
-525910
-525544
-525033
-524682
-524337
-524082
-523798
-523590
-523350
-523134
-523010
-522868
-522712
-522612
-522625
-522430
-522454
-522430
-522353
-522438
-522385
-522483
-522543
-522650
-522702
-522842
-522902
-523043
-523170
-523199
-523342
-523623
-523672
-523904
-524128
-524370
-524549
-524735
-524935
-525171
-525479
-525665
-526762
-527133
-527356
-527596
-527995
-528294
-528618
-528914
-529264
-530585
-530948
-531298
-531718
-532020
-532350
-532829
-533117
-533443
-533757
-534084
-534360
-534659
-535011
-535257
-535603
-535902
-536148
-536414
-536643
-536861
-537120
-537372
-537575
-537726
-537948
-538115
-538412
-538497
-538719
-538783
-539081
-539227
-539277
-539392
-539482
-539642
-539811
-539808
-539862
-539848
-539972
-539983
-540034
-540104
-540074
-540138
-540219
-540196
-540249
-539977
-540141
-540099
-540022
-540119
-540039
-540097
-540063
-539989
-539943
-539909
-539879
-539841
-539833
-539721
-539783
-539748
-539698
-539637
-539514
-539670
-539628
-539563
-539441
-539546
-539503
-539573
-539593
-539589
-539385
-539453
-539529
-539631
-539676
-539636
-539715
-539819
-539825
-539854
-539853
-539865
-539866
-539928
-540021
-540108
-540120
-540245
-540286
-540380
-540392
-540484
-540548
-540545
-540670
-540737
-540958
-541035
-541106
-541154
-541233
-541333
-541523
-541451
-541701
-541726
-541912
-542032
-542055
-542184
-542248
-542422
-542472
-542630
-542718
-542887
-543021
-543128
-543229
-543341
-543703
-543539
-543625
-543795
-543993
-543991
-544136
-544219
-544348
-544465
-544573
-544759
-544870
-544935
-545052
-545135
-545436
-545450
-545583
-545686
-545822
-545944
-546027
-546199
-546372
-546505
-546736
-546778
-546914
-547042
-547139
-547369
-547470
-547577
-547838
-547938
-548039
-548215
-548299
-548436
-548561
-548771
-548961
-549139
-549280
-549389
-549611
-549822
-549884
-550011
-550135
-550325
-550533
-550671
-550859
-550955
-551219
-551354
-551526
-551730
-551930
-551999
-552205
-552464
-552606
-552719
-552906
-553093
-553248
-553553
-553692
-553876
-554010
-554246
-554423
-554454
-554739
-554857
-554947
-555120
-555148
-555233
-555396
-555413
-555376
-555380
-555294
-555301
-555102
-554835
-554608
-554352
-554024
-553704
-553241
-552813
-552310
-551828
-551200
-550563
-549898
-549171
-548420
-547616
-546893
-546027
-545234
-544449
-543530
-542577
-541691
-540900
-540043
-539250
-538394
-537507
-536746
-535961
-535167
-534357
-533576
-532870
-532192
-531542
-530918
-530248
-529641
-529125
-528483
-528042
-527558
-527185
-526760
-526331
-526038
-525763
-525391
-525276
-524990
-524834
-524569
-524383
-524303
-524155
-524171
-524084
-524049
-523982
-523907
-523835
-523919
-523953
-524091
-524085
-524142
-524265
-524435
-524594
-524714
-524828
-525001
-525007
-525341
-525538
-525723
-525927
-526188
-526353
-526640
-526806
-526995
-527263
-527553
-527839
-528118
-528369
-528743
-529044
-529295
-529555
-529792
-530217
-530491
-530789
-531174
-531540
-531811
-532193
-532524
-532819
-533128
-533516
-533895
-534152
-534499
-534869
-535154
-535529
-535854
-536084
-536457
-536795
-537037
-537358
-537684
-537926
-538311
-538589
-538718
-538889
-539165
-539309
-539503
-539704
-539949
-540110
-540268
-540407
-540552
-540597
-540663
-540717
-540900
-540943
-541034
-541058
-541093
-541128
-541146
-541132
-541158
-541149
-541035
-541082
-541126
-541053
-541057
-540981
-540986
-540935
-540828
-540782
-540665
-540634
-540577
-540442
-540450
-540345
-540321
-540149
-540073
-540092
-540069
-539971
-539899
-539799
-539815
-539752
-539792
-539660
-539602
-539594
-539619
-539545
-539595
-539574
-539621
-539683
-539615
-539420
-539595
-539713
-539725
-539786
-539732
-539767
-539922
-540012
-540057
-540003
-540124
-540172
-540281
-540309
-540383
-540439
-540555
-540712
-540753
-540773
-540923
-541034
-541162
-541243
-541396
-541515
-541706
-541751
-541858
-541928
-542101
-542282
-542385
-542548
-542626
-542775
-542973
-543033
-543162
-543378
-543409
-543596
-543704
-543857
-543995
-544146
-544293
-544487
-544581
-544627
-544749
-544861
-545067
-545165
-545235
-545377
-545568
-545722
-545854
-545867
-546020
-546160
-546280
-546420
-546501
-546637
-546794
-546888
-547088
-547183
-547387
-547580
-547673
-547873
-547996
-548118
-548342
-548435
-548668
-548709
-548775
-549017
-549184
-549366
-549529
-549676
-549870
-550092
-550184
-550296
-550462
-550584
-550661
-550927
-551130
-551270
-551528
-551695
-551803
-551884
-552023
-552159
-552349
-552494
-552628
-552809
-552888
-553120
-553261
-553133
-553443
-553626
-553849
-553961
-554168
-554264
-554477
-554665
-554791
-554842
-554989
-555162
-555256
-555391
-555505
-555642
-555702
-555710
-555730
-555679
-555664
-555611
-555507
-555291
-555105
-554858
-554622
-554309
-553888
-553364
-552882
-552290
-551750
-551171
-550390
-549736
-548942
-548176
-547365
-546564
-545741
-544979
-544037
-543084
-542235
-541383
-539641
-538736
-537891
-537010
-536140
-535315
-534577
-533754
-532975
-532264
-531635
-530893
-530223
-529469
-528971
-528368
-527813
-527244
-524475
-524134
-523913
-523657
-523379
-523208
-523075
-522918
-522855
-522679
-522653
-522600
-522579
-522501
-522559
-522961
-522752
-522728
-522833
-522989
-523096
-523219
-523310
-523560
-523687
-523818
-523896
-524063
-524268
-524462
-524637
-524888
-525189
-525391
-525515
-525760
-526003
-526262
-526503
-526683
-526941
-527258
-527550
-527807
-528047
-528388
-528720
-528924
-529186
-529535
-529834
-530089
-530412
-530672
-530948
-531168
-531403
-531689
-531915
-532222
-532447
-532594
-532908
-533092
-533244
-533593
-533699
-533864
-533909
-534137
-534240
-534348
-534640
-534748
-534729
-534766
-534940
-534926
-535003
-534983
-535052
-535012
-535115
-535077
-535052
-535085
-535019
-534946
-534828
-534815
-534814
-534682
-534545
-534466
-534392
-534206
-534022
-533956
-533882
-533745
-533702
-533528
-533541
-533337
-533248
-533117
-533001
-532918
-532823
-532521
-532596
-532566
-532456
-532347
-532298
-532201
-532210
-532155
-532112
-532088
-532046
-532102
-532084
-532040
-531920
-531892
-531972
-531954
-531977
-532000
-532105
-532101
-532121
-532119
-532189
-532181
-532306
-532359
-532404
-532452
-532572
-532761
-532735
-532937
-533098
-533139
-533332
-533249
-533606
-533752
-533780
-534036
-534203
-534282
-534410
-534582
-534745
-534915
-535123
-535224
-535388
-535622
-535753
-535917
-536054
-536123
-536260
-536493
-536686
-536733
-536949
-537090
-537312
-537401
-537605
-537735
-537858
-537973
-538173
-538283
-538485
-538614
-538906
-538819
-539045
-539238
-539415
-539564
-539710
-539859
-540000
-540063
-540202
-540340
-540485
-540597
-540652
-540763
-540938
-540932
-541087
-541158
-541197
-541269
-541352
-541415
-541476
-541525
-541638
-541625
-541688
-541748
-541831
-541816
-541927
-541909
-542073
-542155
-542157
-542220
-542373
-542457
-542433
-542524
-542475
-542577
-542698
-542744
-542762
-542865
-543014
-543045
-543088
-543150
-543163
-543253
-543357
-543460
-543564
-543597
-543653
-543769
-543792
-543841
-543784
-543884
-543914
-543870
-544040
-543920
-543957
-543801
-543833
-543688
-543539
-543360
-543192
-542989
-542634
-542319
-542008
-541693
-541253
-540685
-540091
-539534
-539005
-538379
-537800
-537140
-536472
-535628
-534966
-534224
-533418
-532607
-531865
-531108
-530348
-529445
-528687
-527961
-527151
-526334
-525624
-524895
-524236
-523449
-522825
-522246
-521695
-521051
-520514
-519958
-519470
-518973
-518560
-517971
-517710
-517384
-517150
-516893
-516569
-516373
-516149
-515922
-515801
-515635
-515489
-515521
-515496
-515507
-515483
-515394
-515384
-515487
-515598
-515685
-515799
-515836
-515981
-516124
-516425
-516597
-516754
-517008
-517216
-517442
-517633
-517786
-518138
-518437
-518689
-519014
-519260
-519555
-519798
-520116
-520432
-520705
-520990
-521325
-521570
-521811
-522203
-522511
-522853
-523117
-523507
-523811
-524232
-524547
-524913
-525184
-525484
-525921
-526294
-526670
-526851
-527268
-527706
-528013
-528325
-528716
-529111
-529421
-529800
-530009
-530358
-530670
-530950
-531285
-531558
-531709
-532028
-532338
-532566
-532822
-533053
-533280
-533477
-533759
-533908
-534102
-534265
-534378
-534513
-534592
-534741
-534901
-535064
-535199
-535279
-535326
-535341
-535458
-535543
-535653
-535677
-535652
-535717
-535757
-535776
-535775
-535808
-535772
-535751
-535670
-535737
-535817
-535767
-535836
-535757
-535758
-535779
-535759
-535767
-535745
-535798
-535865
-535928
-535948
-535967
-536050
-536140
-536472
-536280
-536266
-536291
-536331
-536394
-536462
-536595
-536570
-536671
-536693
-536783
-536930
-537009
-537133
-537316
-537332
-537537
-537527
-537717
-537870
-538042
-538121
-538342
-538338
-538555
-538752
-538936
-539098
-539883
-540208
-540297
-540545
-540862
-541031
-541406
-541782
-543738
-543882
-544226
-544415
-544746
-545078
-545328
-545627
-545739
-545976
-546583
-546793
-547088
-547239
-547521
-547717
-547902
-548102
-549231
-549549
-549760
-549919
-550198
-550386
-550589
-550684
-551074
-551321
-551563
-551738
-551926
-552948
-553177
-553390
-553653
-553911
-554061
-554261
-554473
-554671
-554861
-555118
-555339
-555614
-555805
-556040
-556269
-556389
-556610
-556779
-557027
-557211
-557442
-557690
-557930
-558124
-558308
-558392
-558612
-558934
-559075
-559335
-559471
-559664
-560053
-560366
-561000
-561132
-561271
-561502
-561602
-561860
-561897
-561987
-561996
-562027
-562058
-562064
-561988
-561852
-560881
-559944
-560738
-560940
-560500
-559996
-559637
-559229
-558650
-558188
-557680
-556905
-556248
-555545
-554967
-554273
-553621
-552871
-552125
-551410
-550636
-549750
-548911
-548174
-547469
-546688
-545938
-545139
-544455
-543618
-542827
-542094
-541406
-540795
-540243
-539586
-538966
-538410
-537908
-537415
-536987
-536573
-536165
-535816
-535524
-535192
-534881
-534631
-534483
-534318
-534187
-533970
-533826
-533762
-533622
-533603
-533537
-533558
-533599
-533597
-533609
-533570
-533664
-533875
-533959
-534084
-534285
-534382
-534626
-534810
-534932
-535140
-535365
-535520
-535787
-536010
-536267
-536513
-536858
-537096
-537400
-537696
-538003
-538443
-538794
-539090
-539307
-539728
-540141
-540471
-540866
-541233
-541660
-542010
-542463
-542810
-543167
-543521
-543949
-544331
-544778
-545055
-545381
-545775
-546051
-546394
-546697
-547012
-547422
-547711
-548315
-548623
-548948
-550169
-550338
-550473
-550614
-550726
-551105
-551189
-551399
-551511
-551614
-551539
-551588
-551665
-551602
-551620
-551606
-551577
-551553
-551484
-551500
-551332
-551211
-551092
-551079
-550897
-550795
-550717
-550494
-550356
-550214
-550144
-549982
-549874
-549825
-549631
-549921
-549485
-549325
-549234
-549136
-549105
-549013
-548873
-548745
-548761
-548672
-548654
-548621
-548502
-548485
-548415
-548339
-548303
-548487
-548244
-548248
-548111
-548151
-548188
-548151
-548111
-548164
-548139
-548270
-548256
-548350
-548261
-548352
-548399
-548448
-548493
-548602
-548726
-548821
-548892
-548924
-548931
-549150
-549073
-549284
-549439
-549523
-549521
-549720
-549763
-549896
-550011
-550129
-550290
-550419
-550564
-550685
-550851
-550883
-551086
-551302
-551445
-551673
-551853
-552013
-552162
-552356
-552509
-552767
-552902
-553095
-553192
-553442
-553615
-553749
-553968
-554077
-554385
-554541
-554715
-554848
-554934
-555049
-555266
-555382
-555497
-555582
-555736
-555864
-556001
-556223
-556299
-556349
-556478
-556617
-556805
-556972
-557034
-557110
-557333
-557460
-557651
-557798
-557932
-558020
-558206
-558316
-558531
-558658
-558776
-558914
-559066
-559270
-559355
-559474
-559608
-559781
-559982
-560117
-560249
-560364
-560396
-560607
-560675
-560795
-560828
-560864
-560987
-560954
-560862
-560816
-561243
-560765
-560552
-560254
-560095
-559786
-559480
-559098
-558691
-558191
-557671
-557159
-556539
-555953
-555306
-554580
-553998
-553210
-552371
-551652
-550757
-549914
-549158
-548305
-547484
-546603
-545875
-545034
-544250
-543404
-542485
-541833
-541035
-540323
-539616
-538915
-538198
-537531
-536889
-536279
-535606
-535082
-534611
-534463
-533817
-533347
-532883
-532493
-532073
-531732
-531423
-531197
-530969
-530753
-530600
-530316
-530286
-530116
-529944
-529848
-529781
-529769
-529702
-529722
-529718
-529803
-529808
-529861
-529899
-530039
-530132
-530295
-530453
-530535
-530761
-530980
-531153
-531450
-531701
-531977
-532125
-532424
-532798
-533067
-533367
-533698
-534049
-534461
-534803
-535120
-535520
-535839
-536327
-536811
-537129
-537495
-537997
-538381
-538850
-539278
-539776
-540067
-540562
-540970
-541415
-541879
-542318
-542738
-543119
-543562
-544266
-544415
-544818
-545254
-545617
-546001
-546354
-546768
-547201
-547497
-547846
-548218
-548578
-548855
-549166
-549484
-549791
-550378
-550483
-550686
-550834
-551088
-551244
-551534
-551761
-551886
-552148
-552381
-552435
-552710
-552819
-552997
-553089
-553181
-553287
-553362
-553484
-553529
-553576
-553616
-553475
-553516
-553547
-553604
-553564
-553525
-553567
-553499
-553609
-553607
-553605
-553567
-553570
-553640
-553613
-553639
-553667
-553566
-553610
-553415
-553541
-553487
-553619
-553613
-553653
-553720
-553721
-553704
-553701
-553731
-553757
-553836
-553832
-553931
-553908
-553974
-554109
-554227
-554191
-554300
-554418
-554537
-554702
-554838
-554928
-554961
-555111
-555203
-555351
-555445
-555561
-555669
-555862
-556034
-556086
-556171
-556325
-556442
-556608
-556700
-556725
-556917
-557171
-557388
-557552
-557721
-557817
-557961
-558244
-558279
-558410
-558510
-558793
-558937
-559109
-559195
-559413
-559539
-559685
-559859
-559933
-560050
-560324
-560439
-560567
-560695
-560921
-561043
-561236
-561273
-561414
-561524
-561732
-561831
-561907
-562042
-562265
-562252
-562320
-562463
-562518
-562648
-562736
-562840
-562892
-562985
-563159
-563203
-563270
-563333
-563377
-563839
-563653
-563608
-563752
-563758
-563824
-563949
-563936
-563976
-563966
-564152
-564193
-564144
-564157
-564216
-564166
-564149
-564098
-563928
-563788
-563649
-563502
-563315
-563046
-562755
-562374
-561933
-561467
-560912
-560469
-559886
-559316
-558773
-558044
-557326
-556542
-555678
-554607
-554005
-553201
-552530
-551568
-550694
-549771
-548988
-548169
-547291
-546393
-545516
-544766
-543942
-543232
-542485
-541688
-540935
-540333
-539724
-539022
-538357
-537753
-537031
-536600
-536113
-535622
-535177
-534739
-534224
-533845
-533354
-533008
-532800
-532439
-532173
-531858
-531599
-531434
-531217
-531077
-530849
-530690
-530538
-530563
-530445
-530385
-530223
-530176
-530336
-530194
-529971
-530009
-530068
-530029
-530053
-530068
-530067
-530175
-530287
-530314
-530262
-530351
-530444
-530628
-530769
-530910
-530937
-531046
-531230
-531303
-531326
-531436
-531633
-531654
-531849
-531960
-532142
-532393
-532479
-532605
-532815
-533039
-533266
-533450
-533630
-533897
-534158
-534432
-534602
-534818
-535031
-535308
-535487
-535790
-536114
-536310
-536633
-536879
-537170
-537498
-537711
-537939
-538209
-538512
-538829
-539024
-539350
-539645
-539909
-540048
-540360
-540665
-540933
-541112
-541384
-541606
-541876
-542160
-542309
-542440
-542627
-542838
-543135
-543343
-543540
-543663
-543918
-544146
-544248
-544444
-544549
-544663
-544835
-545010
-545202
-545335
-545518
-545639
-545782
-546035
-546020
-546010
-546244
-546304
-546522
-546549
-546697
-546898
-546958
-546994
-546998
-547140
-547171
-547324
-547448
-547569
-547775
-547917
-547937
-547979
-548177
-548275
-548463
-548921
-548835
-548776
-548966
-549132
-549136
-549366
-549509
-549620
-549839
-550023
-550142
-550249
-550412
-550599
-550805
-550996
-551079
-551225
-551446
-551650
-551695
-551961
-552138
-552288
-552453
-552698
-552811
-552941
-553136
-553349
-553494
-553641
-553843
-554010
-554166
-554362
-554428
-554528
-554688
-554866
-555105
-555199
-555448
-555570
-555825
-555881
-556070
-556112
-556682
-556572
-556739
-557031
-557170
-557342
-557406
-557630
-557670
-557862
-558014
-558209
-558340
-558473
-558576
-558788
-558984
-559028
-559198
-559398
-559504
-559598
-559738
-559949
-560122
-560292
-560404
-560487
-560660
-560808
-560963
-561030
-561192
-561297
-561449
-561825
-561797
-561763
-561984
-562092
-562112
-562384
-562523
-562750
-562920
-563192
-563333
-563486
-563655
-563867
-564040
-564122
-564268
-564448
-564559
-564703
-564715
-564892
-564903
-564980
-564984
-565064
-565065
-565103
-565027
-564898
-564713
-564492
-564282
-564069
-563699
-563325
-562934
-562502
-561947
-561436
-560727
-560053
-559395
-558683
-557382
-556909
-556276
-555520
-554748
-553792
-552939
-552019
-551157
-550307
-549375
-548460
-547681
-546796
-545903
-545113
-544301
-543532
-542768
-542097
-541376
-541031
-540169
-539427
-538780
-538230
-537602
-537094
-536691
-536253
-535858
-535435
-535118
-534718
-534404
-534391
-533898
-533570
-533342
-533093
-532935
-532752
-532617
-532571
-532525
-532412
-532267
-532228
-532179
-532109
-532133
-532139
-532137
-532118
-532159
-532215
-532243
-532289
-532372
-532446
-532551
-532572
-532625
-532680
-532873
-533058
-532960
-533140
-533361
-533471
-533538
-533625
-533761
-533991
-534183
-534322
-534451
-534644
-534888
-535023
-535322
-535463
-535806
-536037
-536235
-536831
-536823
-537066
-537327
-537516
-537802
-538097
-538448
-538725
-539025
-539317
-539632
-540015
-540253
-540517
-540858
-541118
-541453
-541813
-542081
-542360
-542611
-542874
-543205
-543435
-543665
-543878
-544494
-544545
-544677
-544856
-545063
-545253
-545532
-545583
-545838
-546057
-546241
-546428
-546524
-546696
-546814
-546912
-547032
-547144
-547314
-547332
-547494
-547454
-547518
-547600
-547672
-547684
-547748
-547787
-547890
-547852
-547957
-547964
-547996
-548088
-548106
-548145
-548290
-548246
-548312
-548320
-548428
-548568
-548539
-548692
-548718
-548825
-548888
-548997
-549097
-549287
-549339
-549452
-549419
-549573
-549626
-549765
-549907
-549927
-550097
-550189
-550260
-550408
-550506
-550617
-550672
-550850
-550960
-551096
-551275
-551363
-551610
-551688
-551807
-551925
-552025
-552097
-552471
-552764
-553036
-553138
-553303
-553462
-553622
-553798
-553960
-554164
-554419
-554546
-554826
-554938
-555078
-555261
-555415
-555681
-555732
-555893
-556067
-556276
-556455
-556665
-556805
-557010
-557160
-557215
-557372
-557664
-557859
-557929
-558144
-558255
-558506
-558673
-558743
-558895
-559057
-559316
-559505
-559667
-559814
-559846
-560135
-560349
-560613
-560795
-560929
-561153
-561346
-561633
-561845
-562004
-562238
-562375
-562928
-562832
-562858
-563039
-563291
-563499
-563713
-563873
-564090
-564199
-564386
-564538
-564672
-564831
-565031
-565209
-565294
-565343
-565673
-565767
-565909
-566077
-566594
-566560
-566635
-566760
-566947
-567068
-567199
-567425
-567613
-567660
-567812
-567927
-568071
-568215
-568273
-568302
-568460
-568550
-568449
-568455
-568471
-568340
-568200
-568099
-567845
-567585
-567215
-566817
-566435
-565782
-565246
-564647
-564235
-563407
-562656
-561843
-561025
-560054
-559167
-558143
-557216
-556308
-555390
-554409
-553456
-552454
-551443
-550458
-549417
-548423
-547501
-546567
-545728
-544768
-544006
-543045
-542278
-541555
-540751
-539970
-539354
-538667
-538048
-537509
-536742
-536370
-535861
-535364
-534975
-534422
-534014
-533707
-533438
-532957
-532749
-532609
-532376
-532188
-531985
-531782
-531584
-531518
-531373
-531284
-531280
-531160
-531155
-531163
-531165
-531138
-531107
-531129
-531168
-531132
-531271
-531336
-531465
-531544
-531702
-531789
-531866
-532042
-532237
-532652
-532845
-533024
-533378
-533862
-533777
-533933
-534120
-534418
-534585
-534963
-535202
-535431
-535690
-535882
-536223
-536476
-536744
-537145
-537426
-537734
-538104
-538420
-538603
-538960
-539230
-539555
-539933
-540236
-540555
-540916
-541228
-541553
-541707
-541981
-542402
-542642
-542888
-543137
-543387
-543658
-543918
-544103
-544289
-544495
-544740
-544968
-545064
-545336
-545451
-545645
-545749
-545912
-546066
-546120
-546288
-546395
-546503
-546543
-546553
-546720
-546751
-546798
-546739
-546828
-546842
-546870
-546909
-546955
-546918
-546928
-546940
-546899
-546919
-546860
-546881
-546813
-546875
-546841
-546798
-546865
-546856
-546853
-546859
-546873
-546879
-546850
-546859
-546891
-546897
-546947
-546951
-546970
-546957
-546940
-546964
-546987
-547068
-547069
-547148
-547172
-547161
-547206
-547196
-547163
-547229
-547310
-547299
-547347
-547358
-547400
-547459
-547610
-547531
-547657
-547707
-547812
-547878
-547913
-547999
-548004
-548149
-548601
-548435
-548445
-548518
-548724
-548756
-548785
-548928
-549089
-549254
-549396
-549362
-549528
-549568
-549704
-549814
-549983
-550072
-550204
-550273
-550441
-550415
-550636
-550732
-550764
-550865
-551027
-551109
-551253
-551334
-551437
-551623
-551773
-551823
-551926
-552389
-552314
-552412
-552527
-552731
-552802
-552962
-553191
-553235
-553391
-553582
-553615
-553670
-553945
-554059
-554192
-554310
-554591
-554789
-554942
-555075
-555236
-555449
-555606
-555769
-555863
-555962
-556145
-556271
-556454
-556579
-556675
-556767
-556985
-557160
-557363
-557436
-557604
-557769
-557875
-558144
-558235
-558348
-558515
-558670
-558878
-558976
-559183
-559258
-559436
-559619
-559731
-559924
-560132
-560199
-560354
-560577
-560662
-560801
-561002
-561054
-561138
-561240
-561352
-561450
-561405
-561362
-561277
-561204
-560994
-560788
-560464
-560168
-559895
-559416
-558988
-558385
-557830
-557202
-556484
-555801
-555054
-554333
-553538
-552712
-551903
-550978
-550074
-549093
-548214
-547343
-546314
-545409
-544506
-543527
-542579
-541688
-540918
-540045
-539238
-538377
-537558
-536854
-536127
-535425
-534702
-533981
-533294
-532586
-532129
-531616
-530958
-530581
-530156
-529710
-529306
-528926
-528622
-528228
-528399
-527815
-527466
-527239
-527138
-526737
-526744
-526597
-526501
-526450
-526351
-526425
-526258
-526309
-526408
-526395
-526464
-526492
-526481
-526588
-526703
-526729
-526885
-527037
-527173
-527239
-527422
-527483
-527739
-527934
-528294
-528412
-528585
-528882
-529095
-529250
-529491
-529715
-530032
-530200
-530347
-530457
-530883
-531228
-531536
-531782
-532045
-532357
-532620
-532928
-533318
-533673
-534020
-534276
-534679
-534979
-535224
-535486
-535827
-536067
-536329
-536627
-536923
-537639
-537629
-537807
-537790
-538148
-538366
-538615
-538887
-539096
-539216
-539357
-539555
-539689
-539841
-539938
-540039
-540116
-540316
-540349
-540399
-540435
-540491
-540537
-540565
-540457
-540432
-540475
-540424
-540301
-540268
-540243
-540127
-540049
-539948
-539837
-539789
-539677
-539624
-539708
-539437
-539297
-539112
-539073
-538931
-538826
-538597
-538478
-538418
-538241
-538152
-538112
-537950
-537788
-537584
-537485
-537451
-537311
-537235
-537080
-536992
-536910
-536811
-536635
-536515
-536398
-536280
-536238
-536137
-536077
-535997
-535866
-535712
-535650
-535504
-535520
-535291
-535329
-535387
-535272
-535286
-535321
-535190
-535206
-535175
-535157
-535084
-535095
-535089
-535094
-535214
-535236
-535168
-535025
-535152
-535150
-535236
-535162
-535194
-535140
-535316
-535341
-535366
-535282
-535302
-535407
-535531
-535575
-535623
-535694
-535827
-535910
-535867
-536078
-536206
-536369
-536559
-536633
-536850
-537082
-537302
-537645
-537760
-537849
-537865
-538008
-538110
-538251
-538426
-538511
-538648
-538775
-538929
-538971
-539175
-539313
-539478
-539563
-539708
-539950
-540522
-541826
-542835
-543471
-543810
-544542
-544832
-544861
-545539
-545737
-545790
-545752
-545701
-545759
-545689
-545497
-545342
-545192
-544898
-544682
-544226
-543635
-543359
-542907
-542283
-541697
-541131
-540365
-539655
-538881
-537990
-537157
-536420
-535564
-534798
-533913
-533016
-532190
-531382
-530424
-529603
-528642
-527777
-526977
-526250
-525351
-524563
-523818
-523025
-522313
-521662
-520949
-520408
-519794
-519195
-518598
-518053
-517596
-516993
-516616
-516174
-515857
-515502
-515168
-514922
-514592
-514307
-514230
-513960
-513743
-513593
-513352
-513208
-513105
-513124
-513060
-512980
-512898
-512924
-512909
-512869
-512827
-512915
-512950
-512922
-513114
-513141
-513276
-513361
-513432
-513534
-513700
-513840
-514044
-514170
-514320
-514425
-514656
-514849
-515056
-515210
-515489
-515676
-515880
-516076
-516235
-516499
-516851
-517040
-517320
-517605
-517878
-518095
-518482
-518732
-519017
-519264
-519633
-519922
-520286
-520515
-520863
-521158
-521450
-521802
-522119
-522389
-522748
-522987
-523333
-523639
-523936
-524272
-524559
-524872
-525175
-525392
-525662
-525972
-526262
-526440
-526647
-526859
-527135
-527390
-527518
-527762
-528043
-528099
-528332
-528386
-528591
-528740
-528971
-529093
-529169
-529390
-529517
-529511
-529676
-529635
-529958
-529814
-529808
-529832
-529827
-529845
-529932
-530016
-529953
-529938
-529890
-529930
-530020
-529974
-529934
-529888
-529959
-529969
-529947
-530021
-529979
-530002
-529985
-529970
-529949
-529929
-529954
-529941
-529908
-529947
-529915
-529940
-530009
-529997
-529942
-529988
-530021
-529987
-530092
-530066
-530095
-530080
-530119
-530168
-530139
-530227
-530290
-530791
-530590
-530431
-530415
-530491
-530617
-530765
-530923
-530990
-531072
-531442
-531202
-531189
-531328
-531465
-531505
-531594
-531633
-531778
-531875
-532037
-532158
-532209
-532347
-532550
-532652
-533091
-532988
-533132
-533231
-533311
-533493
-533663
-533818
-534024
-534313
-534419
-534619
-534896
-535095
-535238
-535433
-535612
-535866
-536025
-536327
-536452
-536691
-536926
-537048
-537189
-537407
-537639
-537792
-538060
-538296
-538574
-538767
-539009
-539215
-539393
-539602
-539813
-540057
-540175
-540474
-540714
-540909
-541181
-541427
-541638
-541813
-541978
-542236
-542414
-542697
-542940
-543184
-543460
-543643
-543794
-544005
-544306
-544382
-544637
-544948
-545104
-545307
-545534
-546044
-545940
-546427
-546239
-546336
-546335
-546490
-546535
-546611
-546697
-546763
-546709
-546593
-546466
-546282
-546123
-545939
-545541
-545222
-544867
-544410
-543960
-543382
-542778
-542067
-541378
-540617
-539929
-539182
-538253
-537417
-536446
-535506
-534605
-533599
-532669
-531780
-530702
-529729
-528709
-527763
-526818
-525873
-524989
-524134
-523197
-522406
-520841
-520035
-519299
-518550
-517909
-517207
-516567
-516050
-515539
-514944
-514451
-513990
-513556
-513157
-512822
-512517
-512272
-512038
-511826
-511597
-511403
-511175
-510981
-510837
-510719
-510616
-510462
-510819
-510638
-510582
-510644
-510630
-510680
-510714
-510716
-510794
-510881
-511047
-511141
-511200
-511377
-511500
-511673
-511816
-511960
-512184
-512308
-512428
-512740
-512935
-513157
-513364
-513720
-513920
-514216
-514383
-514662
-514863
-515164
-515485
-515961
-516199
-516499
-516743
-517121
-517365
-517746
-518046
-518898
-519274
-519667
-520051
-522371
-525013
-526882
-527555
-529221
-529475
-529712
-530050
-530167
-530435
-530691
-530790
-531050
-531184
-531373
-531499
-531611
-531702
-531822
-531898
-532003
-532068
-532120
-532151
-532193
-532296
-532373
-532444
-532476
-532628
-532667
-533362
-534222
-534399
-534458
-534657
-534789
-534974
-535137
-535263
-535397
-535529
-535718
-535798
-535964
-536089
-536200
-536363
-536412
-536522
-536650
-536797
-536876
-536991
-537011
-537168
-537308
-537313
-537451
-537448
-537539
-537511
-537787
-537988
-538275
-538439
-538605
-538719
-538813
-538991
-539169
-539351
-539537
-539693
-539843
-540025
-540175
-540274
-540428
-540643
-540828
-540990
-541099
-541380
-541522
-541720
-541839
-542013
-542179
-542378
-542536
-542749
-542882
-543066
-543311
-543573
-543723
-543859
-544093
-544235
-544462
-544643
-544874
-545019
-545255
-545464
-545621
-545935
-546083
-546249
-546494
-546772
-546972
-547319
-547475
-547660
-547906
-548171
-548367
-548663
-548859
-549212
-549481
-549759
-549976
-550331
-550601
-550841
-550978
-551251
-551507
-551838
-552059
-552315
-552517
-552764
-553012
-553256
-553372
-553495
-553765
-554015
-554108
-554194
-554560
-554448
-554391
-554290
-554115
-553922
-553672
-553426
-553322
-552770
-552229
-551619
-551048
-550415
-549704
-549035
-548289
-547479
-546601
-544927
-544016
-543114
-536534
-535571
-534725
-532870
-532073
-531187
-530364
-529617
-528858
-528150
-527448
-526781
-526212
-525582
-524967
-524411
-523925
-523404
-523018
-522704
-522275
-521973
-521979
-521400
-521010
-520767
-520574
-520369
-520192
-520104
-519968
-519815
-519696
-519591
-519471
-519464
-519439
-519482
-519493
-519489
-519590
-519533
-519718
-519847
-519905
-519989
-520066
-520199
-520384
-520531
-520707
-520899
-521082
-521171
-521312
-521537
-521694
-521845
-522100
-522335
-522541
-522870
-523023
-523176
-523394
-523641
-523877
-524274
-524571
-524871
-525093
-525405
-525807
-526057
-526431
-526776
-527147
-527501
-527933
-528261
-528750
-529121
-529480
-529851
-530279
-530594
-531007
-531394
-531843
-532217
-532615
-533013
-533388
-533700
-534081
-534455
-535122
-535314
-535551
-535879
-536207
-536575
-536827
-537156
-537379
-537651
-537976
-538255
-538507
-538801
-539026
-539252
-539458
-539832
-539867
-540127
-540242
-540447
-540579
-540656
-540837
-541006
-541126
-541205
-541287
-541354
-541479
-541593
-541671
-541814
-541929
-541914
-541995
-542015
-542020
-542149
-542274
-542342
-542363
-542507
-542581
-542634
-542704
-542773
-542811
-542864
-543024
-543107
-543159
-543305
-543372
-543467
-543648
-543597
-543686
-543754
-543853
-543989
-544083
-544151
-544380
-544387
-544568
-544707
-544792
-544858
-545038
-545262
-545293
-545532
-545621
-545694
-545837
-545960
-546171
-546286
-546525
-546679
-546801
-546878
-547084
-547273
-547424
-547573
-547717
-547948
-548058
-548225
-548407
-548630
-548862
-548973
-549166
-549330
-549523
-549691
-549914
-550110
-550313
-550514
-550704
-550929
-551060
-551198
-551317
-551389
-551520
-551657
-551892
-552162
-552359
-552573
-552829
-552901
-553032
-553192
-553412
-553518
-553647
-553740
-554013
-554179
-554419
-554561
-554641
-554933
-555060
-555299
-555459
-555759
-555995
-556180
-556417
-556559
-556808
-557081
-557316
-557591
-557781
-558081
-558316
-558550
-558770
-558981
-559175
-559439
-559670
-559908
-560149
-560344
-560581
-560768
-561024
-561247
-561450
-561652
-561879
-562086
-562346
-562548
-562834
-562939
-563119
-563257
-563389
-563635
-563885
-564148
-564340
-564590
-564857
-565010
-565207
-565360
-565684
-565887
-566154
-566345
-566615
-566843
-567026
-567301
-567551
-567759
-568057
-568234
-568459
-568742
-568993
-569254
-569546
-569627
-569842
-569982
-570110
-570349
-570488
-570540
-570608
-570610
-570636
-570545
-570345
-570147
-569928
-569669
-569383
-569078
-568532
-568071
-567450
-566908
-566282
-565435
-564759
-563959
-563064
-562217
-561296
-560394
-559428
-558459
-557477
-556465
-555503
-554528
-553580
-552565
-551600
-550667
-549657
-548741
-547842
-547010
-546091
-545229
-544430
-543670
-542945
-542277
-541532
-540964
-540338
-539664
-539123
-538582
-538094
-537675
-537188
-536877
-536480
-536138
-535825
-535544
-535221
-534972
-534795
-534626
-534375
-534279
-534060
-533956
-533842
-533788
-533680
-533656
-533724
-533602
-533640
-533695
-533750
-533751
-533737
-533869
-533947
-533983
-534118
-534196
-534323
-534523
-534629
-534790
-534978
-535070
-535199
-535376
-535597
-535810
-535919
-536072
-536314
-536459
-536633
-536876
-537103
-537397
-537687
-537847
-538138
-538452
-538785
-539142
-539476
-539772
-540191
-540498
-540944
-541398
-541732
-542094
-542480
-542891
-543265
-543569
-544054
-544554
-545040
-545408
-545800
-546215
-546576
-546946
-547258
-547600
-547865
-548225
-548629
-548790
-549028
-549256
-549543
-549712
-550228
-550303
-550412
-550387
-550612
-550745
-550946
-551056
-551365
-551238
-551174
-551285
-551409
-551444
-551452
-551454
-551490
-551576
-551590
-551583
-551479
-551406
-551477
-551331
-551351
-551194
-551070
-551013
-550889
-550660
-550598
-550555
-550500
-550441
-550361
-550248
-550251
-550183
-550073
-549976
-549890
-549805
-549787
-549771
-549733
-549619
-549644
-549531
-549444
-549434
-549382
-549261
-549280
-549232
-549244
-549233
-549239
-549190
-549169
-549170
-549212
-549200
-549289
-549297
-549423
-549449
-549861
-549812
-549715
-549798
-549953
-550174
-550345
-550518
-550580
-550750
-550898
-550903
-551060
-551196
-551429
-551518
-551729
-551915
-552062
-552434
-552467
-552641
-552726
-552861
-552976
-553195
-553424
-553600
-553730
-553910
-553993
-554191
-554295
-554364
-554576
-554720
-554912
-554985
-555239
-555414
-555531
-555706
-555830
-556077
-556158
-556251
-556514
-556788
-556883
-557085
-557214
-557376
-557545
-557651
-557753
-557975
-558048
-558194
-558355
-558447
-558691
-558755
-558918
-558989
-559053
-559153
-559233
-559236
-559342
-559486
-559720
-559817
-559948
-559987
-560098
-560227
-560327
-560405
-560563
-560701
-560803
-560896
-560949
-561117
-561219
-561351
-561514
-561576
-561811
-561965
-562158
-562444
-562624
-562681
-562996
-563284
-563477
-563702
-563952
-564156
-564482
-564773
-564876
-565079
-565361
-565558
-565944
-566486
-566561
-566828
-567137
-567286
-567578
-567785
-568104
-568404
-568630
-568916
-569233
-569485
-569889
-570136
-570428
-570633
-570885
-571229
-571407
-571731
-571927
-572178
-572410
-572687
-572869
-573086
-573307
-573556
-573808
-573997
-574178
-574306
-574551
-574678
-574812
-574803
-574958
-575034
-575008
-574888
-574841
-574710
-574480
-574196
-573807
-573410
-572928
-572283
-571651
-570965
-570265
-569451
-568741
-567703
-566716
-565941
-564961
-564025
-563048
-562034
-561064
-559946
-558884
-557849
-556827
-555774
-554746
-553740
-552761
-551779
-550925
-550125
-549301
-548393
-547640
-546904
-546354
-545681
-545146
-544546
-544096
-543587
-543144
-542631
-542127
-541683
-541338
-541066
-540754
-540430
-540186
-539909
-539669
-539473
-539192
-539085
-538909
-538751
-538656
-538558
-538564
-538534
-538454
-538535
-538472
-538539
-538577
-538592
-538655
-538810
-538959
-539137
-539247
-539390
-539493
-539546
-539826
-540022
-540148
-540372
-540548
-540819
-541029
-541292
-541456
-541687
-541896
-542158
-542454
-542742
-543068
-543247
-543577
-543891
-544137
-544355
-544629
-544933
-545136
-545406
-545744
-546000
-546406
-546728
-547001
-547340
-547632
-547992
-548355
-548684
-549093
-549527
-549852
-550168
-550479
-550782
-551102
-551393
-551711
-552018
-552254
-552555
-552828
-553129
-553327
-553633
-553833
-554112
-554365
-554612
-555240
-555134
-555244
-555382
-555456
-555530
-555693
-555866
-556066
-556158
-556252
-556318
-556394
-556490
-556559
-556546
-556576
-556668
-556763
-556788
-556805
-556783
-556792
-556842
-556848
-556810
-556794
-556818
-556812
-556796
-556739
-556744
-556682
-556717
-556693
-556661
-556551
-556549
-556553
-556422
-556388
-556362
-556264
-556113
-555899
-555776
-555697
-555702
-555782
-555664
-555647
-555644
-555681
-555709
-555654
-555606
-555692
-555698
-555764
-555718
-555793
-555840
-555836
-555824
-555841
-555831
-555919
-555896
-556047
-556055
-556170
-556266
-556392
-556395
-556524
-556677
-556830
-556975
-557068
-557281
-557449
-557551
-557638
-557739
-557916
-557981
-558095
-558320
-558414
-558469
-558470
-558694
-558833
-559052
-559065
-559182
-559303
-559567
-559823
-559952
-560102
-560182
-560361
-560541
-560572
-560787
-560959
-560994
-561217
-561426
-561552
-561851
-561963
-562085
-562229
-562341
-562503
-562694
-562887
-563051
-563152
-563308
-563458
-563662
-563797
-563995
-564299
-564549
-564718
-565066
-565078
-565164
-565304
-565429
-565702
-565708
-565827
-566024
-566160
-566288
-566498
-566639
-566755
-566908
-567009
-567178
-567385
-567532
-567710
-567861
-567987
-568209
-568380
-568403
-568507
-568627
-568792
-568906
-569155
-569341
-569567
-569689
-569882
-570190
-570427
-570464
-570975
-571136
-571259
-571720
-571856
-572076
-572175
-572351
-572931
-573259
-573406
-573685
-573940
-574096
-574298
-574446
-574661
-574768
-575407
-575515
-575623
-575662
-575759
-575741
-575928
-575860
-575733
-575634
-574251
-573831
-554487
-548488
-542178
-541106
-539643
-539838
-540132
-540358
-540440
-540567
-540618
-540813
-540925
-541058
-541143
-541380
-541624
-541645
-541813
-541949
-543796
-544065
-544362
-544845
-545215
-545516
-545802
-545997
-546670
-546866
-547196
-547485
-547694
-547973
-548308
-548638
-548935
-549201
-549478
-549707
-549927
-550223
-550462
-550734
-550972
-551219
-551422
-551620
-551855
-552048
-552178
-552369
-552645
-552870
-553067
-553150
-553358
-553459
-553618
-553801
-553973
-554028
-554128
-554341
-554494
-554601
-554749
-554889
-554959
-555082
-555094
-555257
-555480
-555450
-555505
-555538
-555743
-555904
-556029
-555990
-556005
-555896
-556038
-556248
-556237
-556346
-556467
-556530
-556541
-556582
-556536
-556658
-556695
-556599
-556869
-556928
-557049
-557029
-557040
-557112
-557137
-557230
-557298
-557306
-557371
-557448
-557520
-557675
-557711
-557680
-557834
-557888
-557951
-558061
-558178
-558329
-558398
-558463
-558575
-558700
-558777
-558858
-558853
-559077
-559163
-559316
-559451
-559579
-559709
-559880
-559903
-559961
-560159
-560277
-560404
-560533
-560708
-560862
-560982
-561053
-561126
-561240
-561289
-561411
-561588
-561686
-561814
-561929
-562086
-562131
-562211
-562250
-562372
-562577
-562581
-562647
-562726
-562900
-562891
-562843
-562707
-562675
-562818
-562961
-562972
-563024
-563096
-563204
-563310
-563341
-563354
-563412
-563418
-563523
-563594
-563668
-563735
-563920
-563968
-563992
-564105
-564116
-564142
-564217
-564342
-564417
-564557
-564715
-564803
-564905
-564901
-565065
-565165
-565269
-565965
-566163
-566295
-567142
-567262
-567375
-567453
-567599
-568100
-568302
-568383
-568580
-568756
-569014
-569137
-569218
-569426
-569655
-569793
-569952
-570098
-570284
-570401
-570485
-570619
-570887
-570867
-570884
-570925
-570822
-570798
-570591
-570254
-569634
-569355
-568929
-568406
-567951
-567472
-566244
-565528
-564860
-564101
-563333
-562613
-561754
-560896
-559993
-559097
-558210
-557300
-556418
-555506
-554618
-553721
-552768
-550053
-549162
-547478
-546627
-545857
-545076
-544411
-543714
-543068
-542354
-541710
-541111
-540501
-539871
-539103
-538455
-538036
-537585
-537186
-536868
-536487
-536058
-535834
-535606
-535449
-535188
-535030
-534711
-534612
-534540
-534398
-534296
-534290
-534283
-534226
-534257
-534326
-534320
-534415
-534487
-534499
-534665
-534774
-534865
-535006
-535169
-535350
-535595
-535682
-535872
-536107
-537090
-537332
-537659
-537907
-538152
-538400
-538945
-539316
-539724
-540070
-540427
-540775
-541148
-541543
-541877
-542293
-542781
-543107
-543543
-543990
-544442
-544928
-545306
-545825
-546196
-546634
-547070
-547541
-547933
-548440
-548893
-549327
-549782
-550157
-550459
-551001
-551408
-551840
-552184
-552607
-552958
-553260
-553578
-553893
-554129
-554443
-554713
-555022
-555055
-555256
-555573
-555909
-556137
-556357
-556477
-556699
-556882
-557097
-557298
-557409
-557634
-557796
-558024
-558163
-558349
-558576
-558777
-558965
-559270
-559322
-559612
-559907
-560077
-560209
-560366
-560597
-560697
-560711
-560930
-560938
-561069
-561173
-561019
-561015
-560963
-561077
-561121
-561104
-561077
-561163
-561195
-561270
-561382
-561354
-561459
-561479
-561563
-561552
-561635
-561758
-561782
-561837
-561959
-562002
-562110
-562183
-562204
-562353
-562479
-562533
-562695
-562781
-562870
-563050
-563131
-563292
-563479
-563537
-563735
-563864
-564091
-564157
-564311
-564262
-564356
-564401
-564459
-564551
-564624
-564668
-564838
-565020
-565085
-565222
-565301
-565434
-565548
-566171
-566338
-566414
-566588
-566643
-566822
-566972
-566993
-567200
-567316
-567518
-567574
-567802
-567828
-567962
-568154
-568342
-568481
-568604
-568815
-568964
-569157
-569422
-569563
-569700
-570266
-572344
-572535
-573839
-574268
-575646
-575898
-576172
-576461
-576681
-577032
-577169
-577473
-578018
-578340
-578562
-578850
-579200
-579415
-579857
-579972
-580274
-580595
-580757
-581075
-581292
-581632
-581878
-582135
-582335
-582557
-582984
-583574
-583704
-583862
-583982
-584112
-584224
-584135
-583990
-583942
-583794
-583535
-582949
-582596
-581982
-581485
-580778
-580194
-579549
-578700
-577845
-577102
-576138
-575303
-574329
-573224
-572294
-571412
-570407
-569282
-568361
-567343
-566254
-565290
-564210
-562224
-561209
-560307
-559381
-558594
-557608
-556892
-552127
-551508
-550906
-550491
-550031
-549468
-549076
-548606
-548300
-547972
-547660
-547405
-547130
-546883
-546622
-546509
-546312
-546175
-546060
-545972
-545885
-545740
-545731
-545788
-545675
-545678
-545719
-545632
-545786
-545747
-545818
-545851
-545925
-546086
-546199
-546253
-546347
-546443
-546567
-546654
-546888
-547034
-547111
-547265
-547442
-547626
-547800
-547938
-548189
-548371
-548618
-548843
-549060
-549352
-549568
-549824
-550013
-550321
-550586
-550866
-551074
-551433
-551796
-552095
-552454
-552771
-553060
-553313
-553965
-554319
-554597
-554970
-555385
-555597
-555896
-556123
-556483
-556916
-557179
-557472
-557750
-558131
-558395
-558725
-558958
-559439
-559644
-559893
-560114
-560358
-560512
-560735
-560853
-561002
-561041
-561140
-561225
-561371
-561344
-561488
-561507
-561512
-561579
-561609
-561589
-561636
-561627
-561666
-561698
-561714
-561690
-561816
-561790
-561834
-561735
-561706
-561721
-561750
-561782
-561770
-561789
-561813
-561810
-561807
-561725
-561685
-561739
-561757
-561717
-561748
-561738
-561776
-561818
-561822
-561895
-561905
-561943
-561909
-561896
-561933
-562024
-562096
-562126
-562237
-562107
-562168
-562263
-562227
-562235
-562321
-562402
-562516
-562552
-562619
-562739
-562755
-562848
-562914
-562987
-563018
-563457
-563483
-563713
-563797
-563879
-564081
-564419
-564590
-564719
-564832
-565061
-565224
-565472
-565629
-565849
-565976
-566187
-566363
-566438
-566616
-566719
-566884
-567059
-567289
-567416
-567642
-567780
-567979
-568148
-568262
-568490
-568576
-568620
-568756
-568791
-568998
-569209
-569423
-569464
-569641
-569775
-569953
-570137
-570305
-570492
-570609
-570909
-571104
-571223
-571361
-571505
-571708
-572011
-572068
-572271
-572397
-572762
-572992
-573189
-573219
-573502
-573689
-573978
-574258
-574519
-574772
-575075
-575368
-575656
-575963
-576225
-576547
-576821
-576983
-577294
-577466
-577681
-577924
-578168
-578311
-578569
-578731
-579011
-579198
-579301
-579394
-579649
-579750
-579841
-579803
-579755
-579776
-579585
-579378
-579171
-579041
-578769
-578442
-577931
-577485
-577024
-576471
-575827
-575142
-574363
-573748
-573141
-572463
-571582
-570486
-569541
-568558
-567575
-566596
-565464
-564364
-563276
-562224
-561118
-559895
-558831
-557726
-556725
-555730
-554815
-553834
-552961
-552031
-551194
-550296
-549562
-548737
-548042
-547355
-546559
-545904
-545340
-544751
-544238
-543652
-543190
-542703
-542204
-541766
-541390
-541088
-540796
-540474
-540234
-539971
-539694
-539625
-539536
-539370
-539202
-538813
-538906
-538905
-538833
-538808
-538727
-538797
-538763
-539103
-538864
-538882
-538968
-538996
-539086
-539091
-539184
-539374
-539427
-539558
-539646
-539840
-539969
-539980
-540243
-540361
-540516
-540719
-540815
-541003
-541107
-541266
-541433
-541541
-541688
-541860
-541951
-542179
-542668
-542625
-542708
-543027
-543253
-543518
-543767
-543931
-544162
-544422
-544657
-544857
-545090
-545356
-545566
-545658
-545813
-545938
-546138
-546373
-546512
-546686
-546898
-547121
-547341
-547413
-547550
-547743
-547895
-548086
-548129
-548376
-548446
-548635
-548844
-548873
-549018
-549078
-549193
-549306
-549412
-549576
-549663
-549859
-549856
-549862
-549931
-549896
-549985
-550026
-550038
-549960
-549868
-549958
-550027
-549964
-549959
-549823
-549824
-549848
-549860
-549841
-549730
-549789
-549793
-549743
-549644
-549542
-549524
-549560
-549556
-549546
-549511
-549498
-549493
-549518
-549493
-549454
-549437
-549379
-549421
-549451
-549470
-549481
-549504
-549549
-549588
-549634
-549630
-549637
-549763
-549834
-549796
-549880
-549952
-550032
-550151
-550175
-550221
-550319
-550444
-550528
-550599
-550714
-550789
-550936
-551045
-551095
-551145
-551336
-551506
-551651
-551743
-551878
-551986
-552157
-552310
-552355
-552531
-552715
-552891
-553013
-553156
-553378
-553594
-553693
-553836
-553884
-554074
-554284
-554525
-554701
-554781
-554988
-555279
-555358
-555537
-555628
-555853
-555954
-556177
-556340
-556399
-556672
-556848
-556908
-557088
-557217
-557440
-557573
-557675
-557860
-557977
-558136
-558367
-558426
-558542
-558647
-558798
-559029
-559213
-559285
-559369
-559627
-559771
-559906
-560033
-560153
-560259
-560448
-560586
-560725
-560906
-561105
-561249
-561424
-561601
-561706
-562061
-562181
-562319
-562506
-562689
-562829
-563226
-563343
-563547
-563923
-564079
-564169
-564300
-564560
-564617
-564770
-564871
-564982
-565065
-565145
-565180
-565120
-565082
-565031
-564794
-564569
-564245
-563976
-563644
-563258
-562753
-562180
-561654
-561441
-560494
-559712
-558913
-558004
-557189
-556293
-555436
-554463
-553537
-552612
-551628
-550750
-549832
-548854
-547970
-546979
-546073
-545196
-544332
-543514
-542623
-541822
-541025
-540362
-539678
-538939
-538265
-537545
-536971
-536404
-535788
-535207
-534641
-534198
-533808
-533318
-532953
-532571
-532226
-531898
-531568
-531232
-530957
-530635
-530510
-530278
-530044
-529893
-529803
-529598
-529416
-529355
-529183
-529167
-529129
-529067
-528976
-528920
-528997
-528962
-528966
-529050
-529012
-529070
-529036
-529119
-529178
-529241
-529356
-529427
-529489
-529531
-529590
-529802
-529898
-529907
-530001
-530110
-530155
-530317
-530332
-530434
-530529
-530579
-530768
-530862
-530955
-531075
-531249
-532128
-533251
-533495
-536438
-537752
-538148
-538657
-538869
-539042
-539190
-539427
-539953
-540551
-540670
-540758
-540935
-541014
-541087
-541260
-541347
-541431
-541472
-541542
-541539
-541628
-541683
-541803
-541881
-541930
-542043
-542216
-542219
-542239
-542553
-542490
-542440
-542530
-542644
-542657
-542729
-542799
-542921
-542972
-542885
-542947
-542960
-543022
-543099
-543076
-542983
-543032
-543084
-542973
-542997
-542976
-542806
-542886
-542896
-542819
-542916
-542977
-543052
-543111
-543157
-543316
-543658
-543527
-543669
-543738
-543818
-543933
-544057
-544177
-544187
-544249
-544452
-544694
-544737
-544898
-544994
-545234
-545332
-545380
-545461
-545624
-545806
-545978
-546181
-546313
-546529
-546701
-546861
-547095
-547263
-547380
-547628
-547848
-548048
-548391
-548621
-548884
-549163
-549386
-549502
-549661
-550011
-550246
-550490
-550795
-550933
-551160
-551395
-551564
-551767
-551992
-552161
-552177
-552510
-552716
-552931
-553140
-553276
-553531
-553727
-553884
-554182
-554235
-554579
-555041
-555213
-555357
-555557
-555731
-555969
-556158
-556377
-556483
-556555
-556832
-556976
-557161
-557369
-557419
-557681
-557858
-558043
-558270
-558446
-558679
-558936
-559157
-559380
-559536
-559771
-559957
-560227
-560434
-560590
-560729
-561042
-561229
-561392
-561623
-561836
-562041
-562210
-562455
-562542
-562667
-562881
-563042
-563136
-563322
-563432
-563554
-563715
-563791
-563820
-563833
-563824
-563656
-563512
-563319
-563069
-562762
-562472
-562122
-561650
-561228
-560790
-560176
-559448
-558701
-557888
-557067
-556232
-555424
-554467
-553529
-552556
-551564
-550541
-549648
-548618
-547686
-546735
-545769
-544772
-543840
-542925
-542021
-541082
-540239
-539385
-538546
-537750
-536979
-536497
-535527
-534716
-534009
-533326
-532654
-531995
-531465
-530914
-530407
-529796
-529473
-529098
-528639
-528249
-527984
-527576
-527304
-527078
-526773
-526544
-526352
-526143
-525942
-525786
-525642
-525550
-525380
-525278
-525205
-525136
-525071
-525050
-525098
-525070
-525010
-525045
-525061
-525058
-525038
-525134
-525172
-525272
-525338
-525594
-525818
-525902
-525927
-526057
-526311
-526385
-526586
-526675
-526775
-526995
-527146
-527374
-527575
-527741
-527927
-528251
-528450
-529065
-528948
-529132
-529377
-529596
-529901
-530148
-530387
-530748
-531010
-531247
-531470
-531817
-532069
-532342
-532637
-532872
-533259
-533527
-533758
-534039
-534306
-534518
-534770
-534956
-535233
-535504
-535722
-535904
-536184
-536416
-536625
-536806
-536979
-537147
-537345
-537481
-537640
-537773
-537891
-538112
-538197
-538289
-538493
-538571
-538490
-538667
-538831
-538961
-539007
-539038
-539073
-539197
-539304
-539355
-539384
-539401
-539418
-539569
-539513
-539553
-539529
-539693
-539669
-539693
-539696
-539766
-539782
-539808
-539819
-539817
-539857
-539961
-539971
-539950
-540040
-540081
-540116
-540119
-540127
-540074
-540141
-540233
-540190
-540131
-540212
-540253
-540199
-540360
-540291
-540359
-540424
-540449
-540424
-540567
-540565
-540651
-540694
-540707
-540744
-540915
-540916
-540953
-540971
-541083
-541162
-541121
-541161
-541124
-541095
-541199
-541302
-541326
-541398
-541425
-541510
-541546
-541559
-541593
-541761
-541838
-541954
-542083
-542069
-542186
-542274
-542354
-542431
-542523
-542519
-542606
-542719
-542800
-542852
-542987
-543101
-543249
-543254
-543293
-543349
-543414
-543545
-543664
-543637
-543795
-543949
-544026
-544080
-544129
-544262
-544419
-544508
-544557
-544707
-544774
-544897
-544991
-545133
-545222
-545375
-545475
-545615
-545770
-545848
-546024
-546066
-546266
-546416
-546573
-546607
-546815
-546959
-547121
-547204
-547429
-547521
-547559
-548065
-548014
-548171
-548407
-548518
-548635
-548762
-549081
-549227
-549340
-549495
-549695
-549912
-550091
-550172
-550453
-550501
-550681
-550726
-550847
-550948
-551074
-551251
-551310
-551258
-551299
-551148
-551149
-550939
-550722
-550530
-550120
-549879
-549503
-549048
-548488
-547990
-547411
-546775
-546089
-545353
-544627
-543958
-543140
-542412
-541597
-540747
-539825
-538884
-537984
-537079
-536182
-535370
-534477
-533614
-532745
-531936
-531082
-530270
-529494
-528715
-527989
-527178
-526542
-525867
-525252
-524577
-524057
-523446
-522757
-522339
-521886
-521398
-521061
-520620
-520288
-519903
-519545
-519206
-518882
-518632
-518316
-518157
-517906
-517741
-517519
-517323
-517211
-517075
-516826
-516764
-516550
-516503
-516454
-516391
-516232
-516219
-516147
-516117
-516127
-516137
-516034
-515990
-516019
-516082
-516146
-516107
-516253
-516321
-516312
-516346
-516449
-516601
-516681
-516825
-516960
-516995
-517144
-517302
-517363
-517512
-518083
-517980
-518110
-518286
-518482
-518695
-519038
-519205
-519454
-519665
-519945
-520243
-520518
-520781
-521037
-521288
-521510
-521834
-522011
-522262
-522501
-522777
-523017
-523344
-523508
-523791
-523984
-524243
-524497
-524740
-524887
-525184
-525373
-525629
-525776
-525980
-526092
-526354
-526438
-526937
-526961
-527088
-527218
-527443
-527572
-527775
-527838
-527940
-528070
-528174
-528329
-528383
-528555
-528694
-528695
-528811
-528993
-529096
-529097
-529114
-529247
-529350
-529433
-529529
-529512
-529696
-529741
-529715
-529826
-529844
-529996
-530043
-530021
-530043
-530056
-530198
-530224
-530235
-530292
-530374
-530454
-530458
-530538
-530567
-530636
-530765
-530805
-530839
-530834
-530908
-531039
-531136
-531186
-531346
-531379
-531511
-531607
-531604
-531630
-531784
-531914
-532054
-532057
-532173
-532244
-532395
-532539
-532638
-532658
-532680
-532898
-533068
-533176
-533274
-533486
-533607
-533654
-534099
-533991
-534114
-534143
-534352
-534307
-534590
-534764
-534935
-535002
-535116
-535260
-535341
-535461
-535561
-535733
-535835
-535918
-535961
-536172
-536593
-536477
-536543
-536683
-536860
-536936
-536959
-537178
-537257
-537349
-537463
-537579
-537722
-537818
-537903
-538083
-538112
-538217
-538365
-538472
-538666
-538766
-538784
-538947
-539069
-539205
-539286
-539374
-539606
-539690
-539723
-539847
-539910
-540074
-540145
-540327
-540391
-540552
-540719
-540839
-541006
-541051
-541248
-541354
-541495
-541692
-541821
-541924
-542058
-542147
-542261
-542360
-542536
-542627
-542848
-543012
-543162
-543291
-543496
-543778
-543649
-543745
-543858
-544037
-544101
-544141
-544320
-544263
-544307
-544332
-544232
-544252
-544188
-544027
-543821
-543601
-543314
-542920
-542584
-542217
-541769
-541124
-540585
-540017
-539376
-538651
-537946
-537116
-536404
-535576
-534803
-533892
-533064
-532356
-531457
-530569
-529804
-528954
-528275
-527339
-526608
-525842
-524990
-524317
-523622
-522939
-522256
-521609
-521012
-520447
-519851
-519206
-518657
-518163
-517597
-517213
-516725
-516291
-515904
-515489
-515177
-514673
-514420
-514193
-513861
-513618
-513411
-513182
-513038
-512862
-512686
-512421
-512347
-512235
-512162
-512133
-512101
-512019
-511964
-511965
-511938
-511835
-512180
-511923
-511949
-511931
-511820
-511872
-511994
-512053
-512131
-512050
-512167
-512254
-512382
-512456
-512459
-512562
-512717
-512764
-512972
-513032
-513072
-513258
-513330
-513449
-513584
-513812
-513946
-514204
-514341
-514524
-514714
-514892
-515133
-515359
-515506
-515773
-515943
-516222
-516438
-516683
-516921
-517181
-517413
-517686
-517905
-518193
-518483
-518724
-518958
-519079
-519301
-519590
-519834
-520135
-520579
-520569
-520813
-520918
-521195
-521289
-521500
-521835
-522017
-522216
-522345
-522590
-522769
-522886
-523138
-523194
-523292
-523448
-523548
-523661
-523667
-523748
-523776
-523848
-523989
-523978
-524057
-524070
-524063
-524157
-524155
-524264
-524301
-524436
-524472
-524426
-524539
-524679
-524668
-524850
-524883
-525047
-525087
-525116
-525144
-525240
-525341
-525461
-525495
-525534
-525596
-525668
-525759
-525791
-525844
-525811
-525939
-525992
-526099
-526089
-526226
-526077
-526253
-526476
-526477
-526561
-526706
-526827
-526992
-526998
-527055
-527233
-527341
-527424
-527569
-527657
-527732
-527852
-528010
-528173
-528613
-528835
-529013
-529118
-529303
-529486
-529717
-529877
-530253
-530345
-530538
-530636
-530731
-530964
-531144
-531305
-531409
-531606
-531747
-531889
-532048
-532255
-532370
-532569
-532835
-532993
-533068
-533328
-533504
-533732
-533912
-534155
-534278
-534517
-534644
-534849
-535073
-535226
-535421
-535612
-535902
-536117
-536338
-536502
-536733
-536914
-537121
-537312
-537532
-537736
-537986
-538125
-538257
-538519
-538729
-538796
-539030
-539197
-539389
-539629
-539816
-539961
-540062
-540224
-540440
-540534
-540763
-540968
-541082
-541285
-541424
-541687
-541874
-541978
-542244
-542378
-543068
-542939
-543093
-543265
-543309
-543609
-543730
-543974
-544202
-544406
-544525
-544689
-545003
-545142
-545310
-545511
-545682
-545871
-546181
-546438
-546676
-546839
-547188
-547356
-547504
-547833
-547987
-548191
-548449
-548745
-549004
-549183
-549438
-549674
-549809
-550035
-550234
-550303
-550375
-550470
-550562
-550540
-550525
-550415
