PPG
-1578670
-1578739
-1576331
-1573847
-1572589
-1572361
-1573087
-1575034
-1579080
-1579413
-1578764
-1576831
-1574505
-1573188
-1574004
-1575997
-1578577
-1580064
-1579725
-1577694
-1575378
-1574229
-1574125
-1574848
-1577007
-1579665
-1580952
-1581166
-1580397
-1578499
-1575969
-1574542
-1574553
-1575018
-1576991
-1579749
-1580899
-1581065
-1580463
-1578413
-1575877
-1574486
-1574514
-1575159
-1577429
-1579973
-1581220
-1581498
-1581013
-1579005
-1576578
-1575429
-1575508
-1576202
-1578520
-1580903
-1582244
-1582667
-1582185
-1580230
-1578029
-1576728
-1576703
-1577265
-1579565
-1582140
-1583542
-1583795
-1583152
-1581195
-1578816
-1577525
-1577605
-1578266
-1580356
-1582779
-1584258
-1584475
-1583627
-1581492
-1579052
-1577740
-1577805
-1578062
-1580345
-1582721
-1584026
-1584165
-1583644
-1581340
-1577667
-1577514
-1578023
-1580192
-1582879
-1584314
-1584457
-1583656
-1581723
-1579220
-1577708
-1577669
-1578375
-1580126
-1582536
-1583862
-1583897
-1582727
-1580460
-1578055
-1576455
-1575958
-1576408
-1578323
-1580783
-1581907
-1581073
-1578614
-1576085
-1574583
-1574365
-1575057
-1579213
-1580407
-1580502
-1579772
-1577656
-1575238
-1573921
-1573752
-1574267
-1576518
-1579038
-1580363
-1580558
-1579905
-1577725
-1575275
-1573969
-1573824
-1574341
-1576922
-1579242
-1580581
-1580547
-1580086
-1577841
-1575132
-1573606
-1573583
-1574388
-1576497
-1579074
-1580358
-1580613
-1579701
-1577749
-1575327
-1573827
-1573930
-1574448
-1576747
-1579105
-1580478
-1580607
-1579626
-1577481
-1574686
-1573308
-1573268
-1573897
-1575890
-1578325
-1579828
-1580001
-1579221
-1576917
-1574696
-1573363
-1574546
-1574459
-1576540
-1579019
-1580302
-1580393
-1579536
-1577587
-1574690
-1573789
-1573939
-1574687
-1577212
-1579639
-1580891
-1581240
-1580606
-1578451
-1576031
-1574863
-1574899
-1575715
-1578061
-1580461
-1581824
-1581961
-1581270
-1578969
-1576509
-1575137
-1575064
-1575395
-1577593
-1580335
-1581433
-1581500
-1580607
-1578483
-1575970
-1574790
-1574690
-1575112
-1577374
-1579960
-1581279
-1581209
-1580482
-1578411
-1575878
-1574412
-1574455
-1575251
-1577361
-1579755
-1581077
-1581264
-1580520
-1577945
-1576976
-1575170
-1574800
-1575632
-1577944
-1580274
-1581634
-1580962
-1578598
-1576207
-1575130
-1574946
-1575569
-1577549
-1579625
-1581158
-1581345
-1580605
-1578115
-1575599
-1574374
-1574121
-1574822
-1576730
-1579553
-1580847
-1581198
-1580484
-1578436
-1576188
-1575179
-1575357
-1575919
-1578284
-1580846
-1582151
-1582273
-1581576
-1579198
-1576873
-1575818
-1575597
-1576312
-1578245
-1581126
-1582661
-1582922
-1581753
-1579998
-1577791
-1576697
-1576569
-1577322
-1583379
-1578751
-1578545
-1584117
-1585251
-1585260
-1584386
-1582054
-1579556
-1583340
-1584561
-1584802
-1584752
-1583282
-1581099
-1579936
-1579639
-1580388
-1582425
-1584949
-1585876
-1586225
-1585535
-1583258
-1580821
-1579631
-1579504
-1580382
-1582589
-1584705
-1585800
-1585879
-1585005
-1582555
-1580118
-1579127
-1579137
-1579670
-1581800
-1583935
-1584748
-1584796
-1583463
-1580572
-1578260
-1577010
-1576705
-1577409
-1579926
-1582263
-1583031
-1582975
-1581669
-1579273
-1576769
-1575332
-1574856
-1575555
-1577745
-1579755
-1580734
-1580770
-1579631
-1577271
-1574688
-1573350
-1573186
-1573496
-1576110
-1578153
-1579157
-1579208
-1578260
-1576107
-1573914
-1572618
-1572608
-1573554
-1575727
-1578121
-1579309
-1579384
-1578593
-1576435
-1572792
-1572704
-1573526
-1575705
-1578085
-1579158
-1579353
-1578432
-1576390
-1573936
-1572890
-1572847
-1573702
-1576002
-1578038
-1579202
-1579597
-1578608
-1576483
-1574263
-1573180
-1573244
-1574284
-1576463
-1578714
-1579958
-1580287
-1579488
-1577091
-1574593
-1573373
-1573391
-1574110
-1576241
-1579105
-1579678
-1579746
-1578801
-1576346
-1573602
-1572358
-1572322
-1573629
-1575517
-1577507
-1578355
-1578670
-1577769
-1575460
-1572927
-1571886
-1571871
-1573039
-1575494
-1577513
-1579160
-1579821
-1579240
-1576713
-1575305
-1575008
-1575512
-1576699
-1579760
-1582617
-1584257
-1584857
-1584546
-1581747
-1579722
-1578612
-1578545
-1579290
-1581690
-1584187
-1585251
-1585359
-1584109
-1581925
-1579674
-1578397
-1578343
-1579064
-1581597
-1583924
-1584734
-1584618
-1583492
-1580693
-1577804
-1576257
-1575608
-1575936
-1577730
-1579505
-1580010
-1580044
-1579309
-1576893
-1574098
-1572942
-1572639
-1573276
-1575462
-1577960
-1579614
-1580486
-1580030
-1577542
-1574659
-1573321
-1573313
-1574532
-1577018
-1579340
-1580345
-1580279
-1579199
-1576868
-1574631
-1573531
-1573307
-1574022
-1576756
-1579050
-1580470
-1580713
-1580195
-1578036
-1575852
-1574803
-1575088
-1575912
-1578394
-1580862
-1582169
-1582424
-1581381
-1579063
-1576936
-1575854
-1575888
-1576722
-1579008
-1581462
-1582526
-1582348
-1581353
-1578857
-1576634
-1575252
-1575130
-1575855
-1578361
-1580637
-1581702
-1581799
-1581063
-1578431
-1576260
-1575414
-1575517
-1575967
-1578656
-1580796
-1582201
-1582283
-1581469
-1579283
-1577001
-1575876
-1575746
-1576123
-1579015
-1581329
-1582308
-1582610
-1581579
-1579268
-1576797
-1575699
-1575684
-1576497
-1578835
-1581050
-1582228
-1582233
-1581196
-1578791
-1576413
-1575404
-1575141
-1576265
-1578556
-1580640
-1581901
-1581798
-1581031
-1578651
-1576435
-1575607
-1575500
-1576310
-1578739
-1581136
-1582022
-1582247
-1581319
-1579050
-1576596
-1575562
-1575452
-1576067
-1578530
-1580796
-1581803
-1581737
-1580973
-1578368
-1576165
-1575014
-1574869
-1575726
-1578120
-1580421
-1581425
-1581696
-1580712
-1578437
-1576234
-1575289
-1575295
-1576237
-1578935
-1581536
-1582679
-1582791
-1581986
-1580095
-1577920
-1577106
-1577398
-1578650
-1581222
-1583851
-1585052
-1585564
-1584979
-1583043
-1581193
-1580531
-1580982
-1582214
-1584878
-1587820
-1589074
-1589528
-1588641
-1586132
-1583675
-1582950
-1583186
-1584225
-1586746
-1589224
-1590323
-1590283
-1589253
-1586848
-1584898
-1584177
-1584410
-1585183
-1587962
-1590234
-1591070
-1591481
-1590525
-1588271
-1586319
-1584962
-1585261
-1586209
-1588394
-1591185
-1591974
-1592337
-1591488
-1589553
-1587404
-1586430
-1586585
-1587518
-1589977
-1592150
-1593204
-1593438
-1592633
-1590307
-1588140
-1587303
-1587281
-1588240
-1590702
-1592702
-1593376
-1593354
-1592312
-1589638
-1587335
-1586461
-1586441
-1587443
-1589702
-1591668
-1592914
-1593198
-1592519
-1590457
-1588184
-1587375
-1587407
-1588112
-1590766
-1593024
-1594235
-1593850
-1593172
-1592087
-1588753
-1587549
-1587487
-1588049
-1590746
-1593030
-1593928
-1593611
-1593002
-1590905
-1588714
-1587603
-1587665
-1588141
-1592245
-1593530
-1594152
-1594356
-1593242
-1591081
-1588830
-1587887
-1587830
-1588835
-1591219
-1593325
-1594214
-1594430
-1593490
-1591207
-1588986
-1588172
-1588123
-1588981
-1592687
-1594348
-1595020
-1595125
-1594038
-1592091
-1590192
-1589306
-1589634
-1590481
-1593291
-1595390
-1596296
-1596461
-1595646
-1593560
-1591192
-1590418
-1590444
-1591092
-1593149
-1595341
-1596240
-1596415
-1595792
-1593420
-1591278
-1590370
-1590311
-1591187
-1593806
-1596165
-1597150
-1597384
-1596402
-1594275
-1592060
-1591205
-1591290
-1592073
-1594514
-1597085
-1597921
-1598044
-1597347
-1595184
-1592901
-1592173
-1592009
-1593111
-1595501
-1597750
-1598845
-1598940
-1597841
-1595414
-1593368
-1592617
-1592235
-1592930
-1595541
-1597990
-1597881
-1595647
-1593490
-1592741
-1592735
-1593967
-1596442
-1598541
-1599406
-1599694
-1598835
-1596422
-1594248
-1593469
-1593306
-1594391
-1596924
-1599154
-1599964
-1600242
-1598859
-1596694
-1594616
-1593814
-1593648
-1594566
-1599351
-1596837
-1593800
-1593648
-1594645
-1599248
-1600449
-1599466
-1596945
-1593581
-1593514
-1594638
-1596981
-1598978
-1599775
-1600075
-1598552
-1593366
-1593378
-1594270
-1599063
-1600029
-1600223
-1599180
-1596792
-1594614
-1593849
-1593940
-1594924
-1597250
-1599495
-1600456
-1600661
-1599363
-1597246
-1594264
-1594035
-1595032
-1597418
-1599674
-1600422
-1600437
-1599406
-1597138
-1595096
-1594259
-1594372
-1595244
-1597886
-1601044
-1601077
-1597808
-1595433
-1594610
-1594305
-1597808
-1600233
-1601065
-1601093
-1600316
-1597796
-1595576
-1594736
-1594797
-1595625
-1598027
-1600390
-1601443
-1601507
-1600562
-1598300
-1596185
-1595268
-1595398
-1596241
-1598585
-1600970
-1601949
-1602070
-1600947
-1598673
-1596495
-1595866
-1596686
-1597319
-1599439
-1601610
-1602249
-1602469
-1601253
-1598955
-1596849
-1595973
-1595982
-1596971
-1599256
-1601592
-1602208
-1602060
-1600811
-1598526
-1596445
-1595587
-1595368
-1596146
-1598693
-1600831
-1601650
-1601610
-1600521
-1598167
-1595815
-1594965
-1594702
-1595436
-1597911
-1600116
-1600731
-1600697
-1599406
-1597029
-1594476
-1593338
-1593019
-1593932
-1595863
-1597772
-1598320
-1598170
-1596764
-1594337
-1591744
-1590645
-1590358
-1590897
-1593015
-1594802
-1595517
-1595198
-1593478
-1591205
-1588682
-1587702
-1587276
-1588071
-1590298
-1592219
-1593027
-1592941
-1591410
-1589021
-1586489
-1585791
-1585622
-1586648
-1588847
-1590888
-1591658
-1591654
-1590352
-1588179
-1585905
-1585005
-1584862
-1586183
-1588311
-1590372
-1591079
-1591275
-1590095
-1587707
-1585418
-1584587
-1584469
-1585299
-1587582
-1589794
-1590492
-1590290
-1589000
-1586678
-1584469
-1583691
-1583534
-1584501
-1586761
-1588925
-1589546
-1589580
-1588563
-1586300
-1583947
-1582912
-1582499
-1583548
-1585978
-1587363
-1588897
-1588964
-1587926
-1585672
-1583406
-1582461
-1582447
-1583592
-1585973
-1588156
-1588813
-1588742
-1587697
-1585462
-1583249
-1582517
-1582595
-1583544
-1585765
-1587940
-1588791
-1588781
-1587730
-1585447
-1583195
-1582293
-1582432
-1583076
-1585603
-1587781
-1588622
-1588643
-1587607
-1585237
-1583111
-1582379
-1582556
-1583469
-1586007
-1588409
-1589191
-1589326
-1587897
-1585843
-1583634
-1583055
-1583136
-1584102
-1586581
-1589137
-1590046
-1590067
-1588980
-1586691
-1584723
-1584092
-1584116
-1585146
-1587797
-1590097
-1591067
-1591189
-1590014
-1587897
-1585596
-1585014
-1585109
-1586257
-1588777
-1591104
-1591966
-1592014
-1591229
-1588582
-1586397
-1585955
-1585872
-1586878
-1589232
-1591830
-1592717
-1592838
-1591993
-1589825
-1587457
-1586927
-1586902
-1587769
-1590452
-1592625
-1593442
-1593324
-1592302
-1589853
-1587606
-1586957
-1587015
-1587957
-1590304
-1592352
-1593015
-1592848
-1591561
-1589462
-1587196
-1586276
-1586154
-1587024
-1589418
-1591660
-1592383
-1592462
-1591291
-1589091
-1586940
-1586137
-1586381
-1587365
-1589718
-1591950
-1592716
-1592658
-1591869
-1589703
-1587407
-1586778
-1587000
-1588025
-1590653
-1588021
-1589184
-1594050
-1594737
-1591730
-1589252
-1589562
-1591761
-1594050
-1588831
-1591233
-1593623
-1594515
-1594474
-1593291
-1591000
-1588764
-1587860
-1588083
-1588845
-1591331
-1593443
-1594344
-1594185
-1592997
-1590753
-1588456
-1587600
-1587689
-1588968
-1592711
-1590674
-1588425
-1587775
-1587864
-1588662
-1590976
-1593365
-1594176
-1593998
-1593163
-1590760
-1588302
-1587548
-1587677
-1588740
-1590951
-1593336
-1594039
-1593833
-1593041
-1590620
-1588301
-1587667
-1587985
-1588652
-1591065
-1593324
-1594242
-1594313
-1593294
-1591152
-1588903
-1588251
-1588485
-1589496
-1591855
-1594230
-1594979
-1594962
-1594022
-1591945
-1589647
-1588960
-1589247
-1589917
-1592412
-1594681
-1595600
-1595451
-1594635
-1592280
-1589909
-1589064
-1589288
-1590284
-1592790
-1595043
-1595814
-1595877
-1594948
-1592498
-1590143
-1589361
-1589690
-1590557
-1592870
-1595148
-1596055
-1595847
-1594995
-1592552
-1590271
-1589624
-1589807
-1590907
-1593331
-1595512
-1596470
-1596336
-1595486
-1593237
-1591177
-1590676
-1590887
-1592058
-1594397
-1596682
-1597717
-1597462
-1596640
-1594375
-1591941
-1591227
-1591416
-1592431
-1594838
-1596945
-1597831
-1597642
-1596824
-1594339
-1592116
-1591089
-1591500
-1592221
-1594395
-1596728
-1597423
-1597377
-1596301
-1593976
-1591527
-1590670
-1590969
-1591750
-1594147
-1596425
-1597295
-1597146
-1596336
-1593857
-1591559
-1590845
-1591262
-1592016
-1594543
-1597092
-1597991
-1597745
-1596787
-1594667
-1592647
-1592058
-1592260
-1593471
-1595777
-1597920
-1599035
-1598854
-1597967
-1595659
-1593427
-1592768
-1593092
-1593945
-1596463
-1598703
-1599671
-1599445
-1598513
-1596048
-1593379
-1592806
-1593143
-1594270
-1596464
-1598684
-1599704
-1599538
-1598346
-1596159
-1593911
-1593068
-1593258
-1594226
-1596883
-1599289
-1599975
-1599911
-1598946
-1596697
-1594431
-1593810
-1593995
-1595026
-1597565
-1599825
-1600600
-1600582
-1599364
-1596940
-1594907
-1593972
-1594271
-1595272
-1597657
-1599930
-1600773
-1600715
-1599539
-1597147
-1595003
-1594145
-1594510
-1595466
-1597973
-1600294
-1601193
-1601012
-1599943
-1597544
-1595472
-1594825
-1595015
-1596123
-1598492
-1601044
-1601913
-1601703
-1600586
-1598293
-1595908
-1595362
-1595517
-1596551
-1599106
-1601329
-1602177
-1602009
-1600945
-1598524
-1596149
-1595409
-1595544
-1596530
-1598956
-1601247
-1602080
-1602010
-1600609
-1598381
-1596098
-1595384
-1595523
-1596394
-1598671
-1601010
-1601616
-1601367
-1600304
-1597975
-1595720
-1594971
-1594982
-1595890
-1598293
-1600733
-1601497
-1601409
-1600384
-1598085
-1595797
-1595034
-1595245
-1596253
-1598740
-1601114
-1602054
-1601953
-1600868
-1598527
-1596213
-1595749
-1596005
-1597043
-1599395
-1601871
-1602437
-1602894
-1602033
-1599810
-1597753
-1596976
-1597170
-1598252
-1600611
-1602941
-1603785
-1603346
-1602375
-1599994
-1597770
-1596877
-1596817
-1597829
-1600229
-1602282
-1603004
-1603026
-1601763
-1599477
-1597159
-1596439
-1596310
-1597346
-1599702
-1601970
-1602688
-1602668
-1601422
-1598900
-1596377
-1595710
-1595585
-1596460
-1598541
-1600754
-1601402
-1601231
-1599887
-1597605
-1595134
-1594090
-1595019
-1595469
-1597525
-1599106
-1599889
-1599728
-1598477
-1595992
-1593458
-1592398
-1592243
-1593092
-1595026
-1597262
-1597685
-1597448
-1596128
-1593613
-1590963
-1590165
-1589926
-1591624
-1593093
-1595267
-1595986
-1595788
-1594312
-1592041
-1589655
-1588599
-1588610
-1589591
-1592112
-1593912
-1594759
-1594852
-1593660
-1591240
-1588894
-1588069
-1588061
-1589090
-1591342
-1593814
-1594389
-1594281
-1593258
-1590933
-1588490
-1587718
-1587810
-1588130
-1590876
-1593152
-1593939
-1593797
-1592376
-1590007
-1587424
-1586778
-1586664
-1587479
-1589774
-1592140
-1592664
-1592131
-1591201
-1588814
-1586519
-1585592
-1585655
-1586815
-1588709
-1591170
-1592023
-1592038
-1590897
-1588475
-1585699
-1585199
-1585390
-1586296
-1589044
-1591597
-1592534
-1592486
-1591071
-1589047
-1586820
-1586097
-1586269
-1587352
-1589711
-1591460
-1592610
-1592647
-1591313
-1588715
-1586288
-1585297
-1585419
-1586070
-1588526
-1590640
-1591110
-1591063
-1590041
-1587887
-1586025
-1585182
-1585110
-1586167
-1588324
-1591024
-1592170
-1592451
-1591601
-1589331
-1587343
-1586356
-1586642
-1587860
-1590319
-1592900
-1593774
-1593713
-1592519
-1590118
-1587719
-1587078
-1587031
-1588150
-1590567
-1592805
-1593494
-1593531
-1592614
-1589961
-1586783
-1586548
-1586954
-1588080
-1590555
-1592773
-1593590
-1593441
-1592056
-1589981
-1587816
-1586836
-1586998
-1588140
-1590561
-1592881
-1593881
-1593856
-1592907
-1590199
-1588454
-1587656
-1587859
-1588940
-1591404
-1593599
-1594367
-1594209
-1593371
-1591090
-1588750
-1588086
-1588311
-1589431
-1591795
-1594204
-1595124
-1595364
-1594190
-1591951
-1589829
-1589095
-1589231
-1590010
-1592413
-1594856
-1595827
-1595565
-1594593
-1592145
-1589888
-1589134
-1589232
-1590340
-1592687
-1594982
-1595697
-1595704
-1594488
-1592225
-1589869
-1589193
-1589369
-1590177
-1592782
-1594792
-1595734
-1595637
-1594795
-1592244
-1590034
-1589248
-1589671
-1590557
-1593004
-1595457
-1596414
-1596616
-1595499
-1593163
-1590956
-1590158
-1590527
-1591670
-1594192
-1596398
-1597245
-1597146
-1596222
-1593649
-1591473
-1590715
-1590839
-1591694
-1594210
-1596671
-1597459
-1597363
-1596333
-1593917
-1591462
-1590542
-1590614
-1591467
-1594086
-1596275
-1597047
-1596876
-1596050
-1593523
-1591194
-1590576
-1590549
-1591519
-1594231
-1596658
-1597602
-1597601
-1596582
-1594281
-1592019
-1591164
-1591583
-1592652
-1594965
-1597234
-1598202
-1598080
-1597104
-1594671
-1592481
-1591683
-1592048
-1593015
-1595247
-1597516
-1598372
-1598334
-1597510
-1595050
-1592672
-1591932
-1591993
-1593057
-1595582
-1597641
-1598643
-1598606
-1597358
-1595235
-1592887
-1592114
-1592320
-1593690
-1596073
-1598416
-1599190
-1599245
-1598212
-1595975
-1593519
-1592929
-1593040
-1594223
-1596527
-1598971
-1599893
-1599911
-1598639
-1596231
-1594033
-1593221
-1593501
-1594561
-1597023
-1599196
-1600206
-1600219
-1598963
-1596526
-1594308
-1593469
-1593690
-1594646
-1597022
-1599408
-1600286
-1600237
-1599246
-1596840
-1594536
-1593823
-1593946
-1594938
-1597365
-1599837
-1600812
-1600860
-1599634
-1597198
-1595004
-1594246
-1594447
-1595301
-1597778
-1600248
-1600992
-1601157
-1599884
-1597642
-1595327
-1594519
-1594701
-1595832
-1598135
-1600567
-1601437
-1601548
-1600226
-1598014
-1595785
-1594958
-1595105
-1596231
-1598525
-1600848
-1601774
-1601779
-1600472
-1597980
-1595788
-1595099
-1595271
-1596304
-1598593
-1601069
-1601791
-1601875
-1600654
-1598287
-1595937
-1595202
-1595514
-1596716
-1598950
-1601453
-1602213
-1602233
-1600927
-1598661
-1596339
-1595544
-1595453
-1596575
-1599177
-1601312
-1602017
-1602181
-1600934
-1598606
-1596419
-1595660
-1595695
-1596738
-1599119
-1601510
-1602549
-1602459
-1601372
-1598963
-1596726
-1595934
-1596324
-1597333
-1599756
-1602092
-1602997
-1602958
-1601678
-1599549
-1597325
-1596532
-1596717
-1597757
-1600228
-1602416
-1603326
-1603414
-1602192
-1599924
-1597582
-1596859
-1597114
-1598041
-1600532
-1603092
-1603904
-1603716
-1602494
-1600252
-1597844
-1597118
-1597376
-1598505
-1600798
-1603183
-1604261
-1604190
-1602983
-1600747
-1598330
-1597662
-1597727
-1599034
-1601463
-1603772
-1604671
-1604484
-1603528
-1601206
-1598782
-1598095
-1598169
-1599965
-1601936
-1604277
-1605071
-1604956
-1603799
-1601713
-1599279
-1598526
-1598832
-1599889
-1602254
-1604594
-1605514
-1605581
-1604383
-1602118
-1599895
-1599143
-1599241
-1600559
-1602951
-1605226
-1606056
-1606128
-1604733
-1602555
-1600433
-1605549
-1599845
-1605707
-1606438
-1600015
-1601284
-1603534
-1605798
-1600075
-1600248
-1601525
-1603880
-1606119
-1606882
-1607003
-1605749
-1603472
-1601054
-1600234
-1600291
-1601400
-1604006
-1606218
-1607198
-1607096
-1605669
-1603409
-1601010
-1600261
-1600317
-1601424
-1603651
-1606022
-1606695
-1606493
-1605305
-1602845
-1600518
-1599635
-1599684
-1600425
-1602723
-1604956
-1605603
-1605482
-1604259
-1601781
-1599275
-1598310
-1598136
-1598900
-1601117
-1603260
-1603928
-1603898
-1602643
-1600011
-1597383
-1596668
-1596394
-1597384
-1599684
-1601838
-1602444
-1602187
-1600893
-1598234
-1595731
-1594789
-1594780
-1595665
-1597891
-1600166
-1600929
-1600872
-1599409
-1596807
-1594390
-1593547
-1593745
-1594667
-1596982
-1598996
-1599688
-1599783
-1598552
-1596028
-1593690
-1592833
-1592695
-1593870
-1596117
-1598273
-1598982
-1598955
-1597777
-1595385
-1593072
-1592223
-1592069
-1593232
-1595784
-1597723
-1598474
-1598560
-1597394
-1594828
-1592506
-1591659
-1591666
-1592550
-1594897
-1597323
-1598149
-1598161
-1596910
-1594368
-1591916
-1591133
-1590986
-1592150
-1594702
-1596976
-1597661
-1597687
-1596278
-1593872
-1591463
-1590728
-1590915
-1591950
-1594273
-1596452
-1597133
-1597273
-1595836
-1593294
-1591005
-1590149
-1590184
-1591163
-1593521
-1595791
-1596796
-1596790
-1595375
-1593071
-1590601
-1589782
-1589857
-1590925
-1593297
-1595805
-1596551
-1596695
-1595298
-1592725
-1590651
-1589783
-1589758
-1591085
-1593307
-1595756
-1596708
-1596822
-1595607
-1593216
-1590916
-1590073
-1590195
-1591221
-1593752
-1596231
-1597040
-1597148
-1595909
-1593705
-1591368
-1590609
-1590742
-1591675
-1594208
-1596722
-1597598
-1597698
-1596570
-1594155
-1591694
-1590764
-1590937
-1592059
-1594334
-1596809
-1597582
-1597644
-1596624
-1594242
-1591885
-1590881
-1590930
-1591898
-1594553
-1596856
-1597718
-1597792
-1596678
-1594292
-1592040
-1591141
-1591242
-1592370
-1594856
-1596944
-1597818
-1597832
-1596716
-1594456
-1591928
-1591238
-1591126
-1592206
-1594602
-1597032
-1597890
-1598071
-1596993
-1594549
-1592202
-1591232
-1591243
-1592453
-1594851
-1597237
-1598216
-1598194
-1597184
-1594608
-1592166
-1591337
-1591388
-1592552
-1594954
-1597362
-1598114
-1598203
-1597008
-1594639
-1592403
-1591615
-1591806
-1592935
-1595389
-1597806
-1598599
-1598491
-1597352
-1595119
-1592906
-1592030
-1592045
-1593075
-1595563
-1598052
-1598865
-1599108
-1597916
-1595587
-1593270
-1592446
-1592399
-1593566
-1595923
-1598358
-1599323
-1599446
-1598098
-1595907
-1593518
-1592764
-1592651
-1593617
-1596102
-1598387
-1599465
-1599383
-1598292
-1596057
-1593683
-1592751
-1592819
-1593812
-1596290
-1598834
-1599648
-1599637
-1598650
-1596015
-1593865
-1593051
-1592969
-1594031
-1596500
-1598778
-1599579
-1599736
-1598725
-1596033
-1593848
-1593072
-1592952
-1594136
-1596748
-1598764
-1599757
-1599735
-1598749
-1596449
-1593967
-1593135
-1593130
-1594322
-1596862
-1599245
-1600025
-1600110
-1598922
-1596511
-1594255
-1593186
-1593445
-1594597
-1596926
-1599410
-1600175
-1600261
-1599253
-1596959
-1594481
-1593682
-1593808
-1595119
-1597437
-1599785
-1600644
-1600765
-1599861
-1597347
-1595076
-1594187
-1594380
-1595546
-1597862
-1600350
-1601411
-1601311
-1600002
-1597822
-1595413
-1594598
-1594709
-1595753
-1598229
-1600692
-1601706
-1601581
-1600601
-1598368
-1595946
-1595111
-1595183
-1596169
-1598484
-1600867
-1601892
-1602004
-1600814
-1598441
-1595942
-1595164
-1595319
-1596185
-1598720
-1601057
-1601930
-1601956
-1600670
-1598217
-1596036
-1595329
-1595149
-1596069
-1598602
-1600882
-1601863
-1602066
-1600906
-1597958
-1596080
-1595140
-1595298
-1596294
-1598860
-1601117
-1602148
-1601889
-1600919
-1598760
-1596293
-1595620
-1595760
-1596795
-1599188
-1601498
-1602392
-1602573
-1601554
-1599334
-1597130
-1596117
-1596343
-1597293
-1599692
-1602120
-1603074
-1603067
-1602000
-1599709
-1597336
-1596509
-1596556
-1597491
-1600143
-1602470
-1603290
-1603289
-1602318
-1600062
-1597651
-1596873
-1596505
-1597805
-1600217
-1602471
-1603386
-1603473
-1602407
-1600254
-1597896
-1597060
-1597076
-1598107
-1600520
-1602787
-1603793
-1603893
-1602786
-1600565
-1598262
-1597403
-1597462
-1598572
-1601020
-1602992
-1603929
-1604116
-1602843
-1600639
-1598358
-1597472
-1597604
-1598848
-1601215
-1603260
-1604072
-1604307
-1602964
-1601648
-1598947
-1597896
-1598002
-1598991
-1601324
-1603640
-1604591
-1604794
-1603725
-1601380
-1598986
-1598268
-1598389
-1599537
-1601938
-1604278
-1605101
-1605284
-1604280
-1601822
-1599582
-1598827
-1598900
-1600038
-1602323
-1604695
-1605471
-1605555
-1604562
-1602209
-1599972
-1599246
-1599340
-1600279
-1602595
-1604946
-1605865
-1605799
-1604648
-1602267
-1599921
-1599175
-1599389
-1600270
-1602790
-1604957
-1605796
-1605820
-1604703
-1602549
-1600060
-1599262
-1599263
-1600276
-1602792
-1605075
-1605934
-1606010
-1605109
-1602572
-1600149
-1599243
-1599566
-1600602
-1603004
-1605265
-1606206
-1606189
-1605197
-1602677
-1600497
-1599699
-1599686
-1600852
-1603098
-1605452
-1606428
-1606669
-1605410
-1602980
-1600608
-1599863
-1599850
-1601015
-1603375
-1605825
-1608418
-1607483
-1606151
-1603300
-1601046
-1600370
-1600223
-1601324
-1603860
-1606002
-1607072
-1607276
-1606167
-1603538
-1601364
-1600454
-1600408
-1601398
-1604077
-1606346
-1607190
-1607356
-1606438
-1603981
-1601583
-1600638
-1600627
-1601609
-1604359
-1606802
-1607489
-1607625
-1606408
-1604194
-1601936
-1601139
-1601207
-1602325
-1605940
-1607200
-1608028
-1608042
-1606973
-1604510
-1602266
-1601432
-1601472
-1602514
-1604953
-1607147
-1608124
-1608340
-1607268
-1604718
-1602464
-1601777
-1601659
-1602564
-1605120
-1607487
-1608235
-1608176
-1607080
-1604489
-1602226
-1601341
-1601311
-1601742
-1604433
-1606583
-1607258
-1606964
-1606758
-1603744
-1600960
-1599835
-1599669
-1601871
-1603679
-1605169
-1605913
-1605675
-1604503
-1602035
-1599207
-1598299
-1598040
-1598684
-1601216
-1603332
-1604004
-1603977
-1602601
-1599986
-1597377
-1596342
-1596215
-1597165
-1599433
-1601574
-1602410
-1602428
-1601247
-1598724
-1596305
-1595316
-1595351
-1596112
-1598494
-1601663
-1601858
-1601797
-1600592
-1597963
-1595501
-1594568
-1594725
-1595643
-1598109
-1600151
-1601014
-1601138
-1600295
-1597447
-1595260
-1594349
-1593900
-1594994
-1597571
-1600031
-1600985
-1600971
-1599808
-1597246
-1595048
-1594034
-1593811
-1594669
-1597217
-1599485
-1600355
-1600509
-1599501
-1596924
-1594494
-1593612
-1593669
-1594486
-1596896
-1599172
-1600094
-1599959
-1598892
-1596515
-1594263
-1593318
-1593350
-1593989
-1596525
-1598906
-1599682
-1599814
-1598694
-1596109
-1593753
-1592970
-1592773
-1593628
-1596057
-1598083
-1599353
-1599430
-1598503
-1596005
-1593569
-1592491
-1592443
-1593450
-1595716
-1598030
-1598910
-1599101
-1598132
-1595782
-1593372
-1592605
-1592295
-1593239
-1595722
-1597950
-1598933
-1599058
-1598278
-1595874
-1593420
-1592482
-1592560
-1593298
-1596052
-1598148
-1599292
-1599339
-1598354
-1595946
-1593633
-1592763
-1592768
-1593752
-1596246
-1598489
-1599603
-1599865
-1598793
-1596721
-1594663
-1593714
-1593771
-1594806
-1597320
-1599751
-1600681
-1600858
-1599786
-1597378
-1595221
-1594271
-1594100
-1594884
-1597586
-1599953
-1600983
-1600878
-1600077
-1597679
-1595305
-1594504
-1594468
-1595238
-1597693
-1600057
-1601035
-1601138
-1600203
-1597688
-1595339
-1594192
-1594239
-1595076
-1597700
-1599876
-1600868
-1601103
-1600241
-1597693
-1595420
-1594495
-1594786
-1595636
-1598002
-1600116
-1601086
-1601245
-1600228
-1597896
-1595725
-1594644
-1594614
-1595456
-1597927
-1600234
-1601406
-1601379
-1600558
-1598040
-1595668
-1594700
-1594534
-1595379
-1598041
-1600174
-1601432
-1601262
-1600463
-1598044
-1595884
-1594817
-1594840
-1595620
-1598318
-1600696
-1601703
-1601755
-1600794
-1598348
-1596128
-1594993
-1595100
-1595674
-1598372
-1600642
-1601681
-1601952
-1601252
-1598706
-1596159
-1595118
-1594923
-1595722
-1598517
-1600835
-1601782
-1601999
-1601039
-1598444
-1596300
-1595197
-1595184
-1596029
-1598459
-1600863
-1602024
-1602219
-1601370
-1598727
-1596539
-1595265
-1595294
-1595955
-1598548
-1600778
-1601787
-1602163
-1601227
-1598470
-1596343
-1595234
-1595202
-1595866
-1598520
-1600895
-1601946
-1602223
-1601269
-1598873
-1596629
-1595470
-1595486
-1596376
-1599627
-1601474
-1602273
-1602555
-1601762
-1599380
-1596591
-1595877
-1595953
-1596745
-1599323
-1601491
-1602734
-1602910
-1602029
-1599311
-1597195
-1596180
-1596305
-1597246
-1599820
-1601851
-1602846
-1603083
-1602084
-1599942
-1597454
-1596439
-1596483
-1597266
-1599737
-1602032
-1603143
-1603220
-1602424
-1600045
-1597662
-1596635
-1596683
-1597230
-1599749
-1602266
-1603399
-1603330
-1602704
-1600241
-1598124
-1597042
-1596883
-1597763
-1600214
-1602517
-1603683
-1603813
-1603048
-1600572
-1598426
-1597298
-1597363
-1597948
-1600528
-1602964
-1604121
-1604310
-1603510
-1601153
-1598839
-1597789
-1597838
-1598399
-1600787
-1603154
-1604496
-1604616
-1603684
-1601425
-1598999
-1597910
-1598032
-1598763
-1601194
-1603636
-1604661
-1604932
-1604029
-1602446
-1599614
-1598348
-1598177
-1598770
-1601397
-1603658
-1604928
-1605116
-1604449
-1601844
-1599409
-1598418
-1598467
-1599208
-1601641
-1603862
-1605191
-1604842
-1604472
-1602326
-1599482
-1598723
-1598606
-1599247
-1601806
-1604367
-1605472
-1605650
-1604899
-1602618
-1600135
-1599041
-1599193
-1599872
-1602651
-1604843
-1606090
-1606168
-1605549
-1603227
-1601066
-1599789
-1599918
-1600608
-1602988
-1605447
-1606613
-1606678
-1605831
-1603581
-1601405
-1600072
-1599984
-1600901
-1603237
-1605677
-1607029
-1607156
-1606162
-1603845
-1601518
-1600537
-1600476
-1601213
-1603502
-1605821
-1607002
-1607277
-1606591
-1604332
-1602561
-1600964
-1600756
-1601687
-1603973
-1606340
-1607672
-1607731
-1606926
-1604637
-1602400
-1601367
-1601341
-1601908
-1604524
-1606773
-1607963
-1608246
-1607403
-1605100
-1602726
-1601607
-1601593
-1602192
-1604848
-1607163
-1608252
-1608487
-1607940
-1605534
-1603131
-1602067
-1602140
-1602834
-1605074
-1607394
-1608678
-1608746
-1607970
-1605821
-1603178
-1602110
-1602203
-1602925
-1605439
-1607817
-1608908
-1609084
-1609400
-1606465
-1604093
-1602853
-1602963
-1603336
-1605888
-1608486
-1609776
-1610022
-1609218
-1606724
-1604652
-1603496
-1603794
-1604424
-1606913
-1609278
-1610487
-1610870
-1610237
-1607857
-1605560
-1604620
-1604486
-1604728
-1607450
-1610090
-1611373
-1611596
-1610973
-1608777
-1606582
-1605314
-1605213
-1605485
-1608157
-1610593
-1611888
-1612087
-1611303
-1609064
-1606855
-1605501
-1605464
-1606163
-1608374
-1610844
-1612108
-1612094
-1611553
-1609057
-1606861
-1605710
-1605498
-1606284
-1608624
-1610968
-1612301
-1612465
-1611744
-1609560
-1607233
-1605949
-1605812
-1606451
-1609100
-1611521
-1612730
-1612915
-1612387
-1609815
-1607680
-1606398
-1606403
-1606940
-1609228
-1611737
-1612964
-1613178
-1612489
-1610209
-1607816
-1606627
-1606527
-1607120
-1609503
-1611816
-1614496
-1613765
-1612722
-1610208
-1607651
-1606529
-1606362
-1607096
-1609416
-1611822
-1612845
-1613216
-1612425
-1610002
-1607851
-1607808
-1607980
-1607402
-1609545
-1611743
-1613041
-1612952
-1612410
-1610114
-1607688
-1606338
-1606403
-1606780
-1609206
-1611556
-1612710
-1612864
-1612176
-1609722
-1607241
-1606091
-1606015
-1606493
-1608489
-1610642
-1611885
-1611975
-1611136
-1608790
-1606338
-1604762
-1604332
-1604807
-1606728
-1609130
-1610228
-1610115
-1609268
-1606617
-1604109
-1602516
-1602224
-1602544
-1604546
-1606559
-1607615
-1607739
-1606711
-1604089
-1601644
-1600164
-1599720
-1599994
-1602033
-1604315
-1605427
-1605459
-1604476
-1601881
-1599415
-1597960
-1597530
-1597756
-1599927
-1602005
-1603326
-1603321
-1602412
-1600089
-1597521
-1596043
-1595746
-1596258
-1598382
-1600640
-1602198
-1603196
-1603023
-1600804
-1598225
-1596705
-1596558
-1596977
-1599120
-1601367
-1602609
-1602653
-1601912
-1599572
-1597165
-1595731
-1595623
-1596155
-1598301
-1600385
-1601602
-1601754
-1601134
-1598910
-1595971
-1594907
-1594891
-1595487
-1597231
-1599770
-1600960
-1601249
-1600421
-1598087
-1595456
-1594261
-1594112
-1594733
-1596757
-1599206
-1600469
-1600559
-1599844
-1597696
-1595233
-1594166
-1593760
-1594471
-1596610
-1598955
-1600308
-1600553
-1599909
-1597718
-1595380
-1593792
-1593693
-1594260
-1596553
-1598964
-1600221
-1600357
-1599668
-1597705
-1595326
-1593871
-1593819
-1594384
-1596618
-1598923
-1600378
-1600710
-1599924
-1597860
-1595554
-1594200
-1594166
-1594912
-1597265
-1599458
-1600912
-1601337
-1600517
-1598440
-1596103
-1595040
-1594974
-1595435
-1598009
-1600238
-1601756
-1602181
-1601449
-1599413
-1597126
-1595938
-1595634
-1596293
-1598691
-1601014
-1602420
-1602805
-1602383
-1600349
-1597956
-1596636
-1596356
-1596951
-1599203
-1601498
-1603085
-1603441
-1602946
-1600844
-1598511
-1596944
-1596901
-1597368
-1599653
-1602057
-1603479
-1603830
-1603322
-1601268
-1598674
-1596883
-1596923
-1597921
-1600221
-1602515
-1604033
-1604169
-1603346
-1601340
-1599152
-1597768
-1597675
-1598113
-1600428
-1602650
-1604153
-1604645
-1603957
-1601912
-1599367
-1598003
-1597948
-1598703
-1600752
-1603202
-1604585
-1604862
-1604328
-1602249
-1599339
-1598444
-1598263
-1598793
-1601094
-1603484
-1605084
-1605331
-1604571
-1602631
-1600243
-1598917
-1598603
-1599327
-1601548
-1603790
-1605335
-1605453
-1604941
-1603023
-1600498
-1599031
-1598910
-1599191
-1601159
-1603779
-1605401
-1605537
-1604975
-1603091
-1600510
-1599259
-1598997
-1599626
-1601695
-1603954
-1605577
-1605724
-1604940
-1603013
-1600744
-1599260
-1599060
-1599580
-1601867
-1604265
-1605755
-1606254
-1605268
-1603049
-1600961
-1599525
-1599303
-1600010
-1602139
-1604490
-1606094
-1606283
-1605612
-1603701
-1601354
-1599978
-1599793
-1600384
-1602414
-1604864
-1606189
-1606398
-1605798
-1603919
-1601527
-1599952
-1599763
-1600412
-1602207
-1604859
-1606492
-1606785
-1605903
-1603939
-1601683
-1600122
-1599849
-1600487
-1602438
-1604809
-1606316
-1606775
-1606071
-1603876
-1601559
-1599603
-1599696
-1600286
-1602196
-1604858
-1606464
-1606643
-1605707
-1603776
-1601306
-1599909
-1599737
-1600232
-1601853
-1604724
-1606370
-1606680
-1605782
-1604127
-1601226
-1599786
-1599760
-1600268
-1602095
-1604746
-1606430
-1606490
-1605874
-1604024
-1601466
-1599918
-1599845
-1600177
-1602061
-1604613
-1606275
-1606634
-1605835
-1604116
-1601599
-1599987
-1599896
-1601302
-1603495
-1604979
-1606000
-1606633
-1606074
-1604191
-1601560
-1599968
-1599964
-1600429
-1602289
-1604850
-1606693
-1606919
-1606368
-1604435
-1602021
-1600243
-1600193
-1600757
-1602585
-1605376
-1607078
-1607134
-1606478
-1604792
-1602368
-1600645
-1600433
-1600917
-1602933
-1605589
-1607166
-1607300
-1606671
-1605008
-1602503
-1600952
-1600864
-1600911
-1603013
-1605760
-1607783
-1607845
-1606924
-1605294
-1602248
-1600863
-1600817
-1601487
-1603136
-1605783
-1607808
-1608094
-1607344
-1605361
-1602924
-1601350
-1601457
-1601761
-1603773
-1606363
-1608593
-1606912
-1607197
-1605885
-1603559
-1602107
-1602070
-1602455
-1603757
-1607623
-1608440
-1608858
-1608130
-1606614
-1603954
-1602243
-1602118
-1602714
-1604514
-1607090
-1608911
-1609377
-1608712
-1606529
-1604006
-1602473
-1602281
-1602803
-1604876
-1607403
-1609039
-1609373
-1608898
-1607073
-1604525
-1602725
-1602609
-1603051
-1604494
-1607530
-1609304
-1609733
-1608927
-1607242
-1604785
-1603107
-1602896
-1603484
-1605382
-1608144
-1609761
-1610307
-1609429
-1607697
-1605245
-1603602
-1603472
-1604148
-1606013
-1608536
-1610557
-1611029
-1610422
-1608403
-1605997
-1604323
-1604111
-1604670
-1606424
-1609318
-1611198
-1611316
-1610645
-1609085
-1611970
-1605547
-1609785
-1605612
-1607922
-1612341
-1611760
-1610147
-1607411
-1605630
-1612585
-1607755
-1605755
-1605634
-1606278
-1607918
-1610551
-1612367
-1612801
-1612143
-1610137
-1607541
-1606089
-1605884
-1606257
-1608039
-1610959
-1612833
-1613194
-1612359
-1610625
-1607924
-1606101
-1605899
-1606559
-1608365
-1610635
-1612811
-1613290
-1612498
-1610778
-1608196
-1606418
-1606267
-1606660
-1608615
-1611320
-1613129
-1613467
-1612530
-1610888
-1608341
-1606496
-1606219
-1606805
-1608506
-1611367
-1613170
-1615112
-1613119
-1610962
-1608540
-1606658
-1606372
-1606897
-1608861
-1611522
-1613465
-1613683
-1612818
-1611005
-1608714
-1606967
-1606624
-1607188
-1609088
-1611730
-1613563
-1614076
-1613115
-1611442
-1609023
-1607086
-1606819
-1607537
-1609166
-1611752
-1613607
-1613878
-1612907
-1611327
-1608976
-1607214
-1606733
-1607406
-1609169
-1611623
-1613509
-1613797
-1612903
-1611106
-1608201
-1606496
-1605825
-1606264
-1607974
-1610479
-1612113
-1612389
-1611367
-1609336
-1606839
-1604765
-1604314
-1604743
-1606264
-1608729
-1610301
-1611397
-1609598
-1607643
-1605059
-1603042
-1602496
-1602443
-1604404
-1606898
-1608661
-1608777
-1607243
-1605726
-1603184
-1601097
-1601676
-1601702
-1603147
-1605553
-1607387
-1607666
-1606509
-1604595
-1602006
-1600175
-1599852
-1600260
-1602011
-1604448
-1606291
-1606721
-1605502
-1603854
-1601264
-1599371
-1599103
-1599756
-1601360
-1603808
-1605830
-1606235
-1605081
-1603524
-1600841
-1598800
-1598449
-1599162
-1601059
-1603465
-1605159
-1605713
-1604723
-1602771
-1600357
-1598188
-1597843
-1598463
-1600216
-1602682
-1604575
-1605040
-1603994
-1602246
-1599754
-1597827
-1597319
-1597839
-1599909
-1602302
-1604274
-1604544
-1603444
-1601803
-1599244
-1597378
-1597072
-1597559
-1599357
-1601708
-1603984
-1604225
-1603015
-1601464
-1598809
-1596701
-1596493
-1596744
-1598850
-1601319
-1603403
-1603852
-1602843
-1601120
-1598083
-1596308
-1596169
-1596826
-1598447
-1600917
-1603117
-1603304
-1602185
-1600494
-1598005
-1596213
-1595862
-1596437
-1598368
-1600932
-1602922
-1603334
-1602332
-1600521
-1598147
-1596058
-1595889
-1596471
-1598591
-1600992
-1604446
-1603790
-1602727
-1600951
-1598600
-1596790
-1596346
-1596991
-1598724
-1601577
-1603558
-1603901
-1602975
-1601381
-1598861
-1597101
-1596770
-1597369
-1599126
-1601862
-1603996
-1604299
-1603187
-1601390
-1599006
-1597011
-1596643
-1597605
-1599290
-1601982
-1603828
-1604148
-1602940
-1601509
-1598997
-1597193
-1596825
-1597429
-1599294
-1601948
-1605023
-1604213
-1603071
-1601441
-1600621
-1597553
-1597153
-1597704
-1599351
-1601976
-1603926
-1604364
-1603231
-1601497
-1599100
-1597217
-1597038
-1598724
-1599594
-1602061
-1604175
-1604369
-1603332
-1601777
-1599309
-1596907
-1596937
-1597642
-1599466
-1602002
-1604037
-1604546
-1603257
-1601805
-1599270
-1597231
-1597071
-1597605
-1599375
-1601988
-1604192
-1604423
-1603418
-1601510
-1599202
-1597350
-1597216
-1597950
-1599561
-1602084
-1604240
-1604417
-1603506
-1602028
-1599475
-1597217
-1597044
-1597821
-1599439
-1602204
-1604235
-1605573
-1603657
-1601714
-1599494
-1597277
-1597169
-1597694
-1599322
-1602016
-1604148
-1604424
-1603261
-1601648
-1600406
-1597618
-1596986
-1597624
-1599494
-1602153
-1604108
-1604328
-1603305
-1601910
-1599450
-1597155
-1597051
-1597838
-1599422
-1601888
-1604087
-1604721
-1603662
-1602197
-1599536
-1597429
-1597449
-1598284
-1599929
-1602555
-1604694
-1605062
-1603391
-1602141
-1599772
-1597592
-1597450
-1598284
-1599862
-1602718
-1604354
-1605013
-1603932
-1602488
-1599837
-1597942
-1597907
-1598566
-1600343
-1603158
-1605317
-1605364
-1604260
-1602784
-1600405
-1598060
-1598201
-1599088
-1600841
-1602945
-1605542
-1605712
-1604647
-1602946
-1600671
-1598507
-1598495
-1599270
-1600701
-1603405
-1606018
-1606082
-1605060
-1603654
-1601038
-1598835
-1598685
-1599504
-1601118
-1603804
-1606283
-1606438
-1605488
-1603820
-1601285
-1599169
-1598964
-1599887
-1601664
-1604246
-1606697
-1606869
-1605633
-1604047
-1601563
-1599328
-1599327
-1600357
-1601912
-1604355
-1606959
-1607139
-1606090
-1604559
-1602143
-1599896
-1599734
-1600570
-1602047
-1604712
-1607083
-1607384
-1606149
-1604737
-1602221
-1599733
-1599690
-1600548
-1602291
-1604968
-1607438
-1607651
-1606307
-1604841
-1602200
-1599982
-1599902
-1600626
-1602473
-1605056
-1607459
-1607698
-1606394
-1605116
-1602438
-1601488
-1600460
-1601101
-1602762
-1605328
-1607847
-1607875
-1606743
-1605296
-1602762
-1600469
-1600331
-1601243
-1602929
-1605713
-1608169
-1608196
-1606980
-1605486
-1602950
-1600619
-1600636
-1601676
-1603247
-1605894
-1608286
-1608368
-1607182
-1605646
-1603269
-1600907
-1600934
-1601814
-1603402
-1605901
-1608338
-1608410
-1607334
-1605764
-1603252
-1600778
-1600775
-1601742
-1603192
-1605928
-1608406
-1608650
-1607346
-1605798
-1603211
-1601006
-1600846
-1601814
-1603337
-1606044
-1608522
-1608611
-1607488
-1605914
-1603341
-1600959
-1600900
-1601933
-1603582
-1606121
-1608572
-1608809
-1607640
-1606060
-1603687
-1601012
-1601142
-1602063
-1603697
-1606579
-1608803
-1608986
-1607913
-1606230
-1603718
-1601332
-1601267
-1602140
-1603690
-1606435
-1609093
-1609081
-1607842
-1606049
-1603698
-1601363
-1601472
-1602129
-1603955
-1606575
-1608866
-1609001
-1607893
-1606447
-1604053
-1601593
-1601586
-1602444
-1604005
-1606727
-1609225
-1609296
-1608161
-1606350
-1603821
-1601532
-1601712
-1602553
-1604168
-1606772
-1609230
-1609500
-1608465
-1606592
-1604148
-1601771
-1601795
-1603828
-1605030
-1607519
-1609926
-1609877
-1608718
-1607280
-1604765
-1602433
-1602483
-1603244
-1605126
-1607684
-1610251
-1610375
-1609270
-1607558
-1605001
-1602608
-1602530
-1603445
-1605133
-1607993
-1610418
-1610500
-1609201
-1607535
-1605061
-1602834
-1602821
-1603625
-1605138
-1607805
-1610302
-1610547
-1609342
-1607720
-1605113
-1602857
-1602789
-1603634
-1605353
-1608234
-1610560
-1610548
-1609708
-1607904
-1605308
-1603169
-1603093
-1604055
-1605749
-1608312
-1610856
-1610959
-1609689
-1608398
-1605690
-1603261
-1603330
-1604190
-1606104
-1608636
-1611139
-1611360
-1610291
-1608577
-1605623
-1603439
-1603599
-1604487
-1606246
-1608616
-1611246
-1610878
-1610061
-1608436
-1605929
-1603548
-1603508
-1604598
-1606182
-1608807
-1611191
-1611264
-1610060
-1608417
-1605782
-1603391
-1603364
-1604287
-1605795
-1608439
-1611087
-1611337
-1610223
-1608561
-1605831
-1603509
-1603395
-1604486
-1606096
-1609003
-1611309
-1611399
-1610401
-1608703
-1606231
-1604042
-1603779
-1604580
-1606121
-1608953
-1611419
-1611584
-1610570
-1609124
-1606548
-1604063
-1604124
-1605031
-1606826
-1609517
-1611726
-1611905
-1610913
-1609287
-1606601
-1604110
-1603553
-1604430
-1606326
-1609255
-1611814
-1611880
-1610961
-1609255
-1606437
-1604125
-1604008
-1605069
-1606754
-1609394
-1611835
-1612048
-1610848
-1609283
-1606595
-1604093
-1603948
-1604750
-1606324
-1609001
-1611241
-1611374
-1610176
-1608622
-1605744
-1603051
-1602734
-1603746
-1605151
-1607689
-1609941
-1609758
-1608384
-1606549
-1603702
-1601065
-1600778
-1601281
-1602792
-1605387
-1607281
-1607118
-1606113
-1604263
-1600950
-1598558
-1598504
-1599095
-1600519
-1603110
-1605311
-1605467
-1604244
-1602186
-1599410
-1597053
-1596886
-1597759
-1599223
-1601857
-1604016
-1604217
-1603368
-1601410
-1598809
-1596325
-1596189
-1596983
-1598594
-1601360
-1603555
-1603759
-1602433
-1600779
-1598075
-1595586
-1595577
-1596428
-1598036
-1600750
-1602821
-1602950
-1601978
-1600425
-1597606
-1595149
-1595163
-1595985
-1597447
-1600115
-1602572
-1602646
-1601620
-1599718
-1597052
-1594468
-1594223
-1595269
-1596619
-1599222
-1601746
-1601737
-1599712
-1599004
-1596395
-1593890
-1593754
-1594727
-1596350
-1599013
-1601404
-1601496
-1600467
-1598811
-1596074
-1593599
-1593565
-1594366
-1595942
-1598647
-1601014
-1601009
-1599971
-1598229
-1595417
-1593105
-1593194
-1594044
-1595732
-1598598
-1600828
-1600950
-1600007
-1598483
-1595584
-1593167
-1593094
-1593967
-1595600
-1598538
-1600932
-1600876
-1599999
-1598376
-1595694
-1593297
-1593302
-1594273
-1595744
-1598495
-1600931
-1601244
-1600357
-1598826
-1596175
-1593770
-1593676
-1594619
-1596236
-1599091
-1601398
-1601680
-1600725
-1599043
-1596456
-1593986
-1593990
-1595148
-1596977
-1599576
-1602138
-1602369
-1601355
-1599875
-1597369
-1594949
-1595061
-1596020
-1597437
-1600255
-1602663
-1602865
-1601960
-1600391
-1597513
-1595268
-1595131
-1596139
-1597516
-1600516
-1602923
-1603081
-1601904
-1600128
-1597681
-1595163
-1594917
-1595788
-1597148
-1600015
-1602317
-1602548
-1601657
-1601439
-1597758
-1594943
-1594816
-1595665
-1597140
-1599844
-1602266
-1602430
-1601591
-1599901
-1597334
-1594836
-1594622
-1595698
-1597237
-1599971
-1602428
-1602579
-1601617
-1600124
-1597231
-1595096
-1594823
-1595842
-1597314
-1600133
-1602512
-1602758
-1601665
-1600370
-1597533
-1595135
-1594810
-1595782
-1597326
-1600115
-1602527
-1602746
-1601880
-1600102
-1597342
-1595030
-1594907
-1595937
-1597374
-1600035
-1602307
-1602590
-1601620
-1599868
-1597189
-1595088
-1594648
-1595681
-1596937
-1599839
-1602159
-1602404
-1601213
-1599621
-1597021
-1594789
-1594445
-1595493
-1597090
-1599646
-1601745
-1602137
-1601004
-1599583
-1596940
-1594898
-1594583
-1595385
-1596832
-1599405
-1601563
-1602054
-1601133
-1599314
-1596840
-1594816
-1594562
-1595430
-1596811
-1599549
-1601786
-1602108
-1601200
-1599468
-1596892
-1594861
-1594414
-1595595
-1596872
-1599792
-1601981
-1602266
-1601361
-1599854
-1597199
-1594870
-1594765
-1595801
-1597050
-1599628
-1602030
-1602483
-1601278
-1599815
-1597136
-1594939
-1594681
-1595874
-1597206
-1600048
-1602042
-1602461
-1601548
-1600007
-1597606
-1595409
-1595178
-1596331
-1597699
-1600162
-1602433
-1602838
-1601991
-1600261
-1597836
-1595638
-1595255
-1596557
-1598108
-1600780
-1602753
-1603482
-1602286
-1600740
-1598460
-1596201
-1595951
-1596956
-1598553
-1601170
-1603344
-1603663
-1602605
-1601227
-1598824
-1596573
-1596348
-1597511
-1598740
-1601448
-1603802
-1604395
-1603153
-1601865
-1599309
-1597224
-1596883
-1597882
-1599243
-1601698
-1603966
-1604307
-1603365
-1601942
-1599478
-1597365
-1596992
-1598076
-1599110
-1601948
-1604063
-1604511
-1603450
-1602151
-1599534
-1597500
-1597124
-1598281
-1599426
-1602168
-1604212
-1604670
-1603636
-1602311
-1599953
-1597719
-1597374
-1598372
-1599567
-1602300
-1604415
-1605070
-1603995
-1602709
-1600136
-1597913
-1597610
-1598839
-1600104
-1602778
-1604946
-1605415
-1604531
-1603320
-1600880
-1598676
-1598371
-1599553
-1600489
-1603241
-1605379
-1606030
-1604837
-1603556
-1601316
-1598932
-1598568
-1599965
-1600875
-1603299
-1605745
-1606355
-1605094
-1603762
-1601377
-1599058
-1598637
-1600041
-1600891
-1603614
-1605633
-1606281
-1605087
-1604068
-1601617
-1599448
-1598944
-1600082
-1601276
-1603876
-1606031
-1606697
-1605343
-1604119
-1601713
-1599526
-1599116
-1600423
-1601359
-1604098
-1606112
-1606737
-1605500
-1604421
-1602123
-1600159
-1599541
-1600833
-1601738
-1604307
-1606541
-1607485
-1605994
-1604935
-1602678
-1600423
-1599905
-1601301
-1602308
-1604875
-1606860
-1607617
-1606454
-1605166
-1602815
-1600837
-1600395
-1601518
-1602399
-1604904
-1607247
-1608022
-1606526
-1605311
-1603091
-1601004
-1600572
-1601813
-1602742
-1605056
-1607450
-1607912
-1606600
-1605456
-1603346
-1601286
-1600686
-1602010
-1602776
-1605209
-1607392
-1607961
-1606645
-1605692
-1603531
-1601420
-1600684
-1601923
-1602961
-1605249
-1607518
-1608263
-1606860
-1605720
-1603490
-1601286
-1600813
-1602072
-1602934
-1605315
-1607514
-1608213
-1607026
-1605756
-1603677
-1601342
-1600847
-1602177
-1603156
-1605678
-1607803
-1608366
-1607171
-1606096
-1603722
-1601524
-1601096
-1602199
-1603222
-1605646
-1607683
-1608368
-1607241
-1606332
-1604145
-1601780
-1601108
-1602455
-1603557
-1605787
-1608013
-1608586
-1607489
-1606128
-1603980
-1601886
-1601443
-1602755
-1603714
-1606030
-1608319
-1608957
-1607762
-1606652
-1604588
-1602512
-1601643
-1603017
-1603911
-1606200
-1608474
-1609258
-1608079
-1606818
-1604788
-1602802
-1602125
-1603460
-1604395
-1606422
-1608851
-1609411
-1608260
-1607289
-1605199
-1602899
-1602375
-1603449
-1604374
-1606516
-1608945
-1609638
-1608300
-1607274
-1605280
-1603110
-1602693
-1603875
-1605878
-1607353
-1609344
-1609817
-1608706
-1607445
-1605465
-1603529
-1602965
-1603973
-1604804
-1607298
-1609439
-1609992
-1608524
-1607783
-1605841
-1603631
-1603064
-1604149
-1605100
-1607178
-1609344
-1610203
-1609168
-1608026
-1606042
-1604045
-1603372
-1604384
-1605390
-1607515
-1609678
-1610420
-1609600
-1608263
-1605754
-1603950
-1603631
-1604375
-1605622
-1607731
-1609940
-1610678
-1609940
-1608669
-1606754
-1604583
-1604011
-1604924
-1605790
-1607923
-1610419
-1612350
-1610421
-1608969
-1607024
-1604666
-1604004
-1605084
-1606002
-1608329
-1610573
-1611400
-1610515
-1609379
-1607236
-1605242
-1604443
-1605418
-1606574
-1608629
-1610753
-1611479
-1610766
-1609613
-1607509
-1605335
-1604680
-1605629
-1606507
-1609033
-1611280
-1611806
-1611044
-1609803
-1607887
-1605681
-1605234
-1606147
-1607152
-1609456
-1611387
-1612271
-1611424
-1610308
-1608125
-1605812
-1605242
-1606047
-1607170
-1609212
-1611249
-1611940
-1611041
-1609875
-1607638
-1605332
-1604478
-1605176
-1606284
-1608137
-1610191
-1610649
-1609872
-1608509
-1606292
-1603931
-1602987
-1603645
-1604434
-1606455
-1608454
-1608908
-1608100
-1606269
-1604153
-1601917
-1601140
-1601489
-1602109
-1604270
-1606437
-1607054
-1606135
-1604733
-1602533
-1600192
-1599404
-1599958
-1600852
-1602977
-1604950
-1605732
-1604942
-1603474
-1601419
-1599036
-1598322
-1598835
-1599566
-1601870
-1604003
-1604461
-1603844
-1602552
-1600327
-1598087
-1597384
-1597802
-1598880
-1600895
-1602947
-1603840
-1603306
-1601840
-1599639
-1597299
-1596667
-1597271
-1598365
-1600417
-1602591
-1603164
-1602687
-1601375
-1599018
-1596771
-1595951
-1596519
-1597524
-1599695
-1601799
-1602546
-1602124
-1600558
-1598331
-1596089
-1595096
-1595744
-1596826
-1598929
-1601064
-1601650
-1601308
-1599891
-1597821
-1595334
-1594550
-1595074
-1595929
-1598270
-1600439
-1601152
-1600572
-1599300
-1597170
-1594743
-1594056
-1594307
-1595450
-1597221
-1599578
-1600455
-1599957
-1598494
-1596496
-1594356
-1593531
-1593810
-1594765
-1597119
-1599183
-1600050
-1599485
-1598429
-1596201
-1593800
-1593390
-1593778
-1594939
-1597164
-1599360
-1600196
-1599809
-1598388
-1596445
-1594223
-1593576
-1594161
-1595048
-1596900
-1600620
-1600933
-1600381
-1599173
-1596981
-1594850
-1594223
-1594466
-1595468
-1597815
-1600202
-1600984
-1600826
-1599521
-1597434
-1595178
-1594408
-1594901
-1595949
-1598201
-1600357
-1601116
-1601021
-1600058
-1597571
-1595407
-1594514
-1594944
-1595813
-1598182
-1600398
-1601216
-1600935
-1599913
-1597701
-1595226
-1594671
-1596068
-1596405
-1598522
-1600595
-1601425
-1601171
-1600253
-1597897
-1596723
-1595194
-1595081
-1596035
-1598422
-1600696
-1601438
-1601336
-1601298
-1598423
-1595982
-1595042
-1595008
-1596473
-1598630
-1600821
-1601601
-1601612
-1600419
-1597793
-1595944
-1595289
-1595297
-1596075
-1598608
-1601358
-1601944
-1601683
-1600420
-1597905
-1595941
-1595205
-1595494
-1596522
-1598712
-1600929
-1601738
-1601757
-1600093
-1598194
-1595806
-1595147
-1595283
-1596457
-1598641
-1600173
-1598005
-1600698
-1595380
-1601662
-1600781
-1598364
-1602182
-1601991
-1600742
-1598705
-1596308
-1595389
-1595695
-1596377
-1598850
-1601093
-1601991
-1602424
-1601317
-1598713
-1596423
-1595280
-1595582
-1596643
-1599227
-1601470
-1602280
-1602199
-1601081
-1598986
-1596814
-1596011
-1596221
-1597116
-1599566
-1601687
-1602542
-1602597
-1601617
-1599187
-1596932
-1596152
-1596310
-1597405
-1600054
-1602306
-1603164
-1603146
-1602327
-1599801
-1598732
-1597073
-1597140
-1597963
-1600183
-1602576
-1603282
-1603334
-1602578
-1600132
-1597879
-1597157
-1597155
-1598041
-1600449
-1602845
-1603765
-1603704
-1602734
-1600469
-1598265
-1597397
-1597618
-1598344
-1600685
-1603135
-1603982
-1603876
-1602929
-1600948
-1598551
-1597775
-1597798
-1598573
-1601149
-1603258
-1604208
-1604374
-1603341
-1601204
-1598951
-1598084
-1598185
-1598867
-1601364
-1603533
-1604571
-1604750
-1603753
-1601535
-1599303
-1598421
-1598195
-1599026
-1601600
-1603781
-1604696
-1604821
-1603799
-1601722
-1599532
-1598474
-1598503
-1599269
-1601626
-1604139
-1604990
-1605038
-1604046
-1601793
-1599585
-1598718
-1598593
-1599353
-1601737
-1604207
-1605176
-1605305
-1604577
-1602047
-1599651
-1598814
-1598821
-1599695
-1602117
-1604396
-1605427
-1605411
-1604610
-1602503
-1600081
-1599066
-1599268
-1599947
-1602219
-1604725
-1605581
-1605697
-1604962
-1602598
-1600406
-1599623
-1599605
-1600421
-1602664
-1604962
-1606133
-1606355
-1605236
-1602987
-1600705
-1599896
-1599930
-1600784
-1603152
-1605469
-1606376
-1606418
-1605734
-1603562
-1601386
-1600428
-1600429
-1601181
-1603702
-1605930
-1606716
-1606874
-1606291
-1603756
-1601450
-1600508
-1600486
-1601150
-1603428
-1605698
-1606769
-1606918
-1606220
-1604014
-1601793
-1600617
-1600722
-1601310
-1603610
-1606047
-1607120
-1607392
-1606455
-1604038
-1601842
-1600834
-1600686
-1601277
-1603595
-1605808
-1607100
-1607297
-1606563
-1604227
-1602086
-1600968
-1600874
-1601448
-1603867
-1606055
-1607322
-1607647
-1606550
-1604421
-1602080
-1600981
-1600961
-1601580
-1603800
-1606205
-1607324
-1607554
-1606719
-1604610
-1602326
-1601039
-1600980
-1601411
-1603896
-1606215
-1607590
-1607641
-1606982
-1604832
-1602290
-1601167
-1601190
-1601753
-1604081
-1606390
-1607466
-1607740
-1607181
-1605029
-1602735
-1601404
-1601494
-1601940
-1604293
-1606777
-1608024
-1608234
-1607724
-1605432
-1602845
-1601614
-1601622
-1602113
-1604626
-1606857
-1608012
-1608245
-1607721
-1605667
-1603289
-1602137
-1601984
-1602670
-1605066
-1607446
-1608712
-1608796
-1608181
-1606129
-1603813
-1602469
-1602453
-1602757
-1605171
-1607657
-1608796
-1609001
-1608445
-1606308
-1603858
-1602405
-1602386
-1603165
-1605373
-1607637
-1608892
-1609225
-1608701
-1606449
-1604064
-1602837
-1602669
-1603338
-1605660
-1608121
-1609389
-1609642
-1608951
-1607003
-1604486
-1603201
-1603041
-1603818
-1606011
-1608502
-1609766
-1610224
-1609593
-1607404
-1604971
-1603801
-1603644
-1604244
-1606192
-1608886
-1610227
-1610576
-1609856
-1607711
-1605125
-1603765
-1603803
-1604337
-1606244
-1609051
-1610380
-1610559
-1609926
-1607927
-1605275
-1603877
-1603878
-1604325
-1606496
-1608892
-1610294
-1610467
-1609755
-1607967
-1605400
-1603846
-1603777
-1604246
-1606356
-1608915
-1610573
-1610673
-1610179
-1608319
-1605574
-1604162
-1603983
-1604546
-1606700
-1609391
-1610859
-1611302
-1610726
-1608945
-1606265
-1604865
-1604601
-1605057
-1607173
-1609786
-1611387
-1611857
-1611224
-1609466
-1606869
-1605300
-1605217
-1605630
-1607812
-1610263
-1611883
-1612297
-1611717
-1609847
-1607123
-1605507
-1605489
-1606090
-1607847
-1610423
-1611862
-1612223
-1611650
-1609635
-1607185
-1605611
-1605513
-1606012
-1607897
-1610499
-1611987
-1612372
-1611616
-1609946
-1607087
-1605722
-1605497
-1605922
-1607897
-1610399
-1612101
-1612440
-1611614
-1609855
-1607347
-1605888
-1605823
-1606224
-1608229
-1610795
-1612493
-1612747
-1612036
-1610271
-1607692
-1606028
-1605828
-1606493
-1608245
-1610841
-1612231
-1612305
-1611394
-1609515
-1606840
-1605261
-1605086
-1605553
-1607219
-1609626
-1611199
-1611170
-1610211
-1608458
-1605612
-1603751
-1603565
-1603730
-1605481
-1607837
-1609337
-1609444
-1608398
-1606490
-1603854
-1602054
-1601601
-1602151
-1603840
-1606180
-1607706
-1607937
-1607246
-1604943
-1602387
-1600719
-1600433
-1600899
-1602555
-1604867
-1606423
-1606632
-1605602
-1603756
-1601046
-1599412
-1599224
-1599697
-1601565
-1603820
-1605433
-1605746
-1604798
-1603086
-1600443
-1598564
-1598368
-1598888
-1600665
-1603227
-1604922
-1605044
-1604187
-1602551
-1599844
-1598087
-1597915
-1598279
-1600131
-1602765
-1604228
-1604467
-1603628
-1601872
-1599246
-1597514
-1597159
-1597682
-1599456
-1602107
-1603688
-1603692
-1602832
-1600952
-1598313
-1596660
-1596266
-1596623
-1598561
-1601110
-1602572
-1602668
-1601684
-1600021
-1597354
-1595432
-1595082
-1595675
-1597419
-1599842
-1601495
-1601605
-1600504
-1598658
-1596104
-1594299
-1593929
-1594425
-1596196
-1598666
-1600502
-1600854
-1599910
-1597931
-1595562
-1593732
-1593591
-1594226
-1596126
-1598492
-1600279
-1600663
-1599650
-1597982
-1595446
-1593908
-1593470
-1594139
-1595959
-1598511
-1600526
-1600742
-1599939
-1598308
-1595955
-1594203
-1593938
-1594653
-1596727
-1599230
-1601152
-1601241
-1600312
-1598646
-1596331
-1594423
-1594484
-1595237
-1597024
-1599678
-1601368
-1601856
-1600851
-1599508
-1596826
-1595170
-1594755
-1595552
-1597408
-1599861
-1601694
-1602144
-1601210
-1599480
-1597342
-1595298
-1595179
-1595722
-1597352
-1599911
-1601825
-1602275
-1601265
-1599509
-1597300
-1595473
-1595341
-1595971
-1597924
-1600405
-1602295
-1602710
-1601583
-1599880
-1597563
-1595672
-1595597
-1596246
-1598164
-1600659
-1602796
-1603022
-1601992
-1600414
-1598118
-1596318
-1595906
-1596737
-1598531
-1601108
-1603141
-1603406
-1602291
-1600682
-1598223
-1596549
-1596365
-1596932
-1598828
-1601254
-1603351
-1603676
-1602763
-1601019
-1598753
-1596814
-1596478
-1597301
-1599087
-1601585
-1603785
-1603910
-1602930
-1601068
-1598725
-1596783
-1596678
-1597565
-1599270
-1601931
-1604022
-1604101
-1603095
-1601623
-1599221
-1597148
-1597125
-1597935
-1599741
-1602422
-1604254
-1604659
-1603573
-1601973
-1599567
-1597468
-1597299
-1598206
-1599768
-1602567
-1604544
-1605038
-1603945
-1602505
-1599824
-1597696
-1597575
-1598369
-1600295
-1603076
-1605012
-1605405
-1604069
-1602567
-1600057
-1598039
-1597887
-1598718
-1600375
-1603302
-1605388
-1605484
-1604337
-1602909
-1600386
-1598429
-1598197
-1598950
-1600514
-1603240
-1605369
-1605735
-1604661
-1603213
-1600567
-1598417
-1598359
-1598699
-1600813
-1603612
-1605610
-1605856
-1604667
-1603170
-1600798
-1598802
-1598723
-1599323
-1601215
-1603708
-1606050
-1606283
-1605185
-1603527
-1601156
-1599106
-1598824
-1599657
-1601431
-1604084
-1606064
-1606274
-1605147
-1603667
-1601289
-1599081
-1599111
-1599984
-1601608
-1604100
-1606332
-1606492
-1605485
-1603972
-1601547
-1599321
-1599296
-1600012
-1601666
-1604260
-1606483
-1606771
-1605507
-1604025
-1601359
-1599362
-1599266
-1600014
-1601852
-1604411
-1606679
-1606762
-1605427
-1603710
-1601369
-1599303
-1599224
-1599941
-1601625
-1604262
-1606453
-1606658
-1605501
-1603777
-1601322
-1598810
-1598955
-1599697
-1601702
-1604085
-1606227
-1606418
-1605337
-1603692
-1601364
-1599139
-1599177
-1599972
-1601644
-1604322
-1606420
-1606729
-1605309
-1603682
-1601327
-1599033
-1598974
-1599897
-1601591
-1604144
-1606392
-1606793
-1605400
-1604055
-1601540
-1599337
-1599443
-1600368
-1601974
-1604453
-1606532
-1606909
-1605822
-1604018
-1601626
-1599522
-1600419
-1600699
-1602049
-1604681
-1607079
-1607061
-1605932
-1604089
-1601734
-1599599
-1599672
-1600631
-1602343
-1605015
-1607193
-1607189
-1606129
-1604523
-1602202
-1599834
-1599924
-1600680
-1602316
-1604840
-1607347
-1607563
-1606526
-1604802
-1602203
-1599912
-1599991
-1600740
-1602503
-1605263
-1607564
-1607921
-1606527
-1605075
-1602659
-1600435
-1600365
-1601273
-1602978
-1605649
-1608061
-1607992
-1607015
-1605311
-1602978
-1600470
-1600504
-1601595
-1603297
-1605994
-1608193
-1608375
-1607144
-1605762
-1603104
-1600958
-1601122
-1602066
-1603614
-1606329
-1608574
-1608939
-1607616
-1606202
-1603526
-1601160
-1601222
-1602297
-1604081
-1606608
-1608978
-1609261
-1607619
-1606327
-1604079
-1601828
-1601850
-1602650
-1604263
-1606940
-1609243
-1609520
-1608362
-1606554
-1603977
-1601731
-1601715
-1602700
-1604427
-1607146
-1609506
-1609722
-1608468
-1606848
-1604285
-1601955
-1602120
-1602998
-1604663
-1607460
-1609964
-1609920
-1608812
-1607361
-1604661
-1602128
-1602254
-1603240
-1604805
-1607596
-1610256
-1610378
-1609212
-1607674
-1605123
-1602759
-1602823
-1603641
-1605255
-1608137
-1610380
-1610558
-1609442
-1607903
-1605091
-1602737
-1602971
-1603988
-1605604
-1608203
-1610670
-1610861
-1609798
-1607965
-1605660
-1603304
-1603323
-1604372
-1605813
-1608648
-1611090
-1611098
-1610034
-1608477
-1605979
-1603671
-1603275
-1604311
-1606209
-1609010
-1611428
-1611325
-1610353
-1608880
-1606233
-1604005
-1603748
-1604712
-1606316
-1609250
-1611738
-1611844
-1610815
-1609212
-1606587
-1604134
-1604170
-1605005
-1606659
-1609309
-1611843
-1611830
-1610934
-1609452
-1606814
-1604448
-1604456
-1605380
-1607058
-1609772
-1612324
-1612366
-1611272
-1609476
-1606845
-1604612
-1604714
-1605667
-1607225
-1609921
-1612143
-1612245
-1611436
-1610026
-1607065
-1604652
-1604717
-1605568
-1607291
-1610053
-1612294
-1612489
-1611457
-1609869
-1607340
-1605010
-1605146
-1605778
-1607360
-1610275
-1612639
-1612748
-1611419
-1609955
-1607323
-1605194
-1605183
-1605966
-1607683
-1610191
-1612772
-1612834
-1611645
-1609877
-1607005
-1604773
-1604908
-1605689
-1607254
-1610035
-1612317
-1612444
-1611477
-1610130
-1607130
-1605074
-1605019
-1605839
-1607536
-1610468
-1612612
-1612833
-1611828
-1610102
-1607464
-1605352
-1605199
-1605926
-1607639
-1610521
-1612737
-1612864
-1611932
-1610279
-1607648
-1605108
-1605261
-1610658
-1613083
-1607851
-1613405
-1605719
-1611131
-1613651
-1613840
-1612921
-1607246
-1608696
-1611733
-1613999
-1614012
-1613103
-1611591
-1608727
-1606374
-1606373
-1607255
-1608971
-1611333
-1613920
-1614061
-1613264
-1611661
-1608991
-1606728
-1606736
-1607475
-1609109
-1611782
-1614099
-1614200
-1613105
-1611368
-1608305
-1606021
-1605839
-1606699
-1608400
-1611088
-1613223
-1612994
-1611975
-1609750
-1607037
-1604765
-1604498
-1605217
-1606557
-1609042
-1611065
-1610990
-1609723
-1607858
-1605047
-1602510
-1602360
-1602866
-1604305
-1606777
-1608861
-1608996
-1607485
-1606784
-1603384
-1600515
-1600388
-1601267
-1602455
-1605098
-1607109
-1607265
-1606090
-1604344
-1601477
-1599029
-1598754
-1599598
-1601108
-1603634
-1605610
-1605666
-1604691
-1602771
-1600260
-1597940
-1597568
-1598568
-1600007
-1602674
-1604734
-1604426
-1603786
-1602033
-1599097
-1596823
-1596665
-1597499
-1599109
-1601624
-1603902
-1604007
-1602822
-1601042
-1598296
-1595884
-1595543
-1596532
-1597807
-1599906
-1602465
-1602770
-1601771
-1599805
-1597184
-1594824
-1594369
-1595249
-1596646
-1599261
-1601347
-1601472
-1600521
-1598677
-1595959
-1593744
-1593535
-1594428
-1595625
-1598273
-1600329
-1600625
-1599422
-1597694
-1594848
-1592743
-1592397
-1593233
-1594753
-1597192
-1599243
-1599399
-1598555
-1596699
-1594123
-1591933
-1591569
-1592371
-1593518
-1596396
-1598525
-1598682
-1597649
-1596071
-1593419
-1591090
-1590648
-1591541
-1592832
-1595497
-1598492
-1598538
-1597318
-1595512
-1592840
-1590716
-1590754
-1591812
-1593230
-1595914
-1598107
-1598969
-1598384
-1597654
-1595484
-1593809
-1593640
-1594863
-1596744
-1600415
-1603110
-1603651
-1603141
-1602190
-1599927
-1597559
-1597041
-1598108
-1599293
-1602244
-1604662
-1604840
-1603787
-1602159
-1599452
-1597512
-1597260
-1598405
-1599762
-1602433
-1604655
-1605106
-1604177
-1602640
-1600172
-1598047
-1597574
-1598659
-1599918
-1602604
-1604664
-1605299
-1604554
-1603062
-1600637
-1598349
-1598189
-1599391
-1600626
-1603253
-1605560
-1605964
-1604933
-1603371
-1600974
-1598754
-1598657
-1599874
-1601000
-1603593
-1606005
-1606355
-1605376
-1603711
-1601267
-1599186
-1598720
-1599887
-1600825
-1603616
-1605654
-1606041
-1604976
-1603621
-1601240
-1599082
-1598588
-1599714
-1600942
-1603437
-1605693
-1606053
-1605075
-1603834
-1601316
-1598961
-1598511
-1599669
-1600855
-1603398
-1605723
-1606198
-1604908
-1603753
-1601066
-1599127
-1598829
-1600040
-1601070
-1603385
-1605740
-1606078
-1604937
-1601415
-1599121
-1598641
-1599998
-1600906
-1603564
-1605646
-1606280
-1604818
-1603539
-1601062
-1598779
-1598570
-1599706
-1600503
-1603156
-1605540
-1606099
-1604755
-1603329
-1601186
-1599058
-1598603
-1599918
-1600909
-1603240
-1605510
-1606059
-1604820
-1603582
-1601395
-1599081
-1598548
-1599929
-1600944
-1603500
-1605595
-1606277
-1605095
-1603812
-1601665
-1599508
-1599088
-1600254
-1600879
-1603761
-1606017
-1606434
-1605092
-1603853
-1601595
-1599662
-1599042
-1600451
-1601391
-1603772
-1605818
-1606443
-1605099
-1603707
-1601479
-1599307
-1598800
-1600218
-1601197
-1603622
-1605748
-1606263
-1604881
-1603804
-1601446
-1599241
-1599012
-1600280
-1601242
-1603624
-1605999
-1606733
-1605446
-1604154
-1602142
-1600127
-1599567
-1601049
-1601825
-1604309
-1606439
-1606991
-1605700
-1604196
-1602159
-1599951
-1599395
-1600799
-1601636
-1603857
-1606131
-1606555
-1605111
-1603912
-1601669
-1599722
-1599076
-1600626
-1601349
-1603794
-1606089
-1606632
-1605469
-1604304
-1602303
-1600023
-1599641
-1601002
-1602049
-1604322
-1606576
-1607213
-1605890
-1605121
-1602693
-1600526
-1600167
-1601592
-1602528
-1604782
-1606893
-1607425
-1606131
-1605206
-1602950
-1601069
-1600559
-1601880
-1602812
-1605007
-1607330
-1608074
-1606715
-1605857
-1603724
-1601645
-1601232
-1602597
-1603366
-1605591
-1607739
-1608445
-1607314
-1606316
-1604235
-1602162
-1601374
-1602832
-1603462
-1605842
-1607816
-1608542
-1607327
-1606105
-1604082
-1602092
-1601298
-1602590
-1603428
-1605569
-1607796
-1608667
-1607386
-1606437
-1604406
-1602100
-1602176
-1603301
-1604060
-1606336
-1608627
-1609377
-1608313
-1607533
-1605587
-1603338
-1602769
-1603974
-1604656
-1607073
-1609428
-1610155
-1609116
-1607947
-1605881
-1603519
-1602934
-1604118
-1604879
-1606892
-1609055
-1609830
-1608699
-1607724
-1605661
-1603467
-1602939
-1604066
-1604980
-1607044
-1609272
-1610058
-1609006
-1607462
-1605725
-1603864
-1603441
-1604593
-1605598
-1607774
-1610115
-1611002
-1610028
-1608884
-1606861
-1604750
-1604125
-1605464
-1605919
-1608068
-1610680
-1611422
-1610517
-1609272
-1607314
-1605021
-1604259
-1605164
-1606060
-1608028
-1610182
-1610888
-1609774
-1608563
-1607470
-1604341
-1603437
-1604463
-1605317
-1607546
-1609847
-1610649
-1609471
-1608402
-1606375
-1604187
-1603541
-1604524
-1605694
-1607960
-1610105
-1610821
-1610023
-1609070
-1607187
-1604871
-1604315
-1605305
-1606302
-1608680
-1611061
-1611941
-1611167
-1610106
-1609494
-1606264
-1605349
-1606088
-1606764
-1609286
-1611519
-1612225
-1611425
-1610159
-1608234
-1605954
-1605192
-1605951
-1606857
-1608981
-1611306
-1612147
-1611540
-1610308
-1608154
-1605889
-1605214
-1606004
-1607135
-1609433
-1611370
-1612322
-1611974
-1610803
-1608718
-1606393
-1605813
-1606447
-1607358
-1609565
-1611840
-1612864
-1612102
-1610853
-1608648
-1606306
-1605729
-1606213
-1607159
-1609416
-1611878
-1612670
-1612042
-1610752
-1608664
-1606510
-1605718
-1606539
-1607514
-1609955
-1612151
-1613097
-1612562
-1611484
-1609242
-1607056
-1606642
-1607211
-1608221
-1610504
-1613031
-1613710
-1613332
-1612167
-1610035
-1608040
-1607260
-1607724
-1608477
-1610913
-1613430
-1614474
-1613955
-1612787
-1610621
-1608296
-1607709
-1608193
-1609096
-1611455
-1613632
-1614377
-1614055
-1612908
-1610824
-1608338
-1607650
-1608347
-1609602
-1611793
-1614040
-1614990
-1614604
-1613610
-1611543
-1609405
-1608593
-1609154
-1610388
-1612605
-1614877
-1615720
-1615491
-1614300
-1612160
-1609751
-1608867
-1609258
-1610328
-1612631
-1614850
-1615748
-1615164
-1614007
-1611881
-1609389
-1608543
-1609019
-1610020
-1612428
-1614694
-1615570
-1615307
-1614381
-1611933
-1609787
-1609108
-1609465
-1610403
-1612808
-1614992
-1615871
-1615498
-1614045
-1612044
-1609804
-1608896
-1609072
-1609973
-1612375
-1614630
-1615359
-1615079
-1613995
-1611833
-1609575
-1608829
-1609057
-1610100
-1612298
-1614532
-1615307
-1615045
-1613888
-1611572
-1609403
-1608555
-1609103
-1609968
-1612441
-1614786
-1615580
-1615446
-1614240
-1612060
-1609910
-1609259
-1609791
-1610756
-1612918
-1615230
-1616057
-1615901
-1614585
-1612258
-1610146
-1609449
-1609389
-1610383
-1612704
-1614700
-1615440
-1615238
-1613907
-1611485
-1609034
-1608155
-1608436
-1609327
-1611707
-1613723
-1614505
-1614287
-1613321
-1610924
-1608415
-1607521
-1607797
-1608605
-1611063
-1613338
-1613930
-1613717
-1612690
-1610231
-1607936
-1607006
-1607138
-1608153
-1610415
-1612446
-1613185
-1612742
-1611647
-1609301
-1606681
-1606493
-1606165
-1606897
-1608838
-1610964
-1611611
-1611391
-1610025
-1607699
-1605230
-1604345
-1604466
-1605205
-1607412
-1609553
-1610247
-1610029
-1609123
-1606287
-1604077
-1603220
-1603265
-1603666
-1606036
-1608137
-1608842
-1608543
-1607258
-1604905
-1602708
-1601803
-1602035
-1602908
-1605127
-1607165
-1608113
-1607887
-1606744
-1604478
-1602405
-1601440
-1601514
-1602324
-1604595
-1606809
-1607677
-1607628
-1606566
-1604136
-1601868
-1601018
-1601155
-1601924
-1604228
-1606354
-1607026
-1606857
-1605961
-1603592
-1601289
-1600675
-1600794
-1601582
-1603698
-1605751
-1606267
-1606340
-1605621
-1603256
-1601018
-1599527
-1600029
-1600936
-1603041
-1605086
-1606034
-1605758
-1604823
-1602495
-1600330
-1599311
-1599340
-1600100
-1602356
-1604498
-1605292
-1605195
-1604448
-1601992
-1599802
-1598878
-1599055
-1599733
-1602076
-1604131
-1605040
-1605097
-1603939
-1601942
-1599547
-1598496
-1598556
-1600203
-1601925
-1603850
-1604503
-1604415
-1603403
-1601211
-1599053
-1598155
-1598128
-1598875
-1601029
-1603204
-1604165
-1604288
-1603469
-1601171
-1598745
-1598075
-1598052
-1598639
-1601186
-1603608
-1604045
-1604338
-1603595
-1601528
-1599280
-1598385
-1598779
-1599745
-1601937
-1604491
-1605562
-1605621
-1604999
-1602966
-1600764
-1599871
-1600043
-1600794
-1603131
-1605650
-1606216
-1606529
-1605709
-1603401
-1601388
-1600408
-1600361
-1601011
-1603060
-1605391
-1606470
-1606547
-1605357
-1603103
-1600713
-1599754
-1599783
-1600661
-1603026
-1605279
-1606208
-1606257
-1605371
-1603188
-1600925
-1599883
-1599803
-1600589
-1603028
-1605302
-1606240
-1606397
-1605713
-1603349
-1600957
-1599875
-1599888
-1600486
-1602792
-1605100
-1606184
-1606274
-1605572
-1603400
-1601006
-1599859
-1599998
-1600696
-1602987
-1605467
-1606554
-1606661
-1606054
-1603787
-1601397
-1600418
-1600155
-1600559
-1603081
-1605707
-1606955
-1607042
-1606118
-1603968
-1601572
-1600498
-1600448
-1601521
-1603861
-1606094
-1607318
-1607387
-1606578
-1604292
-1601685
-1600673
-1600372
-1600826
-1603201
-1605510
-1606570
-1606770
-1605818
-1603484
-1600972
-1599636
-1599405
-1600098
-1602252
-1604663
-1605933
-1606019
-1605403
-1603349
-1600954
-1599926
-1599886
-1601539
-1603385
-1605502
-1606819
-1606944
-1606285
-1604097
-1601803
-1600583
-1600577
-1601442
-1603793
-1606185
-1607488
-1607651
-1606944
-1604767
-1602140
-1601006
-1600825
-1601457
-1603715
-1606117
-1607360
-1607374
-1606355
-1604335
-1601793
-1600762
-1600625
-1601256
-1603448
-1605638
-1606915
-1607117
-1606531
-1604141
-1601816
-1600780
-1600468
-1601210
-1603418
-1606004
-1607232
-1604702
-1601414
-1608898
-1603779
-1605552
-1609531
-1608827
-1606898
-1604408
-1603219
-1603059
-1609677
-1608881
-1606868
-1604570
-1603187
-1602962
-1603957
-1605939
-1608550
-1610038
-1610200
-1609682
-1607526
-1605241
-1604102
-1603929
-1604475
-1606785
-1608930
-1610389
-1610500
-1610058
-1607768
-1605374
-1603890
-1603551
-1604012
-1606216
-1608539
-1609823
-1610081
-1609403
-1607494
-1604845
-1603246
-1603147
-1603649
-1605590
-1608011
-1609379
-1609610
-1609123
-1607002
-1604870
-1603432
-1603423
-1604169
-1606485
-1609268
-1610932
-1611484
-1611258
-1609549
-1607283
-1605982
-1606002
-1606798
-1608951
-1611350
-1612667
-1613045
-1612293
-1610313
-1607793
-1606015
-1605922
-1606222
-1608101
-1610487
-1611626
-1611794
-1610843
-1608755
-1606191
-1604547
-1604185
-1604384
-1606437
-1608810
-1610120
-1610366
-1609685
-1607877
-1605287
-1603694
-1603855
-1604188
-1606156
-1608755
-1610406
-1610854
-1610420
-1608606
-1606280
-1604958
-1605171
-1605786
-1607782
-1610236
-1611895
-1612376
-1611794
-1610065
-1607700
-1606181
-1606231
-1606631
-1608528
-1611152
-1612799
-1613199
-1612458
-1610421
-1608312
-1606810
-1606579
-1606903
-1608810
-1611158
-1612539
-1612635
-1611906
-1610009
-1607188
-1605530
-1605311
-1605724
-1607294
-1609818
-1611263
-1611596
-1610908
-1609093
-1606908
-1605420
-1604824
-1605701
-1607830
-1610470
-1612457
-1612701
-1612284
-1610576
-1608021
-1606659
-1606578
-1607099
-1609001
-1611595
-1613346
-1613631
-1612895
-1611007
-1608654
-1606787
-1606733
-1607146
-1608750
-1611355
-1612958
-1613038
-1612249
-1610369
-1607872
-1605949
-1605649
-1606292
-1607882
-1610418
-1612127
-1612224
-1611750
-1609997
-1607378
-1606014
-1605900
-1606358
-1608185
-1611137
-1612911
-1611274
-1608840
-1607379
-1607374
-1608120
-1609834
-1612782
-1614542
-1614888
-1614222
-1612322
-1610049
-1608374
-1608040
-1608832
-1610655
-1613182
-1614867
-1615173
-1614281
-1612543
-1610039
-1608441
-1608015
-1608396
-1610167
-1612567
-1614347
-1614591
-1613559
-1611906
-1609306
-1607704
-1607465
-1608008
-1609969
-1612612
-1614419
-1614650
-1613988
-1612150
-1609844
-1608334
-1608028
-1608806
-1610843
-1613291
-1615116
-1615421
-1614791
-1613255
-1610838
-1609273
-1609149
-1609967
-1611912
-1614557
-1616319
-1616727
-1616068
-1614458
-1611975
-1610239
-1609943
-1610619
-1612179
-1614771
-1616379
-1616800
-1615828
-1614318
-1611638
-1609882
-1609503
-1610142
-1612207
-1614702
-1616557
-1616932
-1615538
-1613986
-1611792
-1610146
-1610657
-1611000
-1612950
-1615301
-1617347
-1617659
-1616767
-1615065
-1612858
-1610951
-1610831
-1611275
-1612965
-1615538
-1617426
-1617849
-1616936
-1615366
-1612663
-1610720
-1611555
-1611325
-1612876
-1615478
-1617237
-1617444
-1616403
-1614563
-1612262
-1609974
-1609687
-1610811
-1612626
-1615202
-1617005
-1617265
-1616383
-1614783
-1612488
-1610939
-1610884
-1611714
-1613435
-1616071
-1617921
-1618322
-1617488
-1615951
-1613534
-1611724
-1611759
-1612444
-1614256
-1617021
-1618839
-1619293
-1618272
-1616864
-1614379
-1612182
-1612019
-1612827
-1614945
-1617326
-1619118
-1619293
-1618455
-1616457
-1614343
-1612442
-1612359
-1612889
-1614528
-1616979
-1618887
-1619130
-1618123
-1616394
-1613837
-1612101
-1611909
-1612466
-1614194
-1616372
-1619608
-1619149
-1617819
-1616023
-1613678
-1611799
-1611392
-1612262
-1613965
-1616381
-1618216
-1618778
-1617836
-1616348
-1614098
-1612428
-1612328
-1613045
-1615085
-1617458
-1619037
-1620170
-1619333
-1617688
-1615487
-1613628
-1613486
-1613856
-1615682
-1618330
-1620266
-1620584
-1619379
-1617691
-1615160
-1613274
-1612909
-1613417
-1614967
-1617275
-1618936
-1619237
-1617856
-1616033
-1613580
-1611525
-1610962
-1611188
-1612957
-1615313
-1616873
-1617016
-1615655
-1613948
-1611476
-1609276
-1608957
-1609498
-1610961
-1613322
-1614860
-1614921
-1613908
-1612305
-1609754
-1607683
-1607226
-1607649
-1609421
-1611708
-1613557
-1613704
-1612745
-1610940
-1608631
-1606437
-1606291
-1606879
-1608686
-1611041
-1612643
-1612698
-1612028
-1610379
-1607692
-1605867
-1605674
-1606297
-1607868
-1610332
-1612226
-1612387
-1611329
-1609645
-1607152
-1604979
-1604781
-1605325
-1607026
-1609418
-1611282
-1611648
-1610468
-1608980
-1606436
-1604411
-1604023
-1604554
-1606036
-1608513
-1610714
-1610983
-1609755
-1608176
-1605584
-1603648
-1603301
-1603990
-1605824
-1608249
-1610245
-1610645
-1609238
-1607830
-1605603
-1603533
-1603315
-1604221
-1605626
-1608316
-1610291
-1610637
-1609728
-1608138
-1605609
-1603668
-1603609
-1604469
-1605935
-1608610
-1610715
-1610796
-1609724
-1608050
-1605779
-1603556
-1603314
-1604117
-1605703
-1608116
-1609995
-1610151
-1608795
-1607288
-1604807
-1602447
-1602322
-1602928
-1604782
-1607204
-1609393
-1609577
-1608366
-1606674
-1604303
-1602296
-1602205
-1603172
-1604581
-1607256
-1609541
-1609963
-1608957
-1607488
-1604809
-1602834
-1603005
-1603636
-1605439
-1608147
-1610395
-1610851
-1609608
-1608406
-1606024
-1604087
-1603995
-1604982
-1606306
-1609363
-1611628
-1611953
-1610749
-1609464
-1606944
-1604618
-1604772
-1605551
-1607026
-1609739
-1611838
-1611984
-1610864
-1609314
-1606869
-1604605
-1604493
-1605163
-1606817
-1609259
-1611308
-1611451
-1610466
-1608349
-1605977
-1603749
-1603978
-1604599
-1606383
-1609037
-1611047
-1611346
-1610307
-1608689
-1606285
-1604356
-1604364
-1605049
-1606850
-1609623
-1611817
-1611922
-1610759
-1609516
-1607014
-1604600
-1604529
-1605491
-1607253
-1609939
-1612219
-1612496
-1611409
-1609980
-1607462
-1605109
-1605282
-1605992
-1607543
-1610222
-1612465
-1612597
-1611037
-1609849
-1607200
-1605175
-1604929
-1605633
-1607231
-1609654
-1611821
-1611925
-1610565
-1608931
-1606310
-1603906
-1603833
-1604512
-1606276
-1608628
-1610899
-1610923
-1609523
-1607848
-1605292
-1602873
-1602820
-1603624
-1605276
-1607853
-1610169
-1610389
-1609275
-1607531
-1605579
-1603220
-1603536
-1604428
-1606443
-1609227
-1611766
-1612092
-1610817
-1609545
-1607455
-1605428
-1605566
-1607557
-1608979
-1611509
-1613909
-1614118
-1613271
-1612034
-1609752
-1607718
-1608107
-1609156
-1611209
-1613937
-1616478
-1616678
-1615733
-1614136
-1611716
-1609549
-1609573
-1610542
-1612178
-1614568
-1616767
-1616603
-1615207
-1613396
-1610580
-1608132
-1607846
-1608333
-1609446
-1611602
-1613598
-1613301
-1611716
-1609842
-1606900
-1604085
-1603574
-1604166
-1605295
-1608007
-1610769
-1611651
-1610892
-1610169
-1607988
-1606119
-1606474
-1607420
-1609037
-1611476
-1613658
-1613579
-1611856
-1610376
-1608115
-1605666
-1605717
-1606499
-1608364
-1611271
-1613803
-1614010
-1613223
-1611780
-1609702
-1607717
-1607751
-1608761
-1610849
-1613792
-1616498
-1616580
-1615687
-1614434
-1612187
-1609784
-1610029
-1611011
-1612649
-1615499
-1617856
-1618085
-1616958
-1615608
-1613209
-1610615
-1610735
-1611513
-1613273
-1615888
-1618247
-1618283
-1617190
-1615539
-1613146
-1610783
-1610806
-1611324
-1612849
-1615587
-1617737
-1617686
-1616398
-1614748
-1612111
-1609740
-1609645
-1610210
-1611889
-1614271
-1616686
-1616622
-1615568
-1613766
-1611291
-1608931
-1609027
-1609696
-1611328
-1613947
-1616260
-1616444
-1615428
-1613749
-1611283
-1609029
-1609232
-1609981
-1611770
-1614472
-1616974
-1617301
-1616220
-1614856
-1611150
-1610074
-1610339
-1611429
-1613058
-1616079
-1618526
-1618912
-1617684
-1616455
-1613908
-1611501
-1611597
-1612594
-1614343
-1616657
-1619376
-1619789
-1618728
-1617303
-1614459
-1612513
-1612699
-1613351
-1615056
-1617721
-1620224
-1620262
-1619065
-1617259
-1614978
-1612523
-1612497
-1613240
-1614772
-1616895
-1619592
-1619653
-1618773
-1617244
-1614546
-1612279
-1612256
-1612974
-1614757
-1617466
-1619842
-1619941
-1618783
-1616859
-1614492
-1612265
-1612358
-1613364
-1614477
-1618613
-1620415
-1620433
-1619644
-1617531
-1615326
-1613279
-1613474
-1614243
-1616046
-1618627
-1621096
-1621324
-1620398
-1618141
-1615772
-1613636
-1613755
-1614566
-1616189
-1618862
-1620601
-1620137
-1619791
-1618319
-1615747
-1613525
-1613218
-1614208
-1615976
-1618753
-1621070
-1621347
-1620158
-1618758
-1616063
-1613671
-1613777
-1614480
-1616038
-1618878
-1621127
-1621529
-1620621
-1619023
-1616437
-1614154
-1614346
-1615141
-1616991
-1619936
-1622441
-1622519
-1621456
-1619896
-1617335
-1615261
-1615272
-1615943
-1617785
-1620538
-1622841
-1622987
-1621989
-1620347
-1617239
-1615345
-1615449
-1616470
-1618359
-1620856
-1623253
-1623347
-1622377
-1621760
-1618408
-1615996
-1615872
-1616596
-1619221
-1621293
-1623992
-1623552
-1622424
-1620888
-1618234
-1615955
-1616103
-1616804
-1618458
-1621454
-1623894
-1623845
-1622821
-1621390
-1618787
-1616745
-1616792
-1617550
-1620201
-1622400
-1624501
-1624756
-1623643
-1622310
-1619578
-1617187
-1617364
-1618369
-1620062
-1622857
-1625029
-1625237
-1624160
-1622622
-1619991
-1617536
-1617566
-1618303
-1620076
-1622800
-1624706
-1624964
-1623865
-1622312
-1619532
-1617200
-1617119
-1618017
-1619568
-1622192
-1624345
-1624610
-1623569
-1621908
-1619180
-1616811
-1616885
-1617778
-1619341
-1622038
-1624260
-1624281
-1623261
-1621713
-1619030
-1616669
-1616726
-1617496
-1619081
-1621995
-1624262
-1624453
-1623436
-1622052
-1619343
-1617033
-1616941
-1617776
-1619386
-1622056
-1624516
-1624678
-1623567
-1621733
-1619278
-1616975
-1616854
-1617843
-1619221
-1622207
-1624354
-1624404
-1623554
-1621983
-1619124
-1616953
-1617128
-1617927
-1619306
-1622366
-1624685
-1624904
-1625081
-1622582
-1619650
-1617375
-1617341
-1618259
-1619738
-1622534
-1624682
-1625079
-1624117
-1622541
-1619901
-1617594
-1617802
-1618606
-1621061
-1623317
-1625447
-1625300
-1624405
-1622541
-1619791
-1617530
-1617572
-1618320
-1619752
-1622677
-1624905
-1624856
-1623961
-1622203
-1619399
-1617157
-1617189
-1617841
-1619174
-1621993
-1624312
-1624140
-1623145
-1621340
-1618608
-1616130
-1616078
-1616666
-1617934
-1620502
-1622592
-1622622
-1621474
-1619706
-1616928
-1614643
-1614766
-1615092
-1616404
-1618966
-1621123
-1621162
-1620095
-1618292
-1615475
-1613112
-1612907
-1613899
-1615323
-1617995
-1619915
-1619934
-1618937
-1617227
-1614399
-1612041
-1611850
-1612828
-1614134
-1616845
-1619095
-1619061
-1618190
-1616507
-1613652
-1611514
-1611298
-1611964
-1613393
-1616195
-1618567
-1618676
-1617709
-1616110
-1616240
-1611190
-1618901
-1611377
-1611964
-1613671
-1616325
-1618368
-1610653
-1612758
-1615532
-1617829
-1618040
-1616975
-1615412
-1612742
-1610291
-1610097
-1610934
-1612518
-1615142
-1617240
-1617528
-1616570
-1614948
-1612375
-1609975
-1609697
-1610370
-1611732
-1614624
-1616912
-1617190
-1614722
-1611861
-1609610
-1609485
-1610257
-1611795
-1614472
-1616820
-1617184
-1616109
-1614600
-1611986
-1609747
-1609435
-1610274
-1611776
-1614255
-1616769
-1617167
-1616283
-1614660
-1612313
-1610269
-1609923
-1610957
-1612406
-1615421
-1617737
-1617924
-1617267
-1615716
-1613079
-1611229
-1611003
-1612103
-1613490
-1616264
-1618630
-1618969
-1618036
-1616712
-1614088
-1612065
-1611872
-1612766
-1614283
-1617023
-1619386
-1619651
-1618812
-1617327
-1614820
-1612675
-1612417
-1613373
-1614754
-1617559
-1619547
-1620034
-1619020
-1617390
-1614959
-1612755
-1612452
-1613304
-1614733
-1617289
-1619444
-1619637
-1618597
-1617044
-1614305
-1612264
-1611986
-1612622
-1614864
-1616886
-1618831
-1619085
-1618126
-1616287
-1613571
-1611471
-1610948
-1611934
-1613283
-1615678
-1617927
-1618296
-1617511
-1615758
-1613142
-1611157
-1610870
-1611794
-1613321
-1616023
-1618072
-1618600
-1617860
-1616317
-1613839
-1611655
-1611344
-1612366
-1613833
-1616434
-1618531
-1618984
-1618146
-1616440
-1613920
-1611899
-1611422
-1612491
-1613782
-1616384
-1618487
-1618853
-1617724
-1616249
-1613725
-1611433
-1611100
-1611824
-1613135
-1615563
-1617616
-1617924
-1616884
-1615549
-1612754
-1610595
-1610201
-1611138
-1612176
-1614943
-1616971
-1617415
-1616475
-1614820
-1612258
-1610113
-1609708
-1610731
-1611990
-1614491
-1616544
-1617089
-1616042
-1614690
-1612195
-1610055
-1609715
-1610659
-1611985
-1614603
-1616748
-1617206
-1616152
-1614706
-1612153
-1610064
-1609714
-1610598
-1612005
-1614749
-1616758
-1617218
-1616061
-1614476
-1612074
-1609932
-1609696
-1610603
-1611829
-1614391
-1616675
-1617089
-1616060
-1614351
-1611845
-1609772
-1609284
-1610450
-1611623
-1614373
-1616434
-1616815
-1615694
-1614049
-1611685
-1609540
-1609393
-1610366
-1611852
-1614425
-1616625
-1617006
-1616109
-1614749
-1612289
-1610108
-1609864
-1611146
-1612477
-1614959
-1617253
-1617647
-1616671
-1615291
-1612898
-1611071
-1610746
-1611833
-1613665
-1615843
-1617895
-1618565
-1617401
-1616254
-1613825
-1611486
-1611272
-1612339
-1613726
-1616273
-1618229
-1618924
-1617860
-1616362
-1613885
-1611820
-1611237
-1612529
-1613762
-1616389
-1618345
-1619016
-1617941
-1616531
-1614337
-1612352
-1611822
-1613152
-1614031
-1616608
-1618812
-1619271
-1618254
-1616948
-1614505
-1612586
-1612230
-1613282
-1614414
-1617107
-1619286
-1619922
-1618838
-1617440
-1615232
-1613141
-1612838
-1613983
-1615332
-1617810
-1619904
-1620573
-1619390
-1618065
-1615743
-1613800
-1613313
-1614814
-1615821
-1618426
-1620691
-1621315
-1620025
-1618756
-1616331
-1614465
-1614056
-1615505
-1616572
-1619001
-1621115
-1621938
-1620832
-1619617
-1617214
-1615143
-1614615
-1615628
-1616742
-1619637
-1621838
-1622427
-1621392
-1620183
-1617817
-1615847
-1615373
-1616660
-1617753
-1620213
-1622387
-1623212
-1621951
-1620554
-1618285
-1616226
-1615832
-1617008
-1618234
-1620778
-1623055
-1623563
-1622349
-1621432
-1619039
-1617026
-1616749
-1617870
-1619168
-1621779
-1624066
-1624844
-1623637
-1622596
-1620610
-1618505
-1618106
-1619399
-1620437
-1623095
-1625425
-1626074
-1624984
-1623974
-1621856
-1619760
-1619241
-1620711
-1621812
-1624347
-1626555
-1627318
-1626008
-1624746
-1622476
-1620067
-1619753
-1620878
-1621743
-1624052
-1626142
-1626793
-1625599
-1624497
-1622268
-1619989
-1619654
-1620958
-1621942
-1624471
-1626825
-1627527
-1626340
-1624989
-1622842
-1620743
-1620296
-1621645
-1622902
-1625416
-1627596
-1628272
-1627230
-1625966
-1623914
-1621964
-1621615
-1622769
-1623858
-1626246
-1628613
-1629256
-1628231
-1627104
-1624778
-1622589
-1622140
-1623456
-1624544
-1627038
-1629133
-1629584
-1628319
-1626910
-1624770
-1622690
-1621873
-1623186
-1623733
-1626306
-1628310
-1628996
-1627751
-1626604
-1624016
-1621836
-1621162
-1622424
-1623313
-1625724
-1627672
-1628351
-1627280
-1625592
-1623583
-1621842
-1621440
-1622731
-1623999
-1626449
-1628696
-1629844
-1628345
-1627016
-1625197
-1623155
-1622678
-1624135
-1625122
-1627579
-1629606
-1630139
-1628999
-1627872
-1625548
-1624592
-1623015
-1624059
-1624900
-1627289
-1628986
-1629456
-1628207
-1627083
-1624868
-1622752
-1622118
-1623175
-1623957
-1626172
-1628208
-1628917
-1627589
-1626536
-1624176
-1622161
-1621555
-1622819
-1623781
-1626281
-1628289
-1628967
-1628076
-1626610
-1624591
-1622528
-1622155
-1623371
-1624394
-1626674
-1628795
-1629561
-1628624
-1627148
-1625010
-1623129
-1622617
-1623978
-1624634
-1626885
-1629057
-1629571
-1628414
-1627325
-1625042
-1622899
-1622402
-1623535
-1624323
-1626602
-1628787
-1629512
-1628321
-1626940
-1624878
-1624067
-1622451
-1623354
-1624435
-1626454
-1628519
-1629170
-1628181
-1626970
-1625083
-1623048
-1622560
-1623844
-1624801
-1627357
-1629586
-1630197
-1629135
-1628118
-1626136
-1624009
-1623545
-1625086
-1625800
-1628110
-1630328
-1631028
-1629994
-1628869
-1626960
-1624953
-1624080
-1625282
-1626200
-1628402
-1630415
-1631015
-1629800
-1628469
-1626343
-1624283
-1623769
-1624909
-1625548
-1627963
-1629803
-1630581
-1629221
-1628240
-1626092
-1623946
-1623557
-1624737
-1625657
-1628069
-1630039
-1630802
-1629764
-1628742
-1626923
-1624567
-1624287
-1625595
-1626748
-1628863
-1631059
-1631748
-1630706
-1629559
-1627410
-1625462
-1624738
-1625878
-1626664
-1628654
-1630524
-1630989
-1629972
-1628540
-1626312
-1624271
-1623380
-1624466
-1624879
-1626899
-1628765
-1629037
-1627833
-1626457
-1624022
-1621954
-1621935
-1622290
-1622597
-1624589
-1626537
-1627156
-1625772
-1624592
-1622277
-1619970
-1619114
-1620225
-1621111
-1623150
-1625097
-1625592
-1624249
-1623085
-1621139
-1618853
-1618148
-1619304
-1620120
-1622402
-1624458
-1625170
-1623963
-1622997
-1621076
-1618825
-1618241
-1619384
-1619993
-1622237
-1624143
-1625001
-1623749
-1622473
-1620478
-1618287
-1617531
-1618816
-1619634
-1621590
-1623839
-1624447
-1623194
-1621976
-1619825
-1617674
-1616900
-1618094
-1618852
-1621662
-1623153
-1623772
-1622402
-1621272
-1620530
-1617535
-1616748
-1617795
-1618779
-1620965
-1622951
-1625481
-1623294
-1621803
-1619804
-1617689
-1617111
-1618330
-1619154
-1621256
-1623341
-1624095
-1623060
-1621801
-1619650
-1617401
-1616622
-1617842
-1618557
-1620434
-1622487
-1623165
-1622731
-1620642
-1618567
-1616163
-1615350
-1616444
-1617154
-1619150
-1621401
-1621987
-1620972
-1619726
-1617549
-1615564
-1614893
-1615932
-1616823
-1619095
-1621462
-1622089
-1621238
-1620406
-1618347
-1616488
-1615951
-1617011
-1617945
-1620472
-1622732
-1623437
-1622597
-1621425
-1619601
-1617281
-1616761
-1617738
-1618673
-1620672
-1623045
-1623614
-1622686
-1621254
-1619358
-1617147
-1616459
-1617663
-1618365
-1620548
-1622665
-1623443
-1622457
-1621272
-1619379
-1617190
-1616509
-1617443
-1618406
-1620533
-1622833
-1623528
-1622686
-1621583
-1619578
-1617448
-1616802
-1617939
-1618878
-1621252
-1623473
-1624241
-1623287
-1622037
-1620340
-1618254
-1617691
-1618764
-1619727
-1621712
-1624094
-1624808
-1623828
-1622948
-1620877
-1618737
-1618020
-1618961
-1619880
-1622030
-1624145
-1624868
-1623552
-1622733
-1620866
-1618725
-1618062
-1619096
-1619997
-1622210
-1624277
-1624861
-1623975
-1622929
-1620743
-1618664
-1618224
-1619221
-1620341
-1622276
-1624715
-1625468
-1624447
-1623544
-1621386
-1619239
-1618857
-1619917
-1620905
-1622986
-1625264
-1625910
-1625108
-1624090
-1622123
-1620140
-1619430
-1620228
-1621212
-1623548
-1625636
-1626520
-1625564
-1624303
-1622515
-1620255
-1619684
-1620768
-1621788
-1623772
-1625923
-1626540
-1625718
-1624481
-1622427
-1620341
-1619853
-1620901
-1621795
-1623995
-1626070
-1626749
-1626121
-1624841
-1622880
-1620899
-1620239
-1621178
-1622207
-1624286
-1626633
-1627310
-1626489
-1625556
-1623374
-1621216
-1620726
-1621632
-1622674
-1624953
-1627021
-1627896
-1626842
-1625625
-1624030
-1621803
-1621146
-1622144
-1622954
-1625282
-1627376
-1627902
-1627086
-1626142
-1624077
-1622099
-1621503
-1622575
-1623569
-1625609
-1627946
-1628664
-1627997
-1627127
-1625179
-1622976
-1622384
-1623192
-1624022
-1626227
-1628297
-1629100
-1628218
-1626913
-1624789
-1622648
-1621928
-1622832
-1623845
-1625559
-1627717
-1628554
-1627608
-1626285
-1624339
-1622375
-1621578
-1622585
-1623608
-1625522
-1627621
-1628440
-1627612
-1626630
-1624728
-1622613
-1621877
-1622888
-1623963
-1626169
-1628344
-1629187
-1628573
-1627529
-1625557
-1623422
-1622846
-1623682
-1624630
-1626982
-1629291
-1629915
-1629456
-1628003
-1625981
-1623923
-1623269
-1623938
-1625037
-1626831
-1629193
-1629754
-1629283
-1628132
-1626175
-1623997
-1623464
-1624450
-1625157
-1627357
-1629479
-1630207
-1629554
-1628278
-1626371
-1623972
-1623335
-1624170
-1625070
-1627166
-1629453
-1630130
-1629144
-1628154
-1626245
-1624054
-1623318
-1624089
-1625162
-1627297
-1629439
-1630439
-1629788
-1628652
-1626603
-1624503
-1623765
-1624539
-1625724
-1627699
-1630145
-1630769
-1630155
-1629056
-1627161
-1624934
-1624580
-1625261
-1626228
-1628482
-1630947
-1631700
-1631038
-1629762
-1627900
-1625759
-1625003
-1625522
-1626677
-1628927
-1631012
-1631898
-1631131
-1629884
-1627827
-1625774
-1625186
-1626000
-1627014
-1629081
-1631400
-1632291
-1631819
-1630725
-1628723
-1626261
-1625770
-1626530
-1627569
-1629737
-1631969
-1632727
-1632191
-1631028
-1629148
-1626982
-1626380
-1627041
-1628113
-1630281
-1632758
-1633594
-1632837
-1631645
-1629810
-1627490
-1628496
-1632958
-1632113
-1627750
-1630841
-1631902
-1626983
-1628673
-1630669
-1634258
-1633983
-1627321
-1627891
-1629121
-1631308
-1633749
-1634389
-1634191
-1632949
-1631068
-1629144
-1628574
-1629199
-1630224
-1632420
-1634669
-1635249
-1634909
-1633816
-1631680
-1629469
-1628891
-1629493
-1630427
-1632662
-1634804
-1635666
-1635061
-1633847
-1631932
-1629717
-1629113
-1629597
-1630729
-1632927
-1634934
-1635677
-1635324
-1633956
-1631899
-1629857
-1629094
-1629861
-1631029
-1633253
-1635581
-1636128
-1635987
-1634985
-1632953
-1630834
-1630313
-1631048
-1631895
-1634203
-1635891
-1635528
-1634067
-1632548
-1628289
-1627753
-1628077
-1628666
-1630699
-1633072
-1633858
-1633532
-1632776
-1630729
-1628829
-1628260
-1628815
-1629755
-1632030
-1634210
-1634938
-1634513
-1633070
-1631187
-1628581
-1629094
-1629781
-1632433
-1634796
-1635643
-1635426
-1634475
-1632477
-1630111
-1629476
-1629816
-1630294
-1632345
-1635554
-1635907
-1635342
-1634141
-1632094
-1629885
-1629178
-1629451
-1630429
-1632734
-1635176
-1635749
-1635481
-1634575
-1632333
-1630123
-1629442
-1629941
-1631085
-1633569
-1635800
-1636294
-1636023
-1634916
-1632639
-1630338
-1629771
-1630061
-1631309
-1633653
-1635764
-1636576
-1636303
-1634857
-1632963
-1630725
-1630171
-1630770
-1636525
-1635449
-1633210
-1631080
-1630230
-1630566
-1631697
-1636246
-1636851
-1636451
-1635543
-1630223
-1630816
-1631657
-1634136
-1636187
-1637164
-1636562
-1630843
-1633986
-1636228
-1637067
-1636699
-1635341
-1633280
-1631141
-1630433
-1631069
-1631721
-1634301
-1636625
-1637433
-1637059
-1636119
-1634041
-1631808
-1631170
-1631556
-1632091
-1634753
-1636896
-1637584
-1637119
-1636126
-1633916
-1631675
-1630941
-1631396
-1631827
-1634556
-1636754
-1637439
-1637029
-1635766
-1633395
-1631005
-1630316
-1630500
-1630962
-1633385
-1635346
-1636063
-1635430
-1634128
-1631776
-1629483
-1628431
-1628637
-1629712
-1631695
-1633804
-1634285
-1633879
-1632746
-1630263
-1627629
-1626780
-1627146
-1627861
-1630014
-1632141
-1632559
-1632062
-1630572
-1628431
-1626079
-1625174
-1629302
-1627271
-1624240
-1624807
-1625716
-1627723
-1629821
-1630416
-1629969
-1628696
-1626691
-1624258
-1623480
-1624014
-1625077
-1627247
-1629415
-1630141
-1629565
-1628568
-1626442
-1624044
-1625016
-1627053
-1629104
-1629782
-1629237
-1628224
-1625934
-1623604
-1622826
-1623302
-1624170
-1626361
-1628345
-1629008
-1628499
-1627279
-1625277
-1622876
-1622178
-1622453
-1623077
-1625445
-1627678
-1628407
-1627782
-1626781
-1624429
-1622179
-1621300
-1621692
-1622496
-1624739
-1626996
-1627864
-1627314
-1626347
-1624080
-1621799
-1621197
-1621606
-1622363
-1624906
-1627099
-1627818
-1627438
-1627205
-1624259
-1622002
-1621150
-1621730
-1622530
-1624838
-1626961
-1627799
-1627382
-1626403
-1624131
-1621927
-1621117
-1621756
-1622586
-1624869
-1627003
-1627885
-1627378
-1626373
-1624339
-1621991
-1621109
-1621727
-1622671
-1624836
-1627131
-1628026
-1627751
-1626468
-1624555
-1622348
-1621654
-1622270
-1623118
-1625362
-1627805
-1628575
-1628407
-1627269
-1625105
-1623000
-1622330
-1622739
-1624462
-1626443
-1628780
-1629477
-1629198
-1628158
-1626202
-1623998
-1623336
-1623630
-1624475
-1626841
-1629296
-1630137
-1629888
-1628770
-1626467
-1624191
-1623419
-1623960
-1624718
-1626955
-1629308
-1629967
-1629669
-1628601
-1626534
-1624385
-1623460
-1623933
-1624838
-1627170
-1629509
-1630334
-1630144
-1629005
-1626950
-1624662
-1623941
-1624353
-1625239
-1627627
-1629832
-1630733
-1630340
-1629407
-1626985
-1624890
-1624301
-1624755
-1625702
-1627842
-1630053
-1631005
-1630699
-1629687
-1627391
-1624958
-1624315
-1624818
-1625753
-1627892
-1630304
-1630984
-1630702
-1629695
-1627261
-1625266
-1624425
-1624800
-1625931
-1628179
-1630509
-1631345
-1630881
-1629634
-1627566
-1625367
-1624749
-1625063
-1626102
-1628515
-1630777
-1631346
-1631108
-1629901
-1627835
-1625379
-1624641
-1625049
-1626040
-1628437
-1630868
-1631536
-1631241
-1630285
-1627892
-1625582
-1624902
-1625550
-1626288
-1628744
-1630786
-1631728
-1631325
-1630332
-1628284
-1626051
-1625396
-1625881
-1626676
-1628894
-1631313
-1632053
-1631928
-1630708
-1628694
-1626315
-1625604
-1626009
-1626920
-1629337
-1631683
-1632411
-1632168
-1631078
-1628850
-1626640
-1625787
-1627981
-1627755
-1629718
-1632042
-1632730
-1632587
-1631666
-1629598
-1627219
-1626571
-1627241
-1628286
-1630436
-1632882
-1633765
-1633506
-1632347
-1630339
-1627965
-1627154
-1627750
-1628663
-1630991
-1633169
-1633898
-1633656
-1632816
-1630587
-1628314
-1627468
-1628124
-1629025
-1631224
-1633550
-1634206
-1633831
-1632882
-1630597
-1627786
-1627502
-1627906
-1628914
-1631143
-1633515
-1634214
-1633976
-1632936
-1630829
-1628573
-1628152
-1628310
-1629009
-1632423
-1634371
-1635034
-1634837
-1633798
-1631602
-1629568
-1628468
-1629240
-1630078
-1632512
-1634751
-1635642
-1635592
-1634661
-1632154
-1630941
-1629635
-1629841
-1630814
-1633037
-1635203
-1636278
-1635926
-1634883
-1632712
-1630371
-1629572
-1629976
-1630964
-1633261
-1635285
-1636104
-1635834
-1634835
-1632744
-1630370
-1629582
-1629983
-1631214
-1633525
-1635693
-1636469
-1636188
-1635332
-1633042
-1630618
-1629866
-1630206
-1631086
-1633423
-1635756
-1636485
-1636416
-1635440
-1633294
-1630959
-1630229
-1630797
-1631862
-1634247
-1636516
-1637246
-1637295
-1636049
-1634116
-1631930
-1631166
-1631579
-1632311
-1634879
-1636701
-1637802
-1637567
-1636654
-1634472
-1632274
-1631682
-1632070
-1633053
-1634953
-1637612
-1638435
-1638380
-1637246
-1634976
-1632700
-1632118
-1632310
-1633184
-1635367
-1637769
-1638711
-1638462
-1637507
-1635124
-1632902
-1632247
-1632425
-1633330
-1635743
-1638193
-1639019
-1638838
-1637798
-1635587
-1633303
-1632384
-1632802
-1633840
-1636031
-1638244
-1639079
-1638784
-1637992
-1635766
-1633575
-1632720
-1633077
-1634094
-1636379
-1638822
-1639876
-1639556
-1638580
-1636383
-1634285
-1633650
-1633698
-1634550
-1636914
-1639106
-1640013
-1639869
-1638605
-1636464
-1634158
-1633438
-1633806
-1634489
-1636856
-1639152
-1639940
-1639750
-1639070
-1636638
-1634342
-1633576
-1633782
-1634524
-1637087
-1639157
-1640164
-1639901
-1638740
-1636635
-1634182
-1633439
-1633564
-1634441
-1637002
-1638737
-1640041
-1640124
-1638969
-1636876
-1634656
-1634000
-1634378
-1634987
-1637586
-1639879
-1640725
-1640522
-1639629
-1637361
-1635140
-1634227
-1634652
-1635489
-1637949
-1640314
-1641139
-1640908
-1640002
-1637647
-1635514
-1634542
-1634685
-1635547
-1638123
-1640358
-1641077
-1640844
-1639856
-1637415
-1635066
-1634250
-1634368
-1635368
-1637775
-1640016
-1640836
-1640637
-1639969
-1637523
-1635348
-1634663
-1635006
-1635969
-1638390
-1640449
-1641447
-1641194
-1640418
-1638011
-1635753
-1635039
-1635535
-1636317
-1638682
-1640900
-1641795
-1641726
-1640944
-1638798
-1636443
-1635597
-1635821
-1636569
-1639018
-1641381
-1642216
-1642052
-1641166
-1638646
-1636259
-1635552
-1635731
-1636517
-1638981
-1641091
-1642108
-1641907
-1640839
-1638548
-1636508
-1635778
-1635949
-1636897
-1639294
-1641396
-1642339
-1642260
-1641416
-1638965
-1636563
-1635891
-1635872
-1636708
-1639190
-1641393
-1642393
-1642334
-1641393
-1639151
-1636955
-1636082
-1636333
-1637151
-1639583
-1641924
-1642897
-1642852
-1641770
-1639418
-1637190
-1636572
-1636699
-1637434
-1639962
-1642129
-1642909
-1642916
-1641949
-1639424
-1637182
-1636442
-1636542
-1637406
-1639413
-1641625
-1642709
-1642467
-1641341
-1638921
-1636392
-1635613
-1635372
-1635916
-1638128
-1640289
-1640990
-1640783
-1639566
-1636984
-1634703
-1633601
-1633444
-1634290
-1635964
-1638347
-1639334
-1639217
-1637993
-1635395
-1633030
-1631991
-1631879
-1632681
-1634921
-1636918
-1637615
-1637477
-1636562
-1634137
-1631792
-1630799
-1630721
-1631505
-1633876
-1635972
-1636965
-1636939
-1635742
-1632830
-1630537
-1629886
-1630068
-1630858
-1633251
-1635461
-1636142
-1636108
-1635074
-1633044
-1630079
-1629233
-1629073
-1630199
-1632474
-1634735
-1635435
-1635207
-1634161
-1631648
-1629282
-1628403
-1628535
-1629523
-1631821
-1634192
-1635028
-1634856
-1633419
-1631166
-1628932
-1628105
-1628207
-1629162
-1631585
-1634033
-1634795
-1634799
-1633661
-1631479
-1629026
-1628391
-1628570
-1629375
-1631658
-1633804
-1634587
-1634359
-1633319
-1630981
-1628772
-1627569
-1627581
-1628519
-1631036
-1633242
-1634000
-1633839
-1632893
-1630408
-1627806
-1626958
-1627146
-1627924
-1630418
-1632501
-1633271
-1633220
-1632338
-1629737
-1627541
-1626564
-1626831
-1627402
-1629886
-1632094
-1632907
-1632970
-1631760
-1629405
-1627435
-1626438
-1626646
-1627612
-1629788
-1632122
-1633041
-1633145
-1632083
-1629619
-1627438
-1626621
-1626722
-1627832
-1630232
-1632384
-1633367
-1633497
-1632401
-1630131
-1627985
-1627439
-1627598
-1628562
-1630886
-1633029
-1633961
-1633882
-1632989
-1630772
-1628527
-1627660
-1627849
-1628935
-1633260
-1634267
-1633944
-1630791
-1628555
-1627896
-1628026
-1629107
-1631473
-1633768
-1634504
-1634392
-1633337
-1631199
-1628691
-1627960
-1627890
-1631038
-1633532
-1634392
-1634172
-1632951
-1630636
-1628497
-1627899
-1633605
-1628408
-1631571
-1633990
-1634963
-1633738
-1631599
-1629181
-1628233
-1628384
-1629214
-1631678
-1634036
-1634971
-1635123
-1634235
-1631882
-1629529
-1628524
-1628656
-1629360
-1631795
-1634249
-1635182
-1634971
-1633607
-1631448
-1629398
-1628376
-1628403
-1629037
-1631803
-1634016
-1634964
-1634920
-1633799
-1632773
-1629373
-1628395
-1628968
-1631596
-1633653
-1631287
-1628890
-1627942
-1628169
-1629268
-1631734
-1633965
-1634962
-1635027
-1634094
-1631716
-1629494
-1629819
-1629110
-1629814
-1632331
-1634399
-1635506
-1635214
-1634063
-1631893
-1629722
-1628986
-1629192
-1630097
-1632567
-1635095
-1635837
-1635794
-1634745
-1632748
-1630421
-1629609
-1629950
-1630580
-1633264
-1635509
-1636340
-1636133
-1634726
-1632478
-1630413
-1629340
-1629731
-1630857
-1633304
-1635468
-1636153
-1636208
-1634951
-1632792
-1630737
-1630077
-1630024
-1631000
-1635347
-1631291
-1635995
-1631828
-1630979
-1636965
-1637648
-1637709
-1636580
-1632665
-1637238
-1637834
-1637935
-1636533
-1634306
-1632048
-1631220
-1631274
-1631981
-1634471
-1636837
-1637710
-1637859
-1636301
-1634035
-1631959
-1631255
-1631138
-1632111
-1634551
-1636880
-1637632
-1637587
-1636536
-1634439
-1632245
-1631538
-1631683
-1632407
-1635069
-1637342
-1638161
-1638341
-1637243
-1635049
-1632714
-1631784
-1632926
-1633052
-1635271
-1637468
-1638405
-1638505
-1637445
-1635179
-1632862
-1632089
-1632158
-1633105
-1635658
-1638175
-1639031
-1639144
-1637942
-1635713
-1633372
-1632629
-1632786
-1633728
-1635993
-1638281
-1639120
-1639103
-1637918
-1635347
-1633294
-1632592
-1632558
-1633586
-1636130
-1638228
-1638918
-1639023
-1638042
-1635756
-1633453
-1632711
-1632570
-1633684
-1636163
-1638497
-1639340
-1639325
-1638346
-1636901
-1634292
-1633277
-1633377
-1634129
-1636626
-1638925
-1639965
-1640194
-1638919
-1636825
-1634675
-1633951
-1634089
-1634852
-1637410
-1639541
-1640402
-1640453
-1639576
-1637257
-1635054
-1634238
-1634031
-1635093
-1637415
-1639744
-1640495
-1640432
-1639497
-1637050
-1634779
-1633883
-1633827
-1634738
-1637173
-1639268
-1640166
-1640341
-1639204
-1636720
-1634745
-1633830
-1633980
-1634759
-1637196
-1639605
-1640662
-1640531
-1639502
-1637331
-1635021
-1634302
-1634598
-1635310
-1637932
-1640052
-1641035
-1641063
-1639840
-1637636
-1635637
-1634755
-1634980
-1635911
-1638194
-1640633
-1641676
-1641828
-1640870
-1638575
-1636347
-1635516
-1635453
-1636540
-1639041
-1641003
-1642045
-1642997
-1641278
-1638879
-1637847
-1635909
-1635837
-1636642
-1638829
-1641145
-1642127
-1642124
-1641316
-1639178
-1636771
-1635941
-1636025
-1637087
-1639018
-1641470
-1642491
-1642591
-1641749
-1639367
-1637291
-1636286
-1636357
-1637482
-1639903
-1642244
-1643133
-1643272
-1642478
-1640263
-1638020
-1637159
-1637353
-1638108
-1640503
-1642960
-1643992
-1643916
-1642884
-1640582
-1638387
-1637441
-1637257
-1638361
-1640838
-1642997
-1643961
-1643861
-1642815
-1640509
-1638196
-1637219
-1637403
-1638219
-1640734
-1642943
-1643887
-1643955
-1643196
-1640792
-1638471
-1637433
-1637458
-1638576
-1640793
-1643335
-1644236
-1644204
-1643300
-1640998
-1638831
-1638054
-1637989
-1639013
-1641374
-1643782
-1644688
-1644773
-1643625
-1641410
-1639051
-1638185
-1638197
-1639520
-1641798
-1644131
-1645262
-1645135
-1644349
-1641827
-1639543
-1638788
-1639050
-1639866
-1642353
-1644745
-1645701
-1645854
-1644652
-1642607
-1640068
-1639221
-1639297
-1640329
-1642741
-1644968
-1645639
-1645653
-1644889
-1642328
-1640062
-1639254
-1639519
-1640342
-1642966
-1645295
-1646090
-1646084
-1645157
-1642872
-1640303
-1639577
-1639716
-1640469
-1642841
-1645101
-1646011
-1646156
-1645138
-1642804
-1640465
-1639595
-1639759
-1640724
-1643304
-1645567
-1646491
-1646672
-1645434
-1643284
-1641015
-1639953
-1640033
-1641069
-1643453
-1645606
-1646411
-1646603
-1645357
-1643110
-1640653
-1639624
-1639794
-1640629
-1643014
-1645149
-1645956
-1645788
-1644418
-1642217
-1639644
-1638756
-1638636
-1639310
-1641286
-1643273
-1644130
-1643921
-1642495
-1639930
-1637556
-1636647
-1636314
-1636980
-1639214
-1641378
-1641918
-1641843
-1640681
-1638380
-1635764
-1634789
-1634715
-1635527
-1637843
-1639857
-1640572
-1640499
-1639538
-1637015
-1634801
-1633572
-1633594
-1634270
-1636820
-1639009
-1639817
-1639709
-1638949
-1636493
-1634060
-1632848
-1633043
-1634059
-1636265
-1638473
-1639082
-1639181
-1637952
-1635534
-1633198
-1632374
-1632323
-1633304
-1635424
-1637723
-1638507
-1638593
-1637513
-1635070
-1632798
-1632021
-1631480
-1632503
-1634841
-1637139
-1637838
-1637849
-1636773
-1634209
-1632122
-1630926
-1631010
-1631811
-1634331
-1636479
-1637236
-1637250
-1636347
-1633848
-1631531
-1630562
-1630583
-1631581
-1633874
-1635863
-1636747
-1636867
-1636968
-1633870
-1631214
-1629984
-1629946
-1630930
-1633415
-1636342
-1635322
-1633055
-1631002
-1627574
-1629509
-1630443
-1633093
-1635343
-1636297
-1636282
-1635375
-1632963
-1630681
-1629784
-1629909
-1630722
-1633041
-1635435
-1636223
-1636184
-1635111
-1632847
-1630793
-1629772
-1630096
-1631036
-1633383
-1635574
-1636483
-1636260
-1635497
-1630721
-1629935
-1630141
-1631066
-1633315
-1635528
-1636534
-1636643
-1635573
-1633624
-1631301
-1630590
-1630836
-1631861
-1634084
-1636570
-1637355
-1638657
-1636887
-1634409
-1631889
-1631160
-1631266
-1632286
-1634478
-1636724
-1637629
-1637641
-1636727
-1634562
-1632563
-1631511
-1634924
-1637285
-1638156
-1638217
-1636965
-1634656
-1632448
-1631687
-1631615
-1632627
-1634887
-1637113
-1637926
-1638005
-1636739
-1634422
-1632322
-1631569
-1631560
-1632500
-1634977
-1637257
-1638181
-1638228
-1636988
-1634913
-1632460
-1631604
-1631664
-1632889
-1635262
-1637518
-1638474
-1638401
-1637298
-1635087
-1632922
-1632011
-1632012
-1633225
-1635625
-1637883
-1638931
-1638901
-1637861
-1635704
-1633391
-1632397
-1632428
-1633413
-1635680
-1637832
-1638588
-1638622
-1637747
-1635329
-1633193
-1632304
-1632358
-1633286
-1635526
-1637684
-1638663
-1638751
-1637592
-1635482
-1633158
-1632344
-1632263
-1633335
-1635809
-1638026
-1638792
-1638812
-1637817
-1635278
-1633164
-1632309
-1632162
-1633287
-1635553
-1637692
-1638779
-1638853
-1638910
-1635702
-1633212
-1632192
-1632293
-1633249
-1635488
-1637868
-1638582
-1638786
-1637819
-1635355
-1633328
-1632438
-1632547
-1633530
-1635768
-1638111
-1639119
-1639179
-1638470
-1636259
-1633931
-1633146
-1633335
-1634260
-1636664
-1638813
-1639662
-1639904
-1638849
-1636550
-1634221
-1633380
-1633350
-1634001
-1636564
-1639061
-1640014
-1639954
-1639030
-1636489
-1634339
-1633581
-1633576
-1634557
-1636999
-1638928
-1639884
-1639823
-1638722
-1636771
-1634455
-1633572
-1633870
-1634861
-1636997
-1639209
-1640106
-1640155
-1638837
-1636834
-1634957
-1634300
-1634400
-1635189
-1637673
-1639821
-1640645
-1640741
-1639936
-1637603
-1635663
-1634777
-1634909
-1635734
-1638193
-1640315
-1641169
-1641176
-1640292
-1637831
-1635864
-1635060
-1635097
-1636127
-1638531
-1640803
-1641719
-1641671
-1640675
-1638422
-1636162
-1635232
-1635086
-1636038
-1638531
-1640726
-1641554
-1641545
-1641608
-1638452
-1636043
-1635235
-1635233
-1636239
-1638866
-1640927
-1641898
-1641863
-1640817
-1638551
-1636303
-1635430
-1635431
-1636491
-1638856
-1641264
-1642194
-1642157
-1641331
-1639048
-1636831
-1635943
-1635908
-1637172
-1639480
-1641744
-1642835
-1642932
-1641867
-1639758
-1636774
-1636235
-1636357
-1637406
-1639720
-1641958
-1642973
-1642965
-1641968
-1639796
-1637291
-1636532
-1636566
-1637442
-1639980
-1642329
-1643362
-1643434
-1642522
-1640086
-1637966
-1637117
-1636971
-1637905
-1640440
-1642866
-1643701
-1643617
-1642724
-1640474
-1638293
-1637544
-1637639
-1637956
-1640741
-1643281
-1643602
-1644112
-1643440
-1641215
-1638908
-1638054
-1638211
-1638995
-1641272
-1643570
-1644452
-1644440
-1643497
-1641226
-1639026
-1638328
-1638300
-1639209
-1643879
-1644966
-1644887
-1643819
-1641721
-1639573
-1638700
-1638724
-1639586
-1641793
-1644080
-1644998
-1644929
-1644081
-1641664
-1639048
-1638633
-1638637
-1639555
-1642098
-1644086
-1644992
-1645043
-1644019
-1641972
-1639833
-1638908
-1639182
-1640081
-1642176
-1644457
-1645469
-1645497
-1644597
-1640092
-1639294
-1639508
-1640494
-1642882
-1644993
-1645960
-1646104
-1645219
-1642489
-1640325
-1639697
-1639609
-1640676
-1642928
-1645074
-1646061
-1645900
-1645050
-1642491
-1640369
-1639505
-1639522
-1640498
-1642990
-1645142
-1646061
-1646003
-1645068
-1642761
-1640477
-1639640
-1640027
-1640778
-1643106
-1645330
-1646329
-1646104
-1645330
-1642891
-1640570
-1639660
-1639646
-1640650
-1643287
-1645559
-1646256
-1646266
-1645413
-1643160
-1640723
-1640007
-1640233
-1641229
-1643623
-1645794
-1646456
-1646340
-1645411
-1643136
-1640977
-1640060
-1640070
-1640887
-1643369
-1645615
-1645930
-1646357
-1645381
-1643431
-1641071
-1640568
-1640687
-1641625
-1644010
-1646122
-1646969
-1646910
-1645817
-1643570
-1641357
-1640529
-1640531
-1641749
-1643903
-1646087
-1646703
-1646804
-1645855
-1643652
-1641505
-1640586
-1641658
-1641946
-1644308
-1646454
-1647254
-1647192
-1646049
-1643592
-1641512
-1640751
-1640769
-1641890
-1644796
-1646485
-1647113
-1647218
-1646114
-1644030
-1641817
-1640962
-1641158
-1642340
-1644628
-1646883
-1647665
-1647677
-1646783
-1644519
-1642406
-1641541
-1641539
-1642642
-1645739
-1647294
-1647891
-1647985
-1646907
-1644617
-1642431
-1641664
-1641726
-1642726
-1645358
-1646948
-1648418
-1648702
-1647493
-1645377
-1642984
-1642440
-1642362
-1643212
-1645904
-1648132
-1648880
-1648831
-1642857
-1643304
-1649408
-1643788
-1642931
-1642887
-1643846
-1643201
-1644366
-1646650
-1648844
-1649636
-1649727
-1650231
-1646986
-1644492
-1643558
-1643537
-1644654
-1647057
-1649320
-1650289
-1651736
-1650018
-1647550
-1645257
-1644435
-1644394
-1645649
-1647926
-1650042
-1650941
-1651105
-1649968
-1647641
-1645466
-1644547
-1644615
-1645338
-1647731
-1649799
-1650564
-1650395
-1649320
-1647006
-1644524
-1643532
-1643427
-1644168
-1646391
-1648177
-1648887
-1648743
-1647365
-1644678
-1642374
-1641176
-1640819
-1641587
-1643776
-1645615
-1646067
-1646061
-1644546
-1642238
-1639703
-1638941
-1638855
-1639495
-1641702
-1643722
-1644727
-1644403
-1643204
-1640961
-1638707
-1637891
-1637935
-1639027
-1641278
-1643482
-1644476
-1644596
-1643626
-1641341
-1639025
-1638160
-1637931
-1638870
-1641176
-1643450
-1644293
-1644270
-1643118
-1640648
-1638094
-1637080
-1636663
-1637524
-1639846
-1641842
-1642714
-1642541
-1641349
-1638901
-1636397
-1635427
-1635181
-1636296
-1638458
-1640751
-1641793
-1641597
-1640299
-1638087
-1635799
-1634864
-1634717
-1635791
-1638339
-1640619
-1641534
-1641549
-1640639
-1638153
-1635852
-1635074
-1635012
-1636221
-1638409
-1640683
-1641676
-1641750
-1640563
-1638108
-1635515
-1634541
-1634504
-1635106
-1637601
-1639871
-1640527
-1640555
-1639516
-1637072
-1635688
-1633969
-1633673
-1634609
-1636920
-1639223
-1640111
-1640129
-1638879
-1636570
-1634190
-1633329
-1633374
-1634435
-1636680
-1638999
-1639606
-1639959
-1638725
-1636380
-1634358
-1633373
-1633533
-1634612
-1637066
-1639416
-1640367
-1640640
-1639494
-1637389
-1635044
-1634469
-1634473
-1635879
-1638061
-1640479
-1641285
-1641384
-1640555
-1638200
-1636057
-1635290
-1635151
-1636330
-1641707
-1640064
-1637827
-1635619
-1634891
-1635943
-1638263
-1640605
-1641362
-1641534
-1639991
-1638155
-1636000
-1635080
-1635242
-1636101
-1638531
-1636158
-1635417
-1635305
-1636161
-1638608
-1640796
-1641800
-1641826
-1640744
-1638310
-1635289
-1635376
-1636928
-1642641
-1642824
-1641825
-1637380
-1636621
-1636439
-1637360
-1640011
-1642371
-1643255
-1642313
-1639949
-1637661
-1637887
-1639993
-1642126
-1642494
-1641169
-1639116
-1636959
-1636415
-1636200
-1637287
-1639932
-1642231
-1642983
-1643107
-1641911
-1639644
-1637557
-1636716
-1636553
-1637729
-1640357
-1642694
-1643809
-1642558
-1640226
