PPG
-1649817
-1649122
-1648542
-1647926
-1647537
-1646847
-1646057
-1645428
-1645005
-1644316
-1643635
-1643179
-1642721
-1642040
-1641342
-1640596
-1639992
-1639410
-1638953
-1638530
-1637884
-1637517
-1636979
-1636399
-1635835
-1635455
-1634912
-1634426
-1634039
-1633524
-1633112
-1632770
-1632460
-1632028
-1631458
-1631211
-1630661
-1630212
-1629747
-1629284
-1629033
-1628647
-1628271
-1627810
-1627457
-1627024
-1626528
-1626127
-1625677
-1625248
-1624632
-1624282
-1623848
-1623453
-1623043
-1622755
-1622223
-1621820
-1621452
-1620669
-1620387
-1619911
-1619598
-1619201
-1618711
-1618438
-1617569
-1617173
-1616708
-1616371
-1617291
-1616144
-1615327
-1614943
-1614722
-1614341
-1613982
-1613690
-1613307
-1612943
-1612600
-1612248
-1612109
-1611733
-1611425
-1611052
-1610697
-1610212
-1609967
-1609696
-1609564
-1609006
-1608772
-1608339
-1607981
-1607872
-1607494
-1607211
-1606929
-1606543
-1606368
-1605980
-1605697
-1605289
-1605057
-1604816
-1604558
-1604237
-1604079
-1603802
-1603615
-1603160
-1602760
-1602575
-1602383
-1601948
-1601617
-1600985
-1601044
-1600861
-1600559
-1600292
-1599979
-1599812
-1599458
-1599319
-1599046
-1598851
-1598620
-1598369
-1597535
-1597713
-1597574
-1597431
-1597104
-1596842
-1596620
-1596634
-1596564
-1596796
-1596498
-1596381
-1596233
-1596046
-1595845
-1595806
-1595596
-1595371
-1595349
-1595083
-1594912
-1594900
-1594351
-1595460
-1594635
-1594314
-1594101
-1593893
-1593965
-1593870
-1593535
-1593559
-1593519
-1593338
-1593218
-1593095
-1592769
-1592730
-1592441
-1592463
-1592281
-1592072
-1591997
-1591887
-1591851
-1591536
-1591670
-1591442
-1591390
-1591257
-1591085
-1591020
-1590960
-1590834
-1590648
-1590692
-1590635
-1590583
-1590455
-1590289
-1590204
-1590209
-1590115
-1589977
-1589737
-1589696
-1589649
-1589415
-1589355
-1589269
-1589207
-1588865
-1588999
-1588734
-1588724
-1588655
-1588419
-1588455
-1588343
-1588332
-1588200
-1588194
-1587981
-1587858
-1587820
-1587872
-1587839
-1587762
-1587729
-1587586
-1587571
-1587486
-1587385
-1587380
-1587392
-1587297
-1587172
-1587310
-1587160
-1587087
-1586892
-1586852
-1586795
-1586736
-1586849
-1586730
-1586706
-1586784
-1586595
-1586574
-1586458
-1586417
-1586522
-1586485
-1586391
-1586362
-1586416
-1586398
-1586304
-1586262
-1586910
-1586425
-1586083
-1586039
-1585981
-1585737
-1585650
-1585803
-1585790
-1586391
-1585643
-1586159
-1585648
-1585396
-1585267
-1585192
-1585104
-1584844
-1584868
-1584708
-1584631
-1584710
-1584596
-1584515
-1584359
-1584266
-1584277
-1584048
-1584177
-1583928
-1583930
-1583845
-1583954
-1583983
-1583655
-1583560
-1583688
-1583623
-1583551
-1583645
-1583648
-1583580
-1583562
-1583361
-1583308
-1583253
-1583339
-1583372
-1583462
-1583257
-1583252
-1583163
-1583175
-1583264
-1583256
-1582958
-1582913
-1583001
-1582947
-1582979
-1582892
-1582762
-1582653
-1582747
-1582657
-1582656
-1582564
-1582505
-1582404
-1582388
-1582246
-1582060
-1581935
-1581899
-1581741
-1581736
-1581416
-1581510
-1581305
-1581234
-1580987
-1580730
-1580493
-1580201
-1579932
-1579663
-1579547
-1579195
-1578815
-1578733
-1578312
-1578116
-1577755
-1577560
-1577251
-1576996
-1576675
-1576354
-1575848
-1575436
-1575207
-1574834
-1574541
-1574237
-1573825
-1573606
-1573303
-1572971
-1572726
-1572340
-1572108
-1571803
-1571558
-1571174
-1570976
-1570894
-1570724
-1570488
-1570479
-1570334
-1570362
-1570723
-1570728
-1570683
-1570571
-1570484
-1570615
-1570406
-1570321
-1570325
-1570283
-1570412
-1570297
-1570266
-1570193
-1570131
-1570246
-1570303
-1570225
-1570154
-1570115
-1569938
-1569931
-1569841
-1569784
-1569690
-1569760
-1569543
-1569499
-1569345
-1569293
-1569253
-1569089
-1568963
-1568840
-1568854
-1568779
-1568501
-1568351
-1569602
-1568821
-1568318
-1568131
-1568006
-1568070
-1567895
-1567952
-1567860
-1567888
-1567852
-1567781
-1567846
-1567657
-1567632
-1567678
-1567441
-1567328
-1567475
-1567397
-1567405
-1567557
-1567362
-1567229
-1567282
-1567076
-1567024
-1567145
-1567006
-1567065
-1566941
-1567055
-1567011
-1566846
-1567054
-1566942
-1566854
-1567061
-1567004
-1567141
-1567180
-1567080
-1567324
-1567235
-1567397
-1567334
-1567319
-1567357
-1567457
-1567363
-1567570
-1567578
-1567556
-1567721
-1567617
-1567579
-1567715
-1567654
-1567481
-1567553
-1567658
-1567580
-1567505
-1567452
-1567609
-1567715
-1567675
-1567731
-1567512
-1567618
-1567781
-1567733
-1567830
-1567767
-1567779
-1567862
-1567892
-1568039
-1567879
-1567948
-1568075
-1567997
-1568034
-1568144
-1568167
-1568156
-1568138
-1568189
-1568318
-1568271
-1568248
-1568187
-1568258
-1568362
-1568226
-1568361
-1568268
-1568154
-1568243
-1568109
-1568038
-1567966
-1567987
-1568100
-1567965
-1567987
-1567962
-1567885
-1567790
-1567852
-1567880
-1567860
-1567789
-1567934
-1567812
-1567818
-1567222
-1567605
-1567791
-1567793
-1568864
-1568171
-1567861
-1567958
-1567788
-1567993
-1567946
-1567947
-1568038
-1567992
-1568055
-1567935
-1567929
-1567972
-1567947
-1567802
-1567756
-1567678
-1567610
-1567617
-1567681
-1568040
-1568410
-1568720
-1568635
-1568649
-1568764
-1568859
-1569053
-1569132
-1569018
-1568973
-1568948
-1569035
-1568999
-1568963
-1569195
-1569194
-1569231
-1569217
-1569308
-1569047
-1569278
-1569374
-1569449
-1569538
-1569549
-1569764
-1569633
-1569642
-1569668
-1569829
-1569977
-1569961
-1569947
-1569794
-1570010
-1570057
-1570045
-1570146
-1570058
-1570296
-1570183
-1570247
-1570426
-1570368
-1570330
-1570371
-1570576
-1571388
-1570933
-1570717
-1570893
-1570741
-1570642
-1570673
-1570768
-1570852
-1571092
-1571186
-1571107
-1571117
-1571053
-1571198
-1571153
-1571191
-1571368
-1571388
-1571226
-1571298
-1571511
-1571588
-1572745
-1571962
-1571827
-1571757
-1571758
-1571998
-1572180
-1572122
-1572283
-1572160
-1572300
-1572561
-1572418
-1572664
-1572695
-1572828
-1572952
-1573068
-1573121
-1573234
-1573514
-1573509
-1573466
-1573717
-1573850
-1573828
-1574009
-1574030
-1573927
-1574008
-1574188
-1574281
-1574294
-1574341
-1574290
-1574197
-1574148
-1574197
-1574148
-1574237
-1574223
-1574365
-1574490
-1574471
-1574546
-1574579
-1574739
-1574889
-1574814
-1574909
-1575010
-1574922
-1575080
-1575235
-1575152
-1575227
-1575351
-1575474
-1575365
-1575377
-1575417
-1575511
-1575574
-1575786
-1575836
-1575972
-1575997
-1576060
-1575940
-1576015
-1576327
-1576310
-1576251
-1576322
-1575982
-1576305
-1576346
-1576395
-1576466
-1576569
-1576611
-1576580
-1576571
-1576620
-1576682
-1576737
-1576723
-1576917
-1576834
-1577030
-1576908
-1576840
-1576870
-1577015
-1576882
-1576886
-1576848
-1576776
-1576835
-1576803
-1577008
-1577079
-1577162
-1577039
-1577035
-1577264
-1577248
-1577177
-1577160
-1577134
-1577352
-1577213
-1577350
-1577312
-1577257
-1577437
-1577467
-1577466
-1577323
-1577333
-1577240
-1576707
-1577094
-1577194
-1577226
-1576803
-1576834
-1576745
-1576833
-1576738
-1576677
-1576804
-1576628
-1576508
-1576585
-1576566
-1576321
-1576218
-1576367
-1576124
-1576085
-1576233
-1576081
-1576173
-1575948
-1575945
-1576071
-1576035
-1575928
-1575980
-1575994
-1575953
-1575940
-1575788
-1575687
-1575685
-1575606
-1575546
-1575321
-1575125
-1575085
-1574939
-1574749
-1574603
-1574345
-1574026
-1573858
-1573727
-1573372
-1573211
-1572952
-1572861
-1572552
-1572287
-1572038
-1571774
-1571507
-1571375
-1571362
-1571143
-1570788
-1570546
-1570351
-1570393
-1570077
-1570010
-1569913
-1569671
-1569662
-1569420
-1569422
-1569204
-1569256
-1569131
-1569214
-1569124
-1569000
-1569037
-1568948
-1569092
-1569132
-1569108
-1569191
-1569045
-1569105
-1569114
-1569281
-1569195
-1569064
-1569092
-1569143
-1569078
-1569014
-1568967
-1568606
-1568361
-1568256
-1567941
-1567969
-1567911
-1567976
-1568062
-1567832
-1567791
-1567782
-1567714
-1567758
-1567915
-1567730
-1567678
-1567648
-1567593
-1567112
-1567059
-1567002
-1567032
-1566741
-1566895
-1566623
-1566471
-1566800
-1567075
-1566928
-1566863
-1567123
-1567196
-1567159
-1567139
-1567194
-1567229
-1567325
-1567693
-1567639
-1567903
-1567874
-1567900
-1568017
-1568192
-1568432
-1568498
-1568597
-1568739
-1568933
-1568914
-1568891
-1568991
-1569169
-1569292
-1569375
-1569337
-1569301
-1569274
-1569442
-1569487
-1569304
-1569321
-1569227
-1569201
-1569421
-1569482
-1569376
-1569319
-1569246
-1569241
-1569334
-1569276
-1569445
-1569534
-1569522
-1569474
-1569488
-1569429
-1569426
-1569553
-1569542
-1569603
-1569660
-1569886
-1569703
-1569797
-1569859
-1569846
-1570020
-1570278
-1570351
-1570457
-1570511
-1570536
-1570597
-1570623
-1570676
-1570698
-1570783
-1571006
-1571109
-1570981
-1570965
-1571012
-1571026
-1571232
-1571205
-1571105
-1571177
-1571121
-1570923
-1571006
-1570995
-1570998
-1570963
-1571058
-1571010
-1571064
-1571037
-1571036
-1570780
-1570769
-1570675
-1570583
-1570705
-1570862
-1570761
-1570768
-1570798
-1570752
-1570739
-1570902
-1570539
-1570836
-1570988
-1571087
-1571162
-1571094
-1571379
-1571434
-1571541
-1571513
-1571633
-1571689
-1571854
-1572044
-1571938
-1572044
-1572284
-1572246
-1572247
-1572493
-1572502
-1572728
-1572848
-1572808
-1572812
-1573031
-1573002
-1573006
-1573146
-1573268
-1573183
-1573121
-1573206
-1573304
-1573126
-1573036
-1573027
-1573002
-1572959
-1572994
-1572982
-1573001
-1573002
-1572984
-1573080
-1573062
-1572927
-1573108
-1573119
-1573004
-1573165
-1573162
-1573419
-1573854
-1573990
-1574023
-1574232
-1574365
-1574578
-1574499
-1574516
-1574624
-1574770
-1574997
-1575097
-1575066
-1575146
-1575296
-1575299
-1575546
-1575531
-1575491
-1575826
-1575731
-1575744
-1575904
-1575835
-1575824
-1576007
-1576146
-1576086
-1576155
-1576124
-1576389
-1576412
-1576359
-1576294
-1576512
-1576251
-1576208
-1576171
-1576023
-1576177
-1576312
-1576268
-1576123
-1576124
-1576225
-1576293
-1576174
-1576359
-1576121
-1576188
-1576289
-1576159
-1576036
-1575952
-1576017
-1576191
-1576384
-1576458
-1576584
-1576689
-1576803
-1576748
-1576794
-1576747
-1576891
-1576942
-1577050
-1577001
-1577057
-1577323
-1577269
-1577354
-1577312
-1577507
-1577691
-1577585
-1577591
-1577693
-1577835
-1577837
-1577823
-1578067
-1578044
-1578178
-1578185
-1578156
-1578259
-1578468
-1578632
-1578479
-1578557
-1578565
-1578520
-1578640
-1578658
-1578767
-1578933
-1578921
-1579047
-1580241
-1579586
-1579158
-1579248
-1579083
-1579246
-1579345
-1579182
-1579158
-1579175
-1579233
-1579155
-1579309
-1579347
-1579282
-1579342
-1579387
-1579388
-1580699
-1579680
-1579499
-1579289
-1579290
-1579427
-1580785
-1579809
-1579771
-1579510
-1579670
-1579600
-1579536
-1579629
-1579779
-1579872
-1580008
-1580212
-1580394
-1580379
-1580512
-1580562
-1580724
-1580883
-1580932
-1580851
-1580933
-1581159
-1581059
-1581242
-1581108
-1581238
-1581148
-1581278
-1581409
-1581396
-1581356
-1581306
-1581473
-1581515
-1581534
-1581521
-1581523
-1581422
-1581976
-1581691
-1581547
-1581600
-1581513
-1581457
-1581518
-1581538
-1581621
-1581691
-1581766
-1581937
-1581977
-1582089
-1582148
-1582286
-1582323
-1582347
-1582634
-1582705
-1582731
-1582789
-1582819
-1582684
-1582763
-1582794
-1582978
-1582869
-1582695
-1582557
-1582493
-1582352
-1582403
-1582224
-1582173
-1581820
-1581738
-1581476
-1581417
-1581016
-1580735
-1580422
-1580264
-1579971
-1579712
-1579654
-1579484
-1579130
-1578951
-1578686
-1578398
-1578142
-1579160
-1578048
-1577609
-1577378
-1577132
-1576972
-1576860
-1577163
-1576931
-1576648
-1576664
-1575952
-1576118
-1576117
-1576259
-1576240
-1576154
-1575990
-1575936
-1575820
-1575856
-1575751
-1575610
-1575695
-1575554
-1575440
-1575393
-1575391
-1575323
-1575896
-1575401
-1575246
-1575336
-1575152
-1575296
-1575096
-1575133
-1575058
-1575002
-1574897
-1574975
-1574831
-1574689
-1574669
-1574813
-1574637
-1574547
-1574607
-1574507
-1574396
-1574563
-1574493
-1574395
-1574569
-1574346
-1574152
-1574201
-1574131
-1574279
-1574184
-1574060
-1574017
-1574025
-1574033
-1574004
-1574115
-1574209
-1574139
-1574050
-1573994
-1573935
-1573978
-1574188
-1574020
-1573941
-1574010
-1573902
-1573769
-1573682
-1573714
-1573723
-1573806
-1573654
-1573695
-1573606
-1573716
-1573722
-1573733
-1573752
-1573808
-1573784
-1573778
-1573978
-1574094
-1574061
-1574094
-1574290
-1574423
-1574529
-1574469
-1574547
-1574504
-1574585
-1574771
-1574886
-1574855
-1574829
-1574995
-1574951
-1575100
-1575313
-1575214
-1575244
-1575347
-1575436
-1575398
-1575547
-1575479
-1575636
-1575558
-1575715
-1575538
-1575599
-1575644
-1575769
-1575799
-1575890
-1575963
-1576047
-1576240
-1576229
-1576281
-1576346
-1576326
-1576484
-1576628
-1576729
-1576666
-1576748
-1576760
-1576665
-1576896
-1576770
-1576724
-1576906
-1576777
-1576823
-1577037
-1576948
-1576952
-1577115
-1576947
-1577077
-1576989
-1577012
-1577167
-1577165
-1577032
-1577150
-1577114
-1577211
-1577315
-1577125
-1577312
-1576845
-1577011
-1577230
-1577245
-1577299
-1577394
-1577536
-1577701
-1577627
-1577581
-1577657
-1577833
-1577934
-1577866
-1577978
-1578000
-1577964
-1578234
-1578100
-1578133
-1578289
-1578193
-1578306
-1578294
-1578244
-1578240
-1578448
-1579346
-1578530
-1578582
-1578357
-1578281
-1578306
-1578209
-1578342
-1578469
-1578517
-1578443
-1578611
-1578677
-1578709
-1578665
-1578720
-1578840
-1578816
-1578802
-1578992
-1579120
-1579079
-1578978
-1579224
-1579239
-1579410
-1579299
-1579541
-1579562
-1579618
-1579658
-1579889
-1580032
-1580066
-1580043
-1579959
-1580107
-1580103
-1580301
-1580171
-1579945
-1580382
-1580200
-1580380
-1580397
-1580407
-1580374
-1580274
-1580257
-1580355
-1580469
-1580388
-1580339
-1580279
-1580296
-1580442
-1580576
-1580436
-1580654
-1580692
-1580538
-1580533
-1580645
-1580743
-1580728
-1581018
-1580961
-1581046
-1581088
-1581190
-1581205
-1581354
-1581349
-1581670
-1581578
-1581723
-1581887
-1581780
-1581855
-1582012
-1582172
-1582196
-1582253
-1582996
-1582411
-1582441
-1582474
-1582368
-1582590
-1582726
-1582583
-1582649
-1582867
-1582820
-1582802
-1582879
-1583021
-1582925
-1582962
-1583089
-1583078
-1583123
-1583030
-1583232
-1583333
-1583312
-1583331
-1583321
-1583345
-1583568
-1583242
-1583298
-1583414
-1583507
-1583676
-1583679
-1583664
-1583816
-1583735
-1583879
-1583849
-1583954
-1584095
-1584111
-1584228
-1584053
-1584172
-1584278
-1584307
-1584396
-1584406
-1584461
-1584589
-1584773
-1584672
-1584836
-1584766
-1584737
-1584724
-1584921
-1584915
-1584923
-1584752
-1584773
-1584895
-1585769
-1584977
-1584718
-1584629
-1584797
-1584592
-1584768
-1584628
-1584703
-1584598
-1584724
-1584738
-1584651
-1584689
-1584791
-1584828
-1585005
-1585055
-1585245
-1585223
-1584963
-1585386
-1585504
-1585511
-1585686
-1585643
-1585813
-1585666
-1585802
-1585847
-1585950
-1585969
-1586157
-1586400
-1586379
-1586532
-1586612
-1586748
-1586870
-1587031
-1587172
-1587007
-1586962
-1586922
-1586902
-1587056
-1587075
-1586969
-1586840
-1586858
-1586785
-1586897
-1586995
-1586881
-1586998
-1586928
-1586849
-1586892
-1587023
-1587190
-1587008
-1586985
-1586906
-1586858
-1586966
-1586853
-1586774
-1586694
-1586839
-1586814
-1586650
-1586633
-1586621
-1586494
-1586525
-1586605
-1586736
-1586557
-1586577
-1586372
-1586188
-1586110
-1585888
-1585710
-1585653
-1585342
-1585249
-1585042
-1584919
-1584468
-1584400
-1584309
-1583892
-1583698
-1583635
-1583389
-1583443
-1583215
-1582997
-1582819
-1582729
-1582475
-1582172
-1582152
-1582084
-1581955
-1581794
-1581564
-1581362
-1581164
-1581069
-1581076
-1580704
-1580767
-1580692
-1580386
-1580187
-1580119
-1580205
-1579955
-1579800
-1579691
-1579500
-1579345
-1579606
-1579365
-1579273
-1579014
-1578791
-1578800
-1578688
-1578460
-1578333
-1578270
-1578390
-1578319
-1578286
-1578197
-1578105
-1578003
-1578107
-1578100
-1578073
-1578040
-1577997
-1578030
-1578142
-1578183
-1578268
-1578288
-1578252
-1578238
-1578100
-1578081
-1578078
-1578240
-1578245
-1578349
-1578313
-1578242
-1578239
-1578130
-1578162
-1578101
-1578042
-1578093
-1577947
-1577959
-1578093
-1577834
-1577735
-1577659
-1577797
-1577694
-1577589
-1577640
-1577654
-1577545
-1577594
-1577467
-1577283
-1577226
-1577109
-1577073
-1577149
-1577173
-1577061
-1577139
-1577054
-1577018
-1577103
-1577265
-1577179
-1577346
-1577347
-1577322
-1577397
-1577645
-1577915
-1577742
-1577960
-1578026
-1578023
-1578273
-1578173
-1578248
-1578267
-1578367
-1578574
-1578733
-1578526
-1578609
-1578684
-1578641
-1578818
-1578819
-1578844
-1578950
-1579085
-1578938
-1579077
-1579144
-1578999
-1578924
-1578952
-1578967
-1579111
-1579204
-1579187
-1579071
-1579023
-1578999
-1579069
-1579309
-1579359
-1579461
-1579513
-1579430
-1579646
-1579483
-1579497
-1579682
-1579538
-1579695
-1579897
-1579876
-1579785
-1579893
-1580087
-1580106
-1580061
-1579996
-1580149
-1580139
-1580121
-1580149
-1580161
-1580163
-1580250
-1580222
-1580256
-1580268
-1580144
-1580328
-1580333
-1580360
-1580374
-1580267
-1580423
-1580279
-1580235
-1580299
-1580329
-1580380
-1580475
-1580621
-1580580
-1580733
-1580710
-1580622
-1580700
-1580922
-1580836
-1581068
-1581272
-1581335
-1581295
-1581432
-1581570
-1581362
-1581617
-1581672
-1581597
-1581564
-1581721
-1581845
-1581744
-1581818
-1581845
-1581988
-1581895
-1581974
-1582003
-1582072
-1582256
-1582027
-1582141
-1582148
-1582251
-1582308
-1582410
-1582527
-1582552
-1582455
-1582448
-1582521
-1582740
-1582633
-1582605
-1582515
-1582630
-1582754
-1582627
-1582672
-1582830
-1582872
-1582696
-1582868
-1583017
-1582832
-1582355
-1582807
-1583037
-1583080
-1583060
-1583191
-1583397
-1583475
-1583394
-1583425
-1583335
-1583466
-1583503
-1583708
-1583679
-1583694
-1583826
-1583650
-1583554
-1583711
-1583703
-1583696
-1583698
-1583815
-1583817
-1583834
-1583886
-1584118
-1583990
-1583953
-1583948
-1583968
-1584060
-1584039
-1584246
-1583849
-1584085
-1584324
-1584360
-1584298
-1584352
-1584433
-1584488
-1584531
-1584728
-1584762
-1585027
-1584961
-1584880
-1585217
-1585334
-1585281
-1585435
-1585569
-1585470
-1585556
-1585542
-1585632
-1585655
-1585766
-1585962
-1585761
-1586542
-1586101
-1585852
-1585995
-1586098
-1585908
-1585943
-1585706
-1585769
-1585806
-1585705
-1585947
-1585781
-1585991
-1586109
-1585983
-1585773
-1585842
-1586036
-1586033
-1585923
-1586011
-1586124
-1586150
-1586156
-1586225
-1586404
-1586480
-1586087
-1586442
-1586622
-1586683
-1586867
-1587021
-1587145
-1587296
-1587137
-1587215
-1587330
-1587473
-1587463
-1587553
-1587773
-1587795
-1587836
-1587863
-1588054
-1588139
-1587633
-1588052
-1588264
-1588265
-1588351
-1588224
-1588453
-1588346
-1588307
-1588287
-1588508
-1588563
-1588570
-1588714
-1588592
-1588677
-1588639
-1588719
-1588783
-1588797
-1588823
-1588810
-1588937
-1588933
-1589035
-1589146
-1589186
-1589223
-1589318
-1589416
-1589461
-1589363
-1589436
-1589429
-1589667
-1589724
-1589820
-1589799
-1589776
-1589926
-1589818
-1589794
-1589898
-1589926
-1589962
-1589811
-1589956
-1589785
-1589830
-1590749
-1590284
-1589949
-1589853
-1589835
-1589787
-1589956
-1589963
-1590048
-1590064
-1589964
-1590039
-1590098
-1590123
-1590151
-1590371
-1590696
-1590573
-1590643
-1590685
-1590776
-1590864
-1590911
-1591023
-1591129
-1591007
-1590970
-1591192
-1591150
-1591346
-1591362
-1591372
-1591403
-1591311
-1591339
-1591294
-1591329
-1591314
-1591257
-1591244
-1591249
-1591258
-1591124
-1591118
-1591086
-1591242
-1591177
-1591225
-1591176
-1591267
-1591134
-1590977
-1591068
-1591013
-1591069
-1591020
-1590990
-1591038
-1591028
-1591210
-1591102
-1591073
-1591265
-1591216
-1591324
-1591374
-1591220
-1591233
-1591197
-1591087
-1591176
-1591108
-1590915
-1590949
-1590755
-1590712
-1590442
-1590283
-1590088
-1589900
-1589815
-1589613
-1589496
-1589124
-1588997
-1588619
-1588289
-1588190
-1587890
-1587807
-1587529
-1587355
-1587087
-1586799
-1586601
-1586243
-1585682
-1585370
-1585163
-1584957
-1584865
-1584819
-1584497
-1584313
-1584398
-1584205
-1584071
-1584120
-1583908
-1583827
-1583668
-1583789
-1583598
-1583584
-1583512
-1583460
-1583523
-1583421
-1583459
-1583357
-1583475
-1583377
-1583351
-1583539
-1583554
-1583579
-1583553
-1583434
-1583521
-1583390
-1583338
-1583421
-1583207
-1583181
-1583345
-1583167
-1583019
-1583044
-1582961
-1582895
-1582839
-1582725
-1582636
-1582530
-1582559
-1582332
-1582466
-1582346
-1582285
-1582396
-1582325
-1582336
-1582432
-1582164
-1582139
-1582245
-1582104
-1582243
-1582244
-1582287
-1582072
-1582225
-1582203
-1582001
-1581720
-1581910
-1582087
-1581981
-1582001
-1581873
-1582030
-1581919
-1582150
-1582082
-1582239
-1582062
-1582017
-1582024
-1581985
-1582131
-1582147
-1582286
-1582264
-1582233
-1582493
-1582535
-1582487
-1582615
-1582534
-1582567
-1582794
-1582857
-1582827
-1583041
-1583046
-1583190
-1583333
-1583290
-1583442
-1583485
-1583365
-1583410
-1583474
-1583581
-1583756
-1583720
-1583703
-1583897
-1583834
-1583933
-1583998
-1583901
-1584048
-1583903
-1583850
-1583968
-1583931
-1584039
-1584071
-1583903
-1584105
-1584039
-1584011
-1584139
-1584155
-1584126
-1584021
-1584050
-1584002
-1584090
-1584174
-1584285
-1584366
-1584499
-1585082
-1585176
-1585098
-1585118
-1585144
-1585230
-1585186
-1585126
-1585229
-1585148
-1585142
-1585262
-1585368
-1585306
-1585239
-1585337
-1585345
-1584939
-1585246
-1585369
-1585620
-1585493
-1585750
-1585867
-1585688
-1585894
-1585885
-1586003
-1586158
-1586347
-1586466
-1586396
-1586456
-1586610
-1586825
-1586754
-1586865
-1586871
-1587043
-1587070
-1587079
-1587085
-1587109
-1587193
-1587262
-1587474
-1587557
-1587499
-1587587
-1587428
-1587600
-1587612
-1587695
-1587708
-1587655
-1587712
-1587739
-1587791
-1587710
-1587593
-1587532
-1587426
-1587564
-1587642
-1587631
-1587453
-1587355
-1587235
-1587277
-1587375
-1587368
-1587336
-1587404
-1587415
-1587320
-1587416
-1587316
-1587320
-1587290
-1587384
-1587308
-1587353
-1587427
-1587394
-1587313
-1587295
-1587373
-1587502
-1587416
-1587458
-1587265
-1587593
-1587703
-1587500
-1587418
-1587368
-1587564
-1587518
-1587566
-1587413
-1587716
-1587705
-1587797
-1587823
-1587691
-1587703
-1587720
-1587449
-1587807
-1587840
-1587944
-1587938
-1587910
-1588087
-1588115
-1588118
-1588172
-1588245
-1588233
-1588408
-1588396
-1588425
-1588752
-1588744
-1588693
-1588805
-1589018
-1588922
-1589100
-1589224
-1589165
-1589326
-1589290
-1589286
-1589408
-1589382
-1589555
-1589497
-1589579
-1589573
-1589598
-1589924
-1589960
-1589987
-1589867
-1589973
-1590144
-1590065
-1590144
-1590311
-1590195
-1590017
-1590114
-1590240
-1590265
-1590490
-1590607
-1590747
-1590749
-1590669
-1590738
-1590827
-1590914
-1591073
-1591139
-1591144
-1591137
-1591344
-1591464
-1591390
-1591519
-1591670
-1591820
-1591684
-1591628
-1591864
-1591889
-1591801
-1591914
-1591969
-1592127
-1592168
-1592161
-1592314
-1592432
-1592345
-1592359
-1592463
-1592464
-1592481
-1592540
-1592585
-1592563
-1592647
-1592669
-1592739
-1592769
-1592906
-1593044
-1593009
-1592891
-1592987
-1593140
-1593239
-1593313
-1593257
-1593307
-1593416
-1593553
-1593198
-1593493
-1593646
-1593693
-1593614
-1593675
-1593804
-1593727
-1593912
-1593971
-1593963
-1593876
-1593870
-1593907
-1593826
-1593774
-1593970
-1593974
-1594037
-1594115
-1593962
-1593964
-1593843
-1593936
-1593883
-1593874
-1594044
-1593852
-1593759
-1593806
-1593831
-1593732
-1593942
-1593809
-1593932
-1593764
-1593936
-1593924
-1593880
-1593847
-1593817
-1593561
-1593825
-1593813
-1593869
-1593880
-1594000
-1594049
-1594021
-1594162
-1594103
-1594133
-1594335
-1594310
-1594477
-1594488
-1594498
-1594414
-1594496
-1594633
-1594729
-1594715
-1594656
-1594682
-1594803
-1594731
-1594584
-1594124
-1594079
-1594172
-1593870
-1593861
-1593740
-1593434
-1593243
-1593062
-1592227
-1592276
-1592092
-1592056
-1591745
-1591221
-1590914
-1590848
-1590433
-1590051
-1589703
-1589475
-1589288
-1588887
-1588616
-1588411
-1588240
-1587938
-1587760
-1587549
-1587349
-1587153
-1587204
-1587081
-1586829
-1586819
-1586601
-1586647
-1586653
-1586557
-1586411
-1586454
-1586305
-1586244
-1586344
-1586380
-1586312
-1586110
-1586379
-1586181
-1586327
-1586326
-1586203
-1587254
-1586378
-1586302
-1586046
-1585971
-1585998
-1585938
-1585891
-1585917
-1585823
-1585671
-1585709
-1585712
-1585508
-1585348
-1585307
-1585300
-1585278
-1585058
-1585013
-1585126
-1585021
-1584971
-1584902
-1584834
-1584855
-1584710
-1584570
-1584679
-1584737
-1584840
-1584654
-1584789
-1584765
-1584672
-1584622
-1584535
-1584584
-1585355
-1584859
-1584696
-1584628
-1584683
-1584608
-1584615
-1584638
-1584807
-1584685
-1584758
-1584672
-1584719
-1584724
-1584714
-1584600
-1584586
-1584438
-1584390
-1584481
-1584356
-1584348
-1584190
-1584070
-1584215
-1584279
-1584079
-1584043
-1584048
-1584053
-1584025
-1584157
-1584215
-1584133
-1584258
-1584291
-1584224
-1584349
-1583900
-1584402
-1584524
-1584558
-1584745
-1584773
-1584920
-1585098
-1585061
-1585171
-1585222
-1584858
-1585380
-1585457
-1585735
-1585879
-1585788
-1585811
-1585971
-1586183
-1586092
-1586277
-1586202
-1586382
-1586445
-1586371
-1586627
-1586683
-1586608
-1586576
-1586668
-1586745
-1586784
-1586759
-1586685
-1586711
-1586672
-1586702
-1586727
-1586696
-1586510
-1586556
-1586590
-1586372
-1586450
-1586378
-1586370
-1586563
-1586465
-1586427
-1586616
-1586549
-1586552
-1586535
-1586678
-1586842
-1586730
-1586773
-1586816
-1586959
-1586922
-1587066
-1587146
-1587111
-1587385
-1587479
-1587422
-1587599
-1587568
-1587636
-1587791
-1587878
-1587768
-1587848
-1587900
-1587994
-1587906
-1588033
-1587939
-1587927
-1587866
-1588002
-1588145
-1588048
-1588061
-1588221
-1588160
-1588083
-1588066
-1588106
-1588122
-1588100
-1588226
-1588305
-1588407
-1588251
-1588255
-1588477
-1588571
-1588385
-1588512
-1588497
-1588566
-1588752
-1588922
-1588996
-1588951
-1589077
-1589271
-1589165
-1589162
-1589154
-1589289
-1589305
-1589585
-1589752
-1589654
-1589715
-1589892
-1589937
-1590089
-1590068
-1590310
-1590387
-1590333
-1590378
-1590534
-1590478
-1590544
-1590734
-1590724
-1590725
-1590795
-1590626
-1590641
-1590285
-1590631
-1590850
-1590936
-1590993
-1590954
-1590818
-1590715
-1590876
-1590929
-1590829
-1590988
-1591016
-1590981
-1591016
-1591140
-1591189
-1591402
-1591473
-1591400
-1591454
-1591501
-1591526
-1591595
-1591826
-1591778
-1591975
-1591915
-1592108
-1592286
-1592256
-1592430
-1592399
-1592351
-1592466
-1592363
-1592509
-1592439
-1592457
-1592401
-1592609
-1592509
-1592480
-1592474
-1592403
-1592481
-1592521
-1592267
-1592227
-1592391
-1592430
-1592528
-1592481
-1592416
-1592270
-1592424
-1592502
-1592474
-1592552
-1592631
-1592667
-1592777
-1592886
-1593026
-1593047
-1593093
-1593096
-1593154
-1593309
-1593224
-1593438
-1593337
-1593603
-1593546
-1593737
-1593834
-1593872
-1594032
-1594085
-1594034
-1594100
-1594109
-1594143
-1594307
-1594292
-1594348
-1594337
-1594442
-1594537
-1594423
-1594456
-1594416
-1594303
-1594277
-1594201
-1594166
-1594094
-1594388
-1594478
-1594273
-1594168
-1594200
-1594143
-1594245
-1594208
-1594235
-1594248
-1594168
-1594315
-1594197
-1594364
-1594220
-1594249
-1594305
-1594357
-1594454
-1594463
-1594522
-1594569
-1594968
-1594973
-1594890
-1594983
-1594938
-1595175
-1595194
-1595210
-1595363
-1595346
-1595457
-1595604
-1595641
-1595655
-1595900
-1595947
-1596062
-1595917
-1595971
-1595984
-1596146
-1596091
-1596218
-1596256
-1596159
-1596168
-1596092
-1596087
-1596101
-1596139
-1596257
-1596280
-1596270
-1596136
-1596279
-1596148
-1596269
-1596193
-1596265
-1596483
-1597061
-1596456
-1596228
-1596312
-1596261
-1596108
-1596246
-1596333
-1596199
-1595745
-1595977
-1595916
-1595968
-1595914
-1595970
-1595751
-1595612
-1595662
-1595262
-1595214
-1595025
-1594991
-1594627
-1594481
-1594406
-1594204
-1593901
-1593591
-1593325
-1593240
-1592850
-1592729
-1592244
-1592223
-1591905
-1591635
-1591374
-1591203
-1590965
-1590854
-1590673
-1590609
-1590534
-1590313
-1590178
-1589870
-1589888
-1589724
-1589434
-1589452
-1589202
-1589095
-1589179
-1589069
-1588753
-1588777
-1588675
-1588631
-1588648
-1588528
-1588300
-1588242
-1588237
-1588058
-1588095
-1588032
-1587970
-1588003
-1587821
-1587723
-1587546
-1587611
-1587467
-1587356
-1586950
-1587225
-1587144
-1587128
-1587108
-1586874
-1586861
-1586874
-1586833
-1586867
-1586778
-1586737
-1586634
-1586566
-1586559
-1586522
-1586492
-1586310
-1586292
-1586220
-1586100
-1586062
-1586135
-1585982
-1586067
-1585920
-1585811
-1585915
-1585945
-1585863
-1585917
-1585867
-1585722
-1585630
-1585714
-1585676
-1585538
-1585402
-1585551
-1585354
-1585319
-1585358
-1585363
-1585246
-1585284
-1585215
-1585137
-1585247
-1584852
-1585096
-1585186
-1585177
-1585161
-1585192
-1585182
-1585213
-1585235
-1585141
-1585158
-1585283
-1585295
-1585433
-1585509
-1585479
-1585355
-1585406
-1585611
-1585559
-1585709
-1585644
-1585886
-1586058
-1586138
-1586209
-1586185
-1586261
-1586472
-1586360
-1586424
-1586633
-1586723
-1586758
-1586740
-1586929
-1587150
-1587030
-1587139
-1587109
-1587317
-1587367
-1587280
-1587356
-1587363
-1587299
-1587277
-1587292
-1587259
-1587421
-1587470
-1587497
-1587548
-1587076
-1587474
-1587535
-1587482
-1587465
-1587625
-1587570
-1587623
-1587637
-1588573
-1588043
-1587831
-1587755
-1587790
-1587824
-1587916
-1587839
-1588076
-1588096
-1588105
-1588224
-1588308
-1588356
-1588252
-1588325
-1588450
-1588580
-1588501
-1588546
-1588731
-1588870
-1588939
-1589051
-1589003
-1588908
-1589109
-1588979
-1589244
-1589173
-1589101
-1589115
-1589407
-1589263
-1589207
-1589301
-1589258
-1589414
-1589304
-1589240
-1589242
-1589277
-1589345
-1589407
-1589318
-1589549
-1589527
-1589425
-1589598
-1589530
-1589520
-1589543
-1589716
-1589783
-1589855
-1589980
-1589992
-1589969
-1590055
-1590227
-1590163
-1590344
-1590627
-1590404
-1590632
-1590513
-1590587
-1590586
-1590639
-1590814
-1590911
-1590897
-1590792
-1590932
-1590642
-1590997
-1591103
-1591153
-1591097
-1591054
-1591253
-1591195
-1591231
-1591120
-1591166
-1591076
-1591143
-1591217
-1591105
-1591158
-1591107
-1591231
-1591263
-1591083
-1591019
-1591271
-1591141
-1591280
-1591184
-1591225
-1591244
-1591292
-1591423
-1591450
-1591420
-1591491
-1591707
-1591592
-1591494
-1591560
-1591625
-1591803
-1591915
-1591929
-1592016
-1592116
-1591972
-1591552
-1591920
-1591999
-1592269
-1592308
-1592508
-1592472
-1592658
-1592560
-1592701
-1592672
-1592852
-1592955
-1592982
-1592955
-1592920
-1592973
-1593216
-1593245
-1593092
-1593101
-1593287
-1593082
-1593210
-1593313
-1593355
-1593566
-1593457
-1593405
-1593368
-1593496
-1593614
-1593426
-1593537
-1593485
-1593446
-1593595
-1593618
-1593516
-1593445
-1593466
-1593554
-1593641
-1593659
-1593567
-1593708
-1593668
-1593757
-1593582
-1593618
-1593661
-1593887
-1593850
-1593990
-1594050
-1594022
-1594129
-1594283
-1594317
-1594567
-1594474
-1594880
-1594452
-1594773
-1594803
-1594809
-1594948
-1594940
-1595228
-1595313
-1595435
-1595465
-1595427
-1595464
-1595639
-1595763
-1595839
-1595795
-1595965
-1596005
-1596159
-1596231
-1596128
-1596316
-1596481
-1596407
-1596508
-1596494
-1596585
-1596680
-1596637
-1596649
-1596543
-1596611
-1596662
-1596516
-1596550
-1596628
-1596540
-1596442
-1596395
-1596528
-1596510
-1596488
-1596375
-1596302
-1596436
-1596429
-1596445
-1596528
-1596510
-1596672
-1596486
-1596682
-1596587
-1596697
-1596671
-1596772
-1596904
-1597011
-1597196
-1597210
-1597299
-1597187
-1597238
-1597502
-1597499
-1597395
-1597558
-1597487
-1597570
-1597785
-1597661
-1597730
-1597822
-1597950
-1598150
-1598090
-1598081
-1598216
-1598040
-1598048
-1598110
-1598150
-1598113
-1598263
-1598164
-1598086
-1598180
-1598032
-1597877
-1597768
-1597830
-1597699
-1597488
-1597410
-1597278
-1596769
-1596812
-1596773
-1596658
-1596389
-1596171
-1595816
-1595764
-1595578
-1595208
-1594863
-1594772
-1594305
-1594042
-1593879
-1592824
-1592543
-1592602
-1591975
-1592006
-1591795
-1591642
-1591285
-1590909
-1590333
-1590151
-1590014
-1590078
-1589850
-1589756
-1589693
-1589516
-1589416
-1589446
-1589488
-1589402
-1589157
-1588994
-1588905
-1588901
-1588706
-1588693
-1588710
-1588638
-1588462
-1588454
-1588239
-1588130
-1587455
-1587883
-1587758
-1587740
-1587783
-1587723
-1587554
-1587656
-1587620
-1587518
-1587265
-1587463
-1587246
-1587093
-1587293
-1587062
-1587034
-1586857
-1586832
-1586799
-1586772
-1586854
-1586683
-1586706
-1586583
-1586608
-1586733
-1586636
-1586691
-1586687
-1586403
-1586551
-1586382
-1586409
-1586370
-1586259
-1586441
-1586382
-1586269
-1586335
-1586262
-1586054
-1586118
-1586038
-1585664
-1585968
-1585861
-1585760
-1585902
-1585897
-1585792
-1585782
-1585697
-1585688
-1585563
-1585487
-1585489
-1585575
-1585410
-1585259
-1585394
-1585318
-1585143
-1585246
-1585285
-1585219
-1585189
-1585129
-1585257
-1586173
-1585578
-1585305
-1585313
-1585349
-1585525
-1585733
-1585669
-1585844
-1585786
-1585709
-1585901
-1585850
-1585845
-1585876
-1585950
-1585934
-1586142
-1586117
-1586242
-1586206
-1586390
-1586393
-1586454
-1586503
-1586468
-1586622
-1586547
-1586744
-1586713
-1586858
-1586779
-1586887
-1586945
-1586915
-1587000
-1586971
-1587110
-1586833
-1586998
-1587215
-1587163
-1587206
-1587280
-1587394
-1587406
-1587546
-1587590
-1587492
-1587659
-1587764
-1587896
-1587908
-1587825
-1588055
-1588213
-1588044
-1588109
-1588155
-1588297
-1588310
-1588395
-1588410
-1588697
-1588616
-1588826
-1588898
-1588796
-1588941
-1589065
-1589199
-1589045
-1589170
-1589195
-1589163
-1589440
-1589453
-1589493
-1589506
-1589482
-1589658
-1589599
-1589119
-1589578
-1589565
-1589686
-1589710
-1589718
-1589867
-1589619
-1589662
-1589700
-1589652
-1589877
-1590064
-1590135
-1590056
-1590014
-1590222
-1590203
-1590421
-1590420
-1590470
-1590589
-1590780
-1590677
-1590727
-1590760
-1590846
-1590283
-1590044
-1590048
-1590277
-1590376
-1590251
-1590330
-1590358
-1590562
-1590571
-1590713
-1590941
-1590820
-1591050
-1590894
-1592205
-1591445
-1591126
-1591032
-1591248
-1591146
-1591073
-1591119
-1591130
-1591289
-1591456
-1591434
-1591371
-1591409
-1591286
-1591660
-1591755
-1591609
-1591705
-1591807
-1591692
-1591721
-1591695
-1591679
-1591684
-1591638
-1591649
-1591660
-1591769
-1591756
-1591819
-1591632
-1591705
-1591610
-1591603
-1591673
-1591595
-1591551
-1591572
-1591651
-1591683
-1591659
-1591683
-1591687
-1591802
-1591830
-1591444
-1591803
-1592003
-1592221
-1592279
-1592388
-1592327
-1592403
-1592481
-1592585
-1592548
-1592729
-1592660
-1592679
-1592887
-1593038
-1593028
-1593115
-1593174
-1593322
-1593315
-1593501
-1593480
-1593631
-1593697
-1593665
-1593672
-1593688
-1593853
-1593876
-1593766
-1593976
-1593938
-1593971
-1594002
-1594087
-1594000
-1594111
-1594093
-1594096
-1593991
-1594157
-1594062
-1594177
-1594122
-1594081
-1594205
-1594308
-1594116
-1594109
-1594174
-1594023
-1594140
-1594276
-1593891
-1594134
-1594042
-1594152
-1594264
-1594154
-1594333
-1594311
-1594309
-1594512
-1594571
-1594706
-1594624
-1594771
-1594829
-1594757
-1594831
-1594805
-1594848
-1594941
-1595032
-1595266
-1595182
-1594819
-1595141
-1595205
-1595395
-1595321
-1595557
-1595502
-1595514
-1595212
-1595459
-1595436
-1595667
-1595589
-1595798
-1595575
-1596998
-1596186
-1595961
-1595865
-1595667
-1595609
-1595716
-1595634
-1595672
-1595788
-1595859
-1595782
-1595802
-1595794
-1595751
-1595674
-1595611
-1595764
-1595596
-1595417
-1595641
-1595760
-1595549
-1595634
-1595693
-1595527
-1595471
-1595509
-1595485
-1595556
-1595618
-1595664
-1595738
-1595807
-1595703
-1595696
-1595816
-1595740
-1595950
-1595914
-1595890
-1595908
-1595955
-1595899
-1595900
-1595927
-1595944
-1596081
-1595955
-1595925
-1596035
-1595853
-1595823
-1595814
-1595823
-1595941
-1595914
-1595814
-1595953
-1595843
-1595516
-1595778
-1595972
-1595927
-1595864
-1596062
-1595886
-1595968
-1596006
-1596114
-1596024
-1596108
-1595994
-1595970
-1596099
-1596090
-1595942
-1596020
-1596074
-1595935
-1595694
-1595802
-1591696
-1587509
-1587331
-1586157
-1586135
-1585999
-1586221
-1586362
-1586526
-1586303
-1586169
-1586407
-1586240
-1586216
-1586194
-1586073
-1585978
-1585857
-1585997
-1585986
-1585755
-1585679
-1585598
-1585547
-1585468
-1585437
-1585551
-1585560
-1585370
-1585287
-1585280
-1585386
-1585323
-1585218
-1585181
-1585083
-1585178
-1585028
-1585093
-1585148
-1584977
-1584911
-1584787
-1584882
-1584984
-1585090
-1585154
-1585047
-1584991
-1584998
-1585041
-1585000
-1585094
-1585059
-1585133
-1585294
-1585225
-1585316
-1585307
-1585343
-1585464
-1585407
-1585570
-1585696
-1585608
-1585925
-1585986
-1585979
-1586068
-1586195
-1586335
-1586454
-1586588
-1586646
-1586772
-1586888
-1586986
-1587159
-1587393
-1587524
-1587656
-1587659
-1587711
-1587823
-1587927
-1588012
-1588262
-1588168
-1588425
-1588443
-1588473
-1588629
-1588612
-1588693
-1588716
-1588815
-1588873
-1590113
-1589472
-1589167
-1589189
-1589292
-1589283
-1589272
-1589453
-1589315
-1589245
-1589299
-1589510
-1589407
-1589428
-1589448
-1589390
-1589432
-1589428
-1589432
-1589433
-1589483
-1589536
-1589492
-1589554
-1589544
-1589682
-1589685
-1589725
-1589747
-1589723
-1589878
-1589835
-1589811
-1589894
-1589917
-1590035
-1589981
-1590072
-1590181
-1590177
-1590290
-1590399
-1590422
-1590478
-1590416
-1590441
-1590429
-1590607
-1590655
-1590614
-1590366
-1590778
-1590823
-1590860
-1590985
-1591027
-1591224
-1591100
-1591200
-1591150
-1591193
-1591205
-1591272
-1591253
-1591437
-1591391
-1591388
-1591443
-1591483
-1591680
-1591730
-1591506
-1591593
-1591459
-1591592
-1591613
-1591551
-1591625
-1591409
-1591392
-1591532
-1591182
-1591393
-1591727
-1591645
-1591622
-1591584
-1591729
-1591702
-1591655
-1591612
-1591821
-1591743
-1591739
-1591729
-1591597
-1591653
-1591627
-1591681
-1591676
-1591934
-1592018
-1591859
-1592016
-1591987
-1591910
-1592131
-1592168
-1592080
-1592246
-1592290
-1592295
-1592266
-1592421
-1592406
-1592611
-1592689
-1592637
-1592687
-1592651
-1592830
-1592973
-1592903
-1593045
-1592754
-1593046
-1592918
-1593083
-1592952
-1592951
-1592947
-1592892
-1593096
-1593060
-1593114
-1593025
-1593066
-1593072
-1593118
-1593102
-1593242
-1593189
-1593341
-1593315
-1593336
-1593275
-1593376
-1593185
-1593273
-1593216
-1593180
-1593164
-1593369
-1593320
-1593366
-1593356
-1593345
-1593467
-1593407
-1593570
-1593495
-1593453
-1593461
-1593584
-1593675
-1593797
-1593689
-1593637
-1593662
-1593747
-1593985
-1593882
-1593828
-1593891
-1593766
-1594076
-1594078
-1593998
-1594071
-1593971
-1594060
-1594137
-1594062
-1594055
-1594036
-1594130
-1594052
-1594017
-1594004
-1594235
-1594057
-1594115
-1594251
-1594234
-1594122
-1594288
-1594351
-1594257
-1594168
-1594221
-1594424
-1594356
-1594430
-1594418
-1594589
-1594498
-1594538
-1594559
-1594621
-1594771
-1594596
-1594652
-1594749
-1594885
-1594803
-1594999
-1594831
-1594879
-1594851
-1594946
-1594881
-1595055
-1595027
-1595145
-1595009
-1595065
-1595230
-1595216
-1595150
-1595302
-1595109
-1595074
-1595285
-1595314
-1595401
-1595327
-1595245
-1595264
-1595422
-1595222
-1595276
-1595255
-1595423
-1595365
-1595314
-1595435
-1595339
-1595431
-1595517
-1595757
-1595787
-1595845
-1595731
-1595960
-1596033
-1596071
-1596087
-1596194
-1596149
-1596187
-1596333
-1596304
-1596423
-1596295
-1596381
-1596421
-1596561
-1596539
-1596686
-1596518
-1596615
-1596756
-1596932
-1596637
-1596699
-1596715
-1596789
-1596753
-1596802
-1596873
-1597053
-1596887
-1596982
-1597173
-1597212
-1597248
-1597201
-1597217
-1597221
-1597348
-1597306
-1597170
-1597254
-1597443
-1597101
-1597057
-1597069
-1596913
-1596939
-1596600
-1596534
-1596337
-1597520
-1596477
-1595980
-1595658
-1595523
-1595375
-1595290
-1595210
-1594989
-1594702
-1594525
-1594309
-1594054
-1593863
-1593811
-1593713
-1593353
-1593306
-1592946
-1592649
-1592598
-1592399
-1592154
-1592091
-1591822
-1591817
-1591654
-1591413
-1591304
-1591191
-1591082
-1591074
-1591024
-1590823
-1590733
-1590489
-1590391
-1590345
-1590312
-1590346
-1590318
-1590075
-1589801
-1589733
-1589642
-1589601
-1589620
-1589463
-1589253
-1589188
-1589259
-1589240
-1589052
-1588988
-1588838
-1588699
-1588627
-1588494
-1588404
-1588417
-1588405
-1588431
-1588189
-1588329
-1588114
-1587976
-1587887
-1587872
-1587858
-1587843
-1587783
-1587586
-1587428
-1587343
-1587378
-1587271
-1587176
-1587098
-1587007
-1586957
-1587172
-1587168
-1587115
-1586971
-1586821
-1586719
-1586827
-1586716
-1586697
-1586910
-1586827
-1586954
-1586869
-1586942
-1586923
-1586873
-1586786
-1586721
-1586624
-1586633
-1586688
-1586666
-1586796
-1586790
-1586663
-1586669
-1586523
-1586691
-1586650
-1586558
-1586517
-1586524
-1586622
-1586628
-1586422
-1586495
-1586479
-1586469
-1586467
-1586607
-1586561
-1586683
-1586745
-1586666
-1586714
-1586687
-1586686
-1586970
-1586899
-1587046
-1587097
-1587265
-1587379
-1587292
-1587519
-1587600
-1587461
-1587536
-1587836
-1587719
-1587667
-1587690
-1587790
-1587768
-1587702
-1587605
-1587556
-1587513
-1587675
-1587598
-1587563
-1587508
-1587427
-1587434
-1587457
-1587512
-1587410
-1587578
-1587462
-1587577
-1587358
-1587567
-1587566
-1587558
-1587464
-1587648
-1587496
-1587392
-1587403
-1587478
-1587512
-1587427
-1587516
-1587428
-1587402
-1587538
-1587685
-1587652
-1587576
-1587722
-1587770
-1587631
-1587590
-1587709
-1587649
-1587899
-1587833
-1587836
-1587907
-1587956
-1587943
-1588100
-1588189
-1588262
-1588365
-1588349
-1588267
-1588356
-1588289
-1588362
-1588532
-1588447
-1588600
-1588498
-1588482
-1588675
-1588569
-1588716
-1588676
-1588861
-1588848
-1588977
-1588959
-1588912
-1588911
-1588955
-1589235
-1589303
-1589235
-1589315
-1589418
-1589533
-1589604
-1589416
-1589530
-1589534
-1589813
-1589732
-1589665
-1589658
-1589838
-1589779
-1589657
-1589705
-1589662
-1589756
-1589709
-1589881
-1589777
-1589725
-1589631
-1589250
-1589468
-1589502
-1589577
-1589636
-1589676
-1589658
-1589731
-1589613
-1589536
-1589492
-1589661
-1589618
-1589527
-1589581
-1589433
-1589495
-1589531
-1589513
-1589713
-1589523
-1589584
-1589747
-1589636
-1589701
-1589815
-1589766
-1589803
-1589771
-1589824
-1589964
-1589996
-1589974
-1589971
-1590007
-1590090
-1590196
-1590168
-1590220
-1590375
-1590334
-1590447
-1590578
-1590473
-1590612
-1590569
-1590655
-1590555
-1590806
-1590545
-1590657
-1590793
-1590897
-1591084
-1590886
-1591019
-1591035
-1592621
-1591784
-1591470
-1591507
-1591470
-1591664
-1591552
-1591591
-1591755
-1591707
-1591975
-1592173
-1592239
-1592383
-1592328
-1592247
-1592292
-1592455
-1592534
-1592550
-1592566
-1592705
-1592703
-1592761
-1592960
-1593098
-1593160
-1593206
-1593144
-1593325
-1593360
-1593510
-1593552
-1593622
-1593896
-1593993
-1594030
-1594108
-1594217
-1594483
-1594520
-1594578
-1594670
-1594870
-1594877
-1595044
-1595139
-1595256
-1595391
-1595575
-1595536
-1595913
-1595886
-1596020
-1596026
-1596210
-1596348
-1596306
-1596545
-1596577
-1596596
-1597071
-1597012
-1597093
-1597326
-1597295
-1597469
-1597530
-1597750
-1597877
-1597796
-1597946
-1598048
-1598065
-1598104
-1598193
-1598112
-1598316
-1598256
-1598409
-1598366
-1598437
-1598631
-1598647
-1598675
-1598639
-1598644
-1598539
-1598715
-1598705
-1598824
-1598713
-1598727
-1598657
-1598898
-1598775
-1598889
-1598506
-1598830
-1598924
-1598992
-1599168
-1599023
-1599129
-1599061
-1599145
-1599171
-1599140
-1599311
-1599302
-1599331
-1599169
-1599324
-1599051
-1599035
-1599103
-1599030
-1599131
-1599013
-1599320
-1599538
-1599546
-1599407
-1599497
-1599581
-1599389
-1599373
-1599040
-1598926
-1598863
-1598597
-1598554
-1598224
-1597738
-1597572
-1597234
-1596916
-1596894
-1596559
-1596184
-1596064
-1595730
-1595418
-1595050
-1594775
-1594374
-1594278
-1594124
-1593845
-1593643
-1593362
-1592601
-1592780
-1592742
-1592600
-1592281
-1592121
-1591986
-1591852
-1591778
-1591748
-1591579
-1591527
-1591526
-1591513
-1591360
-1590904
-1590756
-1590774
-1590538
-1590512
-1590453
-1590629
-1590312
-1590539
-1590460
-1590566
-1590361
-1590271
-1590330
-1590251
-1590211
-1590118
-1590116
-1590153
-1590137
-1590051
-1590145
-1590197
-1589960
-1589974
-1589671
-1589744
-1589605
-1589385
-1589428
-1589343
-1589228
-1589170
-1589223
-1589125
-1589221
-1589195
-1589022
-1588559
-1588762
-1588928
-1588856
-1588957
-1588875
-1589032
-1588882
-1588975
-1588837
-1588908
-1588914
-1588882
-1589072
-1588689
-1588993
-1589202
-1589445
-1589326
-1589402
-1589588
-1589620
-1589552
-1589646
-1589680
-1589976
-1590184
-1589799
-1589914
-1590167
-1590207
-1590325
-1590507
-1590641
-1590538
-1590780
-1590699
-1590989
-1590882
-1590861
-1591220
-1591293
-1591226
-1591266
-1590840
-1591455
-1591410
-1591454
-1591653
-1591748
-1591645
-1591655
-1591580
-1591629
-1591804
-1591958
-1591821
-1591720
-1591731
-1591797
-1591974
-1591764
-1592048
-1592057
-1592056
-1592176
-1592244
-1592151
-1593355
-1592624
-1592418
-1592398
-1592189
-1592323
-1592225
-1592279
-1592392
-1592531
-1592427
-1592480
-1592638
-1592723
-1592684
-1592741
-1592625
-1592690
-1592593
-1592764
-1592748
-1592673
-1592788
-1592772
-1592845
-1592858
-1592667
-1592876
-1592752
-1592780
-1592819
-1592803
-1592696
-1592880
-1592961
-1592845
-1592972
-1592808
-1593085
-1593032
-1593000
-1592958
-1593049
-1592996
-1592870
-1593020
-1592980
-1593085
-1593196
-1593225
-1593149
-1593341
-1593407
-1593473
-1593485
-1593555
-1593376
-1593498
-1593548
-1593422
-1593458
-1593432
-1593496
-1593714
-1593515
-1593374
-1593532
-1593572
-1593532
-1593443
-1593511
-1593632
-1593627
-1593684
-1593722
-1593732
-1593886
-1593775
-1593637
-1593691
-1593897
-1594132
-1594112
-1594138
-1594062
-1594014
-1594091
-1594102
-1594110
-1594151
-1594152
-1594313
-1594372
-1594444
-1594306
-1594245
-1594271
-1594459
-1594424
-1594375
-1594470
-1594515
-1594401
-1594484
-1594680
-1594620
-1594761
-1594639
-1594792
-1594702
-1594710
-1594357
-1594844
-1594942
-1595136
-1595065
-1595034
-1595117
-1595173
-1595419
-1595480
-1595492
-1595414
-1595585
-1595651
-1595687
-1595565
-1595532
-1595629
-1595604
-1595657
-1595558
-1595607
-1595603
-1595561
-1595593
-1595680
-1595597
-1595489
-1595487
-1595750
-1595764
-1595708
-1595665
-1595700
-1595671
-1595669
-1595795
-1595768
-1595860
-1595923
-1596015
-1596153
-1596323
-1596189
-1596179
-1596087
-1596282
-1596149
-1596268
-1596299
-1596444
-1596589
-1596631
-1596646
-1596711
-1596799
-1596817
-1596839
-1596865
-1596799
-1596835
-1596843
-1597058
-1597128
-1597220
-1597112
-1597114
-1597223
-1597320
-1597414
-1597513
-1597664
-1597769
-1597983
-1597923
-1597942
-1598050
-1598102
-1598189
-1598255
-1598369
-1598589
-1598546
-1598586
-1598541
-1598707
-1598859
-1599004
-1598758
-1598801
-1598913
-1599286
-1599354
-1599256
-1599355
-1599411
-1599646
-1599563
-1599732
-1599913
-1599878
-1599807
-1599800
-1600043
-1600094
-1600091
-1600114
-1600281
-1600214
-1600267
-1600250
-1600367
-1600362
-1600484
-1600538
-1600565
-1600636
-1600647
-1600642
-1600711
-1600986
-1600899
-1601067
-1601039
-1601252
-1601124
-1601173
-1601095
-1601268
-1601670
-1601804
-1602558
-1602622
-1602801
-1602680
-1602590
-1602827
-1602963
-1602860
-1602768
-1602939
-1602678
-1602717
-1602843
-1602811
-1602740
-1602910
-1602923
-1602743
-1602758
-1602913
-1602775
-1602783
-1602744
-1602659
-1602822
-1602795
-1602728
-1602703
-1602475
-1602472
-1602251
-1602285
-1602207
-1601996
-1601952
-1601731
-1601739
-1601306
-1601164
-1600986
-1600774
-1600538
-1600517
-1600309
-1600078
-1599714
-1599706
-1599451
-1599277
-1598797
-1598620
-1598417
-1597664
-1597045
-1596759
-1596461
-1596140
-1595930
-1595822
-1595862
-1595737
-1595544
-1595537
-1595562
-1595304
-1595114
-1595045
-1595123
-1595000
-1594768
-1595904
-1595157
-1595019
-1595021
-1594814
-1594992
-1594897
-1595064
-1594961
-1594833
-1594773
-1594818
-1594799
-1594877
-1594889
-1595049
-1594965
-1595126
-1595095
-1595033
-1594923
-1595026
-1595016
-1594961
-1594780
-1594697
-1594735
-1594651
-1594693
-1594771
-1594637
-1594706
-1594603
-1594492
-1594531
-1594428
-1594436
-1594538
-1594570
-1594259
-1594192
-1594120
-1594058
-1594079
-1593945
-1594142
-1594108
-1594060
-1594024
-1593878
-1593917
-1593890
-1593893
-1593868
-1593964
-1593996
-1593805
-1593934
-1593959
-1593814
-1593782
-1593856
-1593847
-1593869
-1593866
-1593948
-1594130
-1594221
-1594151
-1594307
-1594386
-1594296
-1594558
-1594674
-1594645
-1594802
-1594999
-1594919
-1594973
-1594925
-1594840
-1594759
-1594644
-1594620
-1594729
-1594875
-1594992
-1595080
-1595002
-1594955
-1594851
-1594860
-1595075
-1595098
-1595099
-1595123
-1595064
-1595041
-1595160
-1595212
-1595113
-1595041
-1595028
-1595144
-1595043
-1595016
-1595022
-1594987
-1594963
-1594943
-1594974
-1595014
-1594921
-1595183
-1595280
-1595111
-1595241
-1595290
-1595336
-1595266
-1595275
-1595272
-1595270
-1595440
-1595429
-1595399
-1595431
-1595340
-1595522
-1595443
-1595697
-1595485
-1595518
-1595692
-1595717
-1595719
-1595702
-1595660
-1595612
-1595860
-1595893
-1595783
-1595797
-1595792
-1595918
-1595968
-1595916
-1596112
-1596102
-1596153
-1596299
-1596627
-1596804
-1597011
-1597053
-1597160
-1597258
-1597404
-1597453
-1597443
-1597447
-1597505
-1597628
-1597894
-1597832
-1597884
-1598086
-1598162
-1598205
-1598333
-1598430
-1598449
-1598582
-1598659
-1598778
-1598880
-1598712
-1598718
-1598833
-1598809
-1598833
-1599070
-1599142
-1599165
-1599220
-1599489
-1599534
-1599365
-1599562
-1599577
-1599571
-1599597
-1599783
-1599722
-1599800
-1599739
-1599868
-1599783
-1599900
-1599870
-1599784
-1599769
-1599937
-1599952
-1599891
-1599837
-1600117
-1600026
-1600009
-1600182
-1600265
-1600392
-1600505
-1600348
-1600333
-1600582
-1600609
-1600599
-1600470
-1600554
-1600659
-1600739
-1600737
-1600578
-1600612
-1600533
-1600647
-1600479
-1600604
-1600442
-1600485
-1600456
-1600676
-1600694
-1600716
-1600612
-1600565
-1600446
-1600382
-1600455
-1600532
-1600493
-1600465
-1600347
-1600350
-1600505
-1600452
-1600344
-1600397
-1600268
-1600415
-1600411
-1600607
-1600480
-1600633
-1600713
-1600535
-1600676
-1600764
-1600645
-1600857
-1600955
-1600944
-1600864
-1600859
-1600938
-1600540
-1600947
-1601233
-1601303
-1601391
-1601221
-1601259
-1601396
-1601567
-1601496
-1601674
-1601543
-1601614
-1601637
-1601705
-1601810
-1601761
-1601872
-1601986
-1601908
-1601865
-1602097
-1602016
-1602054
-1602098
-1602185
-1602055
-1602188
-1602402
-1602278
-1602383
-1602398
-1602542
-1602490
-1602382
-1602500
-1602393
-1602610
-1602106
-1602240
-1602335
-1602565
-1602513
-1602470
-1602439
-1602669
-1602598
-1602504
-1602518
-1602691
-1602664
-1602579
-1602701
-1602583
-1602724
-1602649
-1602505
-1602155
-1602384
-1602634
-1602583
-1602542
-1602684
-1602468
-1602557
-1602724
-1602754
-1602689
-1602786
-1602706
-1602724
-1602648
-1602772
-1602752
-1602763
-1602853
-1602768
-1602905
-1602874
-1602941
-1603167
-1603181
-1603154
-1603465
-1603418
-1603467
-1603604
-1603825
-1603929
-1604072
-1604025
-1603994
-1604037
-1604219
-1604228
-1604417
-1604466
-1604527
-1604608
-1604603
-1604497
-1604438
-1604361
-1604597
-1604460
-1604674
-1604595
-1604672
-1604575
-1604655
-1604853
-1604729
-1604699
-1604813
-1604955
-1604956
-1604776
-1604822
-1605206
-1604990
-1605138
-1605003
-1605005
-1605087
-1604876
-1605330
-1605289
-1605344
-1605346
-1605416
-1605325
-1605478
-1605525
-1605497
-1605676
-1605736
-1605845
-1605865
-1606045
-1606111
-1606124
-1606234
-1606483
-1605973
-1606345
-1606471
-1606611
-1606600
-1606794
-1606902
-1606946
-1606858
-1607042
-1607056
-1607205
-1607283
-1607266
-1607243
-1607366
-1607357
-1607406
-1607642
-1607558
-1607586
-1607599
-1607753
-1607544
-1607482
-1607426
-1607365
-1607231
-1606931
-1606754
-1606585
-1606558
-1606343
-1605919
-1605693
-1605487
-1605252
-1605096
-1604691
-1604592
-1604310
-1604076
-1603913
-1603621
-1603459
-1603039
-1602810
-1602588
-1602306
-1601992
-1601748
-1601796
-1601488
-1601460
-1601300
-1600965
-1600772
-1600565
-1600490
-1600575
-1600417
-1600251
-1600192
-1600019
-1600029
-1599923
-1599764
-1599794
-1599602
-1599495
-1599439
-1599548
-1599399
-1600233
-1599525
-1599411
-1599245
-1599212
-1599017
-1598944
-1599076
-1598955
-1598894
-1598972
-1599032
-1600366
-1599038
-1598663
-1598705
-1598435
-1598184
-1597932
-1597503
-1597656
-1597429
-1597449
-1597360
-1597298
-1597364
-1597386
-1597257
-1597195
-1597351
-1597262
-1597362
-1597243
-1597265
-1597148
-1597087
-1596740
-1596945
-1596994
-1597239
-1597376
-1597266
-1597135
-1597300
-1597205
-1597357
-1597196
-1597199
-1597198
-1597305
-1598569
-1598494
-1598481
-1598923
-1599235
-1599466
-1599347
-1599297
-1599536
-1599484
-1599606
-1599655
-1599575
-1599785
-1599740
-1599630
-1599759
-1599631
-1599753
-1599743
-1599853
-1599758
-1599789
-1599976
-1599837
-1599836
-1600019
-1600085
-1600225
-1600408
-1600312
-1600350
-1600558
-1600513
-1600585
-1600530
-1600611
-1600719
-1600772
-1600787
-1600756
-1600769
-1600756
-1600775
-1600947
-1600825
-1600821
-1601019
-1601047
-1600951
-1600865
-1600736
-1600741
-1600795
-1600949
-1600992
-1600820
-1600914
-1600805
-1600704
-1600764
-1600740
-1600863
-1600841
-1600653
-1600742
-1600892
-1601047
-1600963
-1601158
-1601192
-1601262
-1601218
-1601360
-1601676
-1601908
-1602252
-1602441
-1602137
-1602492
-1602921
-1603125
-1603241
-1603332
-1603448
-1603534
-1603739
-1604007
-1604235
-1604043
-1604339
-1603778
-1604153
-1604470
-1604532
-1604642
-1604683
-1604630
-1604631
-1604481
-1604523
-1604450
-1604486
-1604452
-1604567
-1604487
-1604469
-1604354
-1604376
-1604535
-1604465
-1604498
-1604407
-1604475
-1604430
-1604617
-1604462
-1604502
-1604482
-1604534
-1604458
-1604377
-1604344
-1604527
-1604106
-1604208
-1604389
-1604408
-1604369
-1604251
-1604255
-1604137
-1604265
-1604254
-1604177
-1604199
-1604114
-1603931
-1603933
-1603912
-1603953
-1603913
-1603965
-1604099
-1604057
-1604108
-1604070
-1604195
-1604253
-1604131
-1604124
-1604192
-1604395
-1604324
-1604512
-1604424
-1604646
-1604805
-1604946
-1605849
-1605874
-1605847
-1605764
-1605820
-1605992
-1605475
-1605747
-1605900
-1605753
-1605944
-1605772
-1605678
-1605734
-1605724
-1605722
-1605919
-1605902
-1605907
-1605727
-1605662
-1605725
-1605574
-1605476
-1604655
-1604446
-1604225
-1604244
-1604128
-1604197
-1604190
-1603922
-1603933
-1603884
-1603815
-1604043
-1604217
-1604264
-1604518
-1604649
-1604754
-1604752
-1604978
-1604938
-1605195
-1605260
-1605230
-1605421
-1605500
-1605560
-1605503
-1605485
-1605626
-1605824
-1605801
-1606119
-1606492
-1606368
-1606409
-1606380
-1606642
-1606691
-1606631
-1606838
-1606988
-1606823
-1607044
-1607054
-1607017
-1607038
-1607127
-1607206
-1607197
-1607271
-1607351
-1607300
-1607554
-1607539
-1607547
-1607586
-1607596
-1607604
-1609017
-1609474
-1610848
-1611203
-1611975
-1612269
-1612348
-1612363
-1612506
-1612418
-1612311
-1612344
-1612448
-1612451
-1612351
-1612498
-1612500
-1612305
-1612315
-1611718
-1611785
-1611903
-1611760
-1611638
-1611527
-1611511
-1611380
-1611239
-1611010
-1610770
-1610469
-1610254
-1610004
-1609921
-1609909
-1609492
-1609503
-1609202
-1608792
-1608749
-1608563
-1608346
-1608013
-1607734
-1607521
-1607215
-1606875
-1606764
-1606520
-1606431
-1606224
-1606015
-1605858
-1605812
-1605562
-1605309
-1605232
-1605277
-1605147
-1605007
-1604909
-1604852
-1604943
-1604822
-1604807
-1604591
-1604575
-1604580
-1604350
-1604327
-1604264
-1604434
-1604212
-1604301
-1604337
-1604221
-1604033
-1603943
-1603863
-1603630
-1603496
-1603457
-1603465
-1603378
-1603252
-1603187
-1603246
-1603096
-1603230
-1603119
-1602977
-1603093
-1602936
-1602603
-1602752
-1602873
-1602769
-1602738
-1602637
-1602552
-1602554
-1602622
-1602419
-1602359
-1602268
-1602377
-1602350
-1602334
-1602034
-1602257
-1602072
-1602086
-1601936
-1601915
-1601956
-1602041
-1601908
-1601864
-1601793
-1601949
-1601834
-1601841
-1601876
-1601870
-1601782
-1601798
-1601697
-1601686
-1601708
-1601759
-1601862
-1601849
-1601840
-1602054
-1602003
-1602192
-1602163
-1602254
-1602438
-1602446
-1602515
-1602532
-1602475
-1602636
-1602692
-1602615
-1602597
-1602654
-1602724
-1602708
-1602668
-1602749
-1602920
-1602951
-1602864
-1602980
-1602989
-1602917
-1602847
-1602835
-1602968
-1603011
-1602883
-1602919
-1602888
-1602794
-1602854
-1602982
-1602787
-1602855
-1602701
-1602924
-1602798
-1602917
-1602955
-1602856
-1602945
-1602968
-1602881
-1602919
-1602971
-1602724
-1603031
-1603153
-1603350
-1603457
-1603484
-1603483
-1603579
-1603562
-1603723
-1603633
-1603625
-1603777
-1603615
-1603554
-1603677
-1603755
-1603668
-1603667
-1603646
-1603806
-1603865
-1603896
-1603892
-1603991
-1603817
-1604029
-1603998
-1604079
-1603994
-1604099
-1604130
-1604079
-1604099
-1604165
-1604077
-1604346
-1604363
-1604200
-1604122
-1604264
-1604277
-1604415
-1604524
-1604644
-1604608
-1604531
-1604648
-1604575
-1604837
-1604816
-1604940
-1604974
-1604940
-1604996
-1604954
-1605062
-1605190
-1605117
-1605208
-1605271
-1605517
-1605523
-1605541
-1605623
-1605526
-1605670
-1605557
-1605562
-1605595
-1605821
-1605884
-1605995
-1606091
-1606045
-1605971
-1606086
-1606168
-1606420
-1606360
-1606633
-1606797
-1606666
-1606690
-1606799
-1607002
-1607040
-1606875
-1606998
-1607067
-1607326
-1607398
-1607391
-1607488
-1607366
-1607475
-1607502
-1607553
-1607619
-1607731
-1607707
-1607725
-1607896
-1609040
-1608182
-1607882
-1607779
-1607753
-1607721
-1607971
-1607909
-1608077
-1607957
-1607939
-1607885
-1608009
-1608118
-1608060
-1608016
-1608291
-1608247
-1608283
-1608367
-1608403
-1608127
-1608265
-1608280
-1608430
-1608450
-1608485
-1608573
-1608616
-1608731
-1608645
-1608894
-1609008
-1608812
-1608862
-1608673
-1608896
-1608951
-1609063
-1609257
-1609275
-1609204
-1609307
-1609220
-1609311
-1609397
-1609499
-1609550
-1609587
-1609646
-1609514
-1609489
-1609508
-1609516
-1609530
-1609631
-1609863
-1609869
-1610042
-1610028
-1609865
-1609939
-1610006
-1610159
-1610057
-1610292
-1610295
-1610326
-1610422
-1610304
-1610449
-1610524
-1610587
-1610575
-1610570
-1610424
-1610414
-1610564
-1610539
-1610581
-1610509
-1610700
-1610549
-1610546
-1610627
-1610759
-1610695
-1610665
-1610791
-1610933
-1610747
-1611001
-1610919
-1610974
-1610938
-1611121
-1611204
-1611011
-1611054
-1611189
-1611336
-1611174
-1611232
-1611198
-1611441
-1611311
-1611360
-1611378
-1611475
-1611592
-1611701
-1611757
-1611851
-1611789
-1611757
-1611958
-1611878
-1612005
-1611966
-1612079
-1612208
-1612294
-1612288
-1612169
-1612257
-1612328
-1612425
-1612625
-1612705
-1612534
-1612580
-1612550
-1612571
-1612694
-1612598
-1612845
-1612829
-1612975
-1612871
-1612967
-1612971
-1612994
-1613239
-1613099
-1613194
-1613375
-1613447
-1613375
-1613525
-1613414
-1613519
-1613392
-1613473
-1613408
-1613518
-1613530
-1613489
-1613432
-1613549
-1613728
-1613751
-1613728
-1613850
-1613742
-1613904
-1613922
-1614047
-1614048
-1613988
-1614050
-1614011
-1614057
-1614114
-1614252
-1614180
-1614349
-1614458
-1614263
-1614425
-1614327
-1614419
-1614413
-1614382
-1614477
-1614569
-1614491
-1614511
-1614562
-1614761
-1614764
-1614694
-1614876
-1614791
-1614874
-1614979
-1615027
-1615078
-1615085
-1615016
-1615001
-1615160
-1615023
-1615082
-1614847
-1614955
-1614925
-1614864
-1614673
-1614779
-1614591
-1614543
-1614238
-1614098
-1613995
-1613870
-1613697
-1613404
-1613291
-1613124
-1613302
-1612945
-1612753
-1612233
-1612210
-1611841
-1611681
-1611457
-1611249
-1611294
-1611128
-1610697
-1610632
-1610347
-1610244
-1609232
-1609113
-1609020
-1608722
-1607202
-1607123
-1607020
-1607029
-1607042
-1607035
-1607018
-1607145
-1607042
-1607134
-1607311
-1607376
-1606404
-1606327
-1606294
-1606210
-1606133
-1606427
-1606310
-1606378
-1606289
-1606344
-1606255
-1606209
-1606286
-1606502
-1606414
-1606637
-1606611
-1606786
-1606690
-1606734
-1607029
-1606958
-1607031
-1607046
-1607190
-1607412
-1607346
-1607633
-1607677
-1607860
-1607911
-1607925
-1607844
-1607808
-1607901
-1608090
-1608031
-1608148
-1608197
-1608214
-1608233
-1608319
-1608346
-1608394
-1608399
-1608562
-1608427
-1608357
-1608553
-1608443
-1608426
-1608392
-1608486
-1608441
-1608571
-1608457
-1608388
-1608565
-1608529
-1608640
-1608646
-1608673
-1608707
-1608672
-1608616
-1608676
-1608680
-1608646
-1608876
-1608727
-1608738
-1608903
-1609035
-1608913
-1609037
-1609055
-1609064
-1609065
-1609280
-1609169
-1609345
-1609179
-1609185
-1609408
-1609344
-1609410
-1609473
-1609474
-1609666
-1609750
-1609972
-1609813
-1610043
-1609883
-1609899
-1610057
-1610361
-1610506
-1610594
-1610597
-1610618
-1610735
-1610797
-1610853
-1610796
-1610924
-1610768
-1610721
-1610706
-1610773
-1610919
-1610800
-1610912
-1610890
-1610914
-1610827
-1610817
-1610844
-1610659
-1610880
-1610935
-1610853
-1610806
-1610928
-1610824
-1611000
-1610871
-1610823
-1610899
-1610800
-1610968
-1611128
-1611038
-1610951
-1611033
-1611080
-1611066
-1611241
-1611328
-1611280
-1611453
-1611574
-1611618
-1611487
-1611684
-1611763
-1611622
-1611749
-1611752
-1611823
-1611984
-1612038
-1612010
-1612057
-1612327
-1612369
-1612452
-1612331
-1612476
-1612646
-1612574
-1612722
-1612727
-1612713
-1612714
-1612731
-1612722
-1612873
-1612731
-1612815
-1612915
-1613057
-1613001
-1613098
-1613078
-1613166
-1613013
-1612996
-1613113
-1613278
-1613334
-1613260
-1613059
-1613124
-1613215
-1613068
-1612982
-1613067
-1613192
-1613148
-1613215
-1613386
-1613217
-1613413
-1613371
-1613215
-1613211
-1613509
-1613457
-1613519
-1613523
-1613678
-1613686
-1613666
-1613898
-1613985
-1614093
-1614081
-1614115
-1614262
-1614191
-1614205
-1614405
-1614357
-1614353
-1614351
-1614541
-1614650
-1614457
-1614592
-1614591
-1614573
-1614636
-1614557
-1614526
-1614587
-1614733
-1614721
-1614661
-1614808
-1614764
-1614642
-1614625
-1614614
-1614642
-1614829
-1614798
-1614938
-1614927
-1615079
-1614950
-1614897
-1615134
-1615027
-1615200
-1615228
-1615323
-1615264
-1615465
-1615449
-1615529
-1615509
-1615676
-1615855
-1615852
-1615692
-1616013
-1616125
-1615939
-1616080
-1616033
-1616083
-1616268
-1616473
-1616437
-1616460
-1616572
-1616571
-1616644
-1616895
-1616808
-1616899
-1616937
-1617188
-1617095
-1617221
-1617274
-1617144
-1617177
-1617282
-1617146
-1617079
-1617194
-1617206
-1617147
-1617298
-1617169
-1617237
-1617181
-1617090
-1617200
-1617235
-1617128
-1617323
-1617478
-1617405
-1617511
-1617601
-1617573
-1617459
-1617529
-1617483
-1617569
-1617741
-1617850
-1617994
-1617940
-1617985
-1618165
-1618103
-1617956
-1617934
-1618039
-1618060
-1618946
-1618560
-1618454
-1618366
-1618313
-1618384
-1618441
-1618458
-1618535
-1618527
-1618575
-1618694
-1618579
-1618539
-1618659
-1618784
-1618719
-1618833
-1619009
-1618846
-1618810
-1618770
-1618747
-1618872
-1618695
-1618622
-1618631
-1618494
-1618457
-1618252
-1618217
-1618213
-1617858
-1617693
-1617587
-1617386
-1617327
-1617039
-1616764
-1617616
-1616744
-1616451
-1616062
-1615830
-1615567
-1615385
-1615193
-1614900
-1614825
-1614730
-1614466
-1614306
-1613840
-1613636
-1613485
-1613396
-1613231
-1612945
-1612980
-1612824
-1612618
-1612607
-1612382
-1612370
-1612179
-1612087
-1612068
-1611960
-1611888
-1611814
-1611800
-1611856
-1611667
-1611627
-1611563
-1611541
-1611683
-1611538
-1611694
-1611587
-1611577
-1611641
-1611470
-1611408
-1611367
-1611366
-1611509
-1611425
-1611331
-1611508
-1611372
-1611375
-1611328
-1611229
-1611213
-1611211
-1612505
-1611589
-1611433
-1611269
-1611169
-1611276
-1611297
-1611298
-1611073
-1610965
-1611103
-1610898
-1610897
-1610859
-1610964
-1610781
-1611657
-1610919
-1610769
-1610686
-1610805
-1610676
-1610566
-1610634
-1610500
-1610646
-1610407
-1610553
-1610446
-1611831
-1610814
-1610451
-1610429
-1610397
-1610362
-1610313
-1610397
-1611086
-1611249
-1611526
-1611561
-1611939
-1611963
-1611913
-1611923
-1611926
-1612184
-1612334
-1612538
-1612340
-1612483
-1612395
-1612377
-1612506
-1612591
-1612545
-1612782
-1612791
-1612829
-1612887
-1613020
-1613265
-1613503
-1613361
-1613304
-1613334
-1613324
-1613507
-1613398
-1613448
-1613388
-1613566
-1613527
-1613574
-1613689
-1613789
-1613861
-1613846
-1613809
-1613740
-1613885
-1613854
-1613949
-1614005
-1613806
-1613822
-1613843
-1613996
-1613982
-1613939
-1613933
-1614153
-1614120
-1614312
-1614270
-1614419
-1614242
-1613989
-1614269
-1614336
-1614524
-1614487
-1614748
-1614820
-1614808
-1614881
-1614703
-1614724
-1614874
-1614884
-1614853
-1614968
-1615110
-1615156
-1615250
-1615350
-1615165
-1615119
-1615194
-1615211
-1615295
-1615323
-1615511
-1615593
-1615436
-1615617
-1615462
-1615550
-1615529
-1615789
-1615689
-1615769
-1615825
-1615962
-1615948
-1615982
-1615789
-1615893
-1616026
-1616102
-1616184
-1616211
-1616026
-1615983
-1616055
-1616234
-1616316
-1616304
-1616499
-1616590
-1616676
-1616609
-1616622
-1616671
-1616646
-1616689
-1616685
-1616846
-1616833
-1616951
-1617047
-1617048
-1617098
-1617400
-1617328
-1617256
-1617247
-1617529
-1617497
-1617685
-1617553
-1617657
-1617844
-1617727
-1617686
-1617768
-1617968
-1617890
-1617850
-1618066
-1618015
-1617989
-1618170
-1618110
-1618108
-1618053
-1618081
-1618350
-1618225
-1618300
-1618387
-1618416
-1618425
-1618329
-1618313
-1617904
-1618321
-1618504
-1618551
-1619360
-1618760
-1618656
-1618592
-1618832
-1618681
-1618741
-1618973
-1618972
-1618952
-1618840
-1618984
-1619098
-1619123
-1619037
-1619139
-1619147
-1619100
-1619159
-1619174
-1619262
-1619241
-1619244
-1619295
-1619408
-1619385
-1619493
-1619663
-1619516
-1619621
-1619627
-1619614
-1619530
-1619672
-1619580
-1619672
-1619527
-1619608
-1619610
-1619754
-1619717
-1619768
-1619778
-1619862
-1619962
-1620037
-1620033
-1620023
-1620133
-1620154
-1620163
-1620272
-1620182
-1620297
-1620324
-1620432
-1620550
-1620418
-1620438
-1620349
-1620377
-1620388
-1620567
-1620427
-1620504
-1620380
-1620371
-1620490
-1620713
-1620677
-1620605
-1620517
-1620533
-1620532
-1620548
-1620689
-1620630
-1620678
-1620752
-1620862
-1620774
-1620810
-1620897
-1620841
-1620848
-1620719
-1620722
-1620825
-1620726
-1620927
-1621031
-1621027
-1620938
-1620909
-1620859
-1621028
-1620838
-1620803
-1620824
-1620722
-1620512
-1620648
-1620546
-1620301
-1620279
-1620096
-1620016
-1619721
-1619589
-1619518
-1619289
-1618986
-1618688
-1618380
-1618236
-1617804
-1617731
-1617486
-1617219
-1616677
-1616588
-1616358
-1616234
-1616177
-1615415
-1615369
-1615162
-1615016
-1614960
-1614808
-1614854
-1614604
-1614355
-1614095
-1614084
-1614083
-1614036
-1614067
-1613922
-1613971
-1613853
-1613856
-1613762
-1613765
-1613744
-1613733
-1613705
-1613783
-1613641
-1613561
-1613502
-1613614
-1613646
-1613638
-1613714
-1613540
-1614637
-1613513
-1613368
-1613318
-1613338
-1613263
-1613341
-1613287
-1613187
-1613023
-1613219
-1613294
-1613115
-1612998
-1613090
-1612832
-1612919
-1612885
-1612752
-1612675
-1612707
-1612830
-1612785
-1612576
-1612547
-1612566
-1612498
-1612546
-1612721
-1612623
-1612595
-1612701
-1612673
-1612732
-1612622
-1612837
-1612861
-1612790
-1612820
-1612793
-1612948
-1612995
-1613013
-1613025
-1612955
-1613040
-1613118
-1613283
-1613347
-1613369
-1613204
-1613250
-1613264
-1613466
-1613511
-1613704
-1613620
-1613647
-1613689
-1613791
-1613730
-1613775
-1613750
-1613858
-1613668
-1613967
-1614156
-1614069
-1614192
-1614132
-1614204
-1614220
-1614166
-1614349
-1614444
-1614292
-1614256
-1614291
-1614375
-1614264
-1614439
-1614613
-1614712
-1614721
-1614732
-1614700
-1614557
-1614648
-1614546
-1614541
-1614505
-1614570
-1614647
-1614675
-1614664
-1614661
-1614738
-1614723
-1614633
-1614768
-1614950
-1614721
-1614719
-1614779
-1614698
-1614717
-1614771
-1614941
-1614805
-1614901
-1614819
-1614853
-1615053
-1614908
-1614921
-1614777
-1615020
-1615115
-1615027
-1615078
-1615087
-1615170
-1615167
-1615141
-1615060
-1615149
-1615165
-1615144
-1615192
-1615164
-1615153
-1615434
-1615331
-1615349
-1615217
-1615306
-1615326
-1615363
-1615438
-1615409
-1615587
-1615477
-1615366
-1615457
-1615538
-1615646
-1615513
-1615465
-1615553
-1615625
-1615618
-1615713
-1615924
-1615826
-1615805
-1615770
-1615917
-1616067
-1616082
-1615993
-1615924
-1616149
-1615953
-1615999
-1616003
-1616072
-1616150
-1616229
-1616140
-1616163
-1616322
-1616317
-1616232
-1616212
-1616468
-1616408
-1616378
-1616423
-1616554
-1616399
-1616603
-1616630
-1616580
-1616742
-1616330
-1616771
-1616833
-1616988
-1616849
-1616971
-1616998
-1617006
-1617125
-1617171
-1617107
-1617218
-1617252
-1617487
-1617477
-1617467
-1617577
-1617548
-1617590
-1617529
-1617536
-1617710
-1617684
-1617880
-1617825
-1617858
-1617817
-1618083
-1618030
-1618010
-1617976
-1618037
-1618061
-1618231
-1618396
-1618205
-1618443
-1618485
-1618533
-1618442
-1618467
-1618577
-1618566
-1618685
-1618611
-1618427
-1618662
-1618748
-1618799
-1619098
-1619014
-1619206
-1619106
-1619251
-1619295
-1619227
-1619415
-1619297
-1619521
-1619512
-1619408
-1619329
-1619409
-1619597
-1619532
-1619737
-1619777
-1619715
-1619754
-1619833
-1619953
-1619825
-1619875
-1619786
-1619984
-1619887
-1619918
-1620114
-1619977
-1620191
-1619923
-1620121
-1620144
-1620122
-1620179
-1620180
-1620446
-1620313
-1620491
-1620651
-1620525
-1620549
-1620610
-1620848
-1620781
-1620823
-1620858
-1621025
-1621146
-1620607
-1621140
-1621296
-1621462
-1621593
-1621530
-1621596
-1621553
-1621555
-1621886
-1621942
-1621904
-1622052
-1622012
-1622122
-1622264
-1622138
-1621995
-1622221
-1622136
-1622219
-1622186
-1622439
-1622474
-1622308
-1622303
-1622334
-1622297
-1622485
-1622488
-1622530
-1622604
-1622617
-1622768
-1622892
-1622991
-1622990
-1623059
-1622667
-1623049
-1623067
-1623269
-1623264
-1624248
-1623550
-1623349
-1623369
-1623341
-1623329
-1623574
-1623697
-1623544
-1623511
-1623648
-1623532
-1623699
-1623834
-1623835
-1623913
-1623850
-1623827
-1623841
-1623951
-1623848
-1623921
-1624046
-1624073
-1622713
-1622031
-1620896
-1620669
-1620642
-1620519
-1620030
-1619876
-1619561
-1619325
-1619103
-1618917
-1618811
-1618586
-1618477
-1618393
-1618164
-1617987
-1617721
-1617681
-1617651
-1617583
-1617674
-1617323
-1617124
-1616852
-1616714
-1616741
-1616675
-1616714
-1616395
-1616401
-1616333
-1616153
-1616050
-1615946
-1616044
-1615904
-1615788
-1615825
-1615824
-1615565
-1615523
-1615438
-1615443
-1615280
-1615263
-1615239
-1615009
-1614895
-1614618
-1614557
-1614585
-1614617
-1614489
-1614513
-1614379
-1614370
-1614311
-1614416
-1614318
-1614125
-1614202
-1614106
-1613950
-1613947
-1613909
-1613823
-1613799
-1613737
-1613606
-1613679
-1613586
-1613332
-1613505
-1613494
-1613356
-1613058
-1613149
-1613075
-1613254
-1613336
-1613262
-1613304
-1613080
-1613027
-1613193
-1613187
-1613280
-1613159
-1613305
-1613202
-1613199
-1613264
-1613018
-1613168
-1613245
-1613476
-1613505
-1613562
-1613440
-1613579
-1613554
-1613673
-1613660
-1613931
-1613916
-1614773
-1613773
-1614084
-1614038
-1613928
-1614096
-1614104
-1614203
-1614389
-1614300
-1614430
-1614387
-1614414
-1614656
-1614626
-1614790
-1614714
-1614946
-1614513
-1614723
-1614832
-1616161
-1615278
-1615090
-1614834
-1614769
-1614859
-1614849
-1614956
-1615030
-1614653
-1614688
-1614741
-1614775
-1614744
-1614768
-1614337
-1614639
-1614722
-1614703
-1614827
-1614789
-1614980
-1615058
-1614870
-1615107
-1615397
-1617206
-1617376
-1617540
-1617561
-1617419
-1617415
-1617658
-1617879
-1617868
-1617784
-1619156
-1618228
-1619075
-1618390
-1618022
-1617963
-1618050
-1618066
-1618337
-1618298
-1618367
-1618401
-1618640
-1618436
-1618476
-1618652
-1618829
-1618833
-1619014
-1618977
-1619576
-1619081
-1619078
-1619200
-1619085
-1619265
-1619142
-1619201
-1619116
-1619335
-1619200
-1619219
-1619185
-1619221
-1619456
-1619578
-1619523
-1619294
-1619393
-1619454
-1619473
-1619621
-1619577
-1619635
-1619737
-1619769
-1620065
-1620129
-1620013
-1620068
-1620276
-1620363
-1620366
-1620617
-1620709
-1620760
-1620650
-1620755
-1620790
-1620904
-1620949
-1621138
-1621140
-1621162
-1621147
-1621366
-1621375
-1621493
-1621451
-1621578
-1621613
-1621552
-1621613
-1621815
-1621904
-1621961
-1621807
-1621763
-1621813
-1621854
-1621956
-1621953
-1622082
-1622158
-1622300
-1622151
-1622427
-1622367
-1622399
-1622372
-1622310
-1621846
-1621788
-1621630
-1621664
-1621717
-1621647
-1621547
-1621405
-1621551
-1621464
-1621259
-1621242
-1621299
-1621411
-1621388
-1621296
-1621390
-1621252
-1621201
-1621292
-1621283
-1621312
-1621440
-1621418
-1621445
-1621559
-1621469
-1621639
-1621723
-1621809
-1621793
-1621802
-1621759
-1621885
-1622125
-1622210
-1622376
-1622374
-1622473
-1622414
-1622643
-1622590
-1622589
-1622825
-1622761
-1622980
-1623116
-1622994
-1623051
-1623080
-1623195
-1623309
-1623203
-1623078
-1623203
-1623433
-1623389
-1623470
-1623381
-1623352
-1623379
-1623557
-1623714
-1623635
-1623726
-1623579
-1623688
-1623747
-1623712
-1623583
-1623688
-1623701
-1623762
-1623920
-1623876
-1624030
-1624040
-1623919
-1623872
-1623908
-1623897
-1623976
-1624025
-1624143
-1624237
-1624507
-1624384
-1624415
-1624431
-1624438
-1624512
-1624757
-1624661
-1624659
-1624799
-1624706
-1624804
-1624726
-1624716
-1624681
-1624507
-1624593
-1624518
-1624582
-1624618
-1624437
-1624347
-1624302
-1624205
-1624091
-1623620
-1623548
-1623526
-1623408
-1623250
-1622945
-1622753
-1622436
-1622098
-1621919
-1621637
-1621585
-1621265
-1621057
-1620913
-1620671
-1620327
-1620210
-1619883
-1619762
-1619634
-1619517
-1619231
-1619101
-1618914
-1618895
-1618613
-1618466
-1618348
-1618311
-1618326
-1618040
-1618103
-1617958
-1617978
-1617693
-1617678
-1617693
-1617622
-1617406
-1617234
-1617329
-1617138
-1617085
-1617054
-1616786
-1616917
-1616843
-1616770
-1616522
-1616268
-1616213
-1616075
-1615991
-1616028
-1616053
-1615977
-1615809
-1615700
-1615565
-1615490
-1615452
-1615477
-1615607
-1615511
-1615344
-1615557
-1615514
-1615441
-1615415
-1615477
-1615385
-1615320
-1615567
-1615437
-1615393
-1615354
-1615456
-1615465
-1615323
-1615337
-1615398
-1615334
-1615306
-1615258
-1615142
-1615130
-1615062
-1614970
-1614850
-1614777
-1614729
-1614536
-1614512
-1614466
-1614488
-1614364
-1614460
-1614386
-1614417
-1614268
-1614175
-1614290
-1614244
-1614436
-1614303
-1614186
-1614130
-1614118
-1614263
-1614205
-1614169
-1614195
-1614192
-1614261
-1614339
-1614439
-1614470
-1614551
-1614564
-1614500
-1614681
-1614592
-1614678
-1614586
-1614677
-1614662
-1614829
-1614788
-1614897
-1614819
-1614907
-1614993
-1615029
-1614986
-1615016
-1614993
-1615104
-1614968
-1614970
-1614926
-1615094
-1615054
-1615041
-1615064
-1615085
-1615087
-1614997
-1615041
-1615211
-1615003
-1615138
-1615017
-1615028
-1615031
-1614955
-1614994
-1614928
-1614976
-1614895
-1614942
-1615137
-1615185
-1615080
-1615258
-1615260
-1615239
-1615387
-1615422
-1615353
-1615410
-1615414
-1615560
-1615731
-1615679
-1615505
-1615621
-1615456
-1615525
-1615490
-1615579
-1615594
-1615573
-1615680
-1615819
-1615734
-1615850
-1615857
-1615958
-1616001
-1615935
-1615894
-1615990
-1616026
-1616076
-1616035
-1616299
-1616219
-1616316
-1616446
-1616574
-1616502
-1616648
-1616630
-1616819
-1616650
-1616885
-1616818
-1616922
-1617111
-1617117
-1617221
-1617176
-1617360
-1617306
-1617273
-1617276
-1617414
-1617551
-1617598
-1617565
-1617689
-1617872
-1617720
-1617686
-1617858
-1617879
-1617934
-1618021
-1617922
-1618042
-1618089
-1618033
-1618034
-1618019
-1618177
-1618041
-1618199
-1618177
-1618267
-1618524
-1618574
-1618514
-1618699
-1618771
-1618785
-1618999
-1618929
-1619009
-1619123
-1619278
-1619355
-1619260
-1619311
-1619511
-1619504
-1619591
-1619781
-1619858
-1619900
-1619851
-1619727
-1619768
-1619975
-1619857
-1619877
-1620041
-1619892
-1619836
-1620041
-1619955
-1619994
-1620153
-1620084
-1619972
-1620055
-1620198
-1620107
-1620344
-1620448
-1620442
-1620423
-1620361
-1620429
-1620702
-1620508
-1620763
-1620854
-1620793
-1620739
-1620802
-1620996
-1621129
-1621062
-1621017
-1621166
-1621146
-1621076
-1621092
-1621142
-1621110
-1621051
-1621200
-1621288
-1621412
-1621405
-1621365
-1621193
-1621356
-1621349
-1621102
-1621143
-1621146
-1621176
-1621117
-1621076
-1621213
-1621312
-1621157
-1621370
-1621199
-1621132
-1621183
-1621362
-1621257
-1621149
-1621177
-1621270
-1621453
-1621373
-1621452
-1621684
-1621538
-1621531
-1621570
-1621689
-1621809
-1621743
-1621783
-1621898
-1621873
-1621751
-1622019
-1622082
-1621962
-1622138
-1622106
-1622184
-1622085
-1622200
-1622214
-1622345
-1622281
-1622432
-1622536
-1622381
-1622436
-1622329
-1622468
-1622388
-1622521
-1622537
-1622635
-1622690
-1622635
-1622644
-1622529
-1622633
-1622648
-1622696
-1622637
-1622507
-1622593
-1622606
-1622652
-1622536
-1622613
-1622640
-1622538
-1622505
-1622564
-1622640
-1622690
-1622605
-1622612
-1622781
-1622866
-1622889
-1622964
-1623007
-1622893
-1623045
-1622927
-1623142
-1623094
-1623160
-1623027
-1623181
-1623312
-1623389
-1623278
-1623319
-1623343
-1623339
-1623491
-1623480
-1623555
-1623640
-1623709
-1623684
-1623624
-1623844
-1623821
-1623897
-1623946
-1623974
-1623881
-1623903
-1623829
-1623962
-1624275
-1624176
-1624167
-1624279
-1624425
-1624457
-1624406
-1624456
-1624462
-1624571
-1624756
-1624935
-1624721
-1624770
-1624750
-1624908
-1624835
-1624750
-1624879
-1625018
-1624959
-1625091
-1624985
-1624999
-1624974
-1625113
-1625108
-1625062
-1625086
-1625314
-1625455
-1625378
-1625306
-1625324
-1625320
-1625479
-1625461
-1625501
-1625602
-1625826
-1625944
-1625851
-1625738
-1625692
-1625954
-1626024
-1625834
-1626116
-1626255
-1626030
-1626111
-1626036
-1626070
-1626007
-1626054
-1626003
-1625953
-1625640
-1625562
-1625690
-1625474
-1625352
-1625221
-1625109
-1624728
-1624550
-1624455
-1624119
-1624012
-1623794
-1623658
-1623415
-1623021
-1622673
-1622569
-1622214
-1622171
-1622036
-1621942
-1621771
-1621553
-1621351
-1621138
-1620904
-1620636
-1620453
-1620584
-1620384
-1620181
-1620108
-1620070
-1620038
-1619902
-1619658
-1619430
-1619370
-1619389
-1619334
-1619237
-1619136
-1618936
-1618988
-1618845
-1618768
-1618824
-1618638
-1618632
-1618549
-1618559
-1618625
-1618521
-1618305
-1618253
-1618335
-1618128
-1618053
-1618068
-1617928
-1617991
-1617838
-1617945
-1617864
-1617688
-1617704
-1617440
-1617493
-1617363
-1617197
-1617180
-1617119
-1616968
-1616819
-1616910
-1616918
-1616879
-1616358
-1616664
-1616563
-1616575
-1616610
-1616701
-1616504
-1616667
-1616731
-1616659
-1616440
-1616485
-1616604
-1616699
-1616603
-1616427
-1616522
-1616411
-1616490
-1616313
-1616421
-1616010
-1616220
-1616306
-1616333
-1616311
-1616201
-1616161
-1616204
-1616324
-1616333
-1616420
-1616362
-1616358
-1616478
-1616493
-1616538
-1616736
-1616737
-1616965
-1617055
-1617246
-1617240
-1617164
-1617255
-1617237
-1617365
-1617322
-1617300
-1617652
-1617591
-1617560
-1617742
-1617773
-1617780
-1617810
-1617806
-1617844
-1618054
-1617915
-1618105
-1617985
-1618065
-1618114
-1618004
-1617939
-1617642
-1617972
-1618154
-1618072
-1617926
-1618050
-1617987
-1617702
-1617789
-1617688
-1617914
-1617968
-1617937
-1617747
-1617730
-1617859
-1617673
-1617764
-1617852
-1617772
-1617719
-1617606
-1617670
-1617604
-1617530
-1617493
-1617739
-1617483
-1617658
-1617593
-1617577
-1617680
-1617778
-1617829
-1617781
-1617858
-1617944
-1617895
-1617837
-1617789
-1617929
-1618077
-1618114
-1618007
-1618268
-1618299
-1618339
-1618266
-1618457
-1618487
-1618568
-1618510
-1618583
-1618590
-1618565
-1618815
-1618825
-1618901
-1619071
-1618929
-1619189
-1618998
-1618979
-1619156
-1619165
-1619200
-1619248
-1619408
-1619191
-1619172
-1619323
-1619244
-1618965
-1619050
-1619330
-1619347
-1619235
-1619294
-1619265
-1619445
-1619257
-1619475
-1619309
-1619338
-1619319
-1619613
-1619510
-1620689
-1621051
-1620157
-1619944
-1619800
-1619497
-1619833
-1619988
-1620221
-1620062
-1620259
-1620243
-1620461
-1620496
-1620370
-1620345
-1620366
-1620450
-1620542
-1620743
-1620643
-1620761
-1620811
-1620879
-1621006
-1621310
-1621188
-1621459
-1621381
-1621573
-1621485
-1621587
-1621807
-1621809
-1621702
-1621742
-1621723
-1621745
-1621951
-1622006
-1622120
-1622081
-1622166
-1622243
-1622201
-1622167
-1622178
-1622372
-1622282
-1622367
-1622522
-1622585
-1622533
-1622694
-1622753
-1622673
-1622739
-1622875
-1622979
-1623165
-1623073
-1623024
-1623101
-1623111
-1623061
-1623233
-1623370
-1623520
-1623456
-1623323
-1623284
-1623511
-1623464
-1623367
-1623388
-1623365
-1623459
-1623515
-1623429
-1623421
-1623474
-1623372
-1623311
-1623364
-1623333
-1623533
-1623617
-1623369
-1623489
-1623400
-1623607
-1623543
-1623556
-1624791
-1624847
-1624800
-1624975
-1624915
-1625067
-1625100
-1625090
-1625140
-1625224
-1625477
-1625558
-1625556
-1625668
-1625665
-1625676
-1625565
-1625665
-1625742
-1625716
-1625724
-1625843
-1625736
-1625861
-1625728
-1625768
-1625770
-1625975
-1625964
-1625919
-1625913
-1626134
-1626022
-1626168
-1626018
-1626093
-1626158
-1626200
-1626221
-1626353
-1626306
-1626213
-1626409
-1626462
-1626359
-1626363
-1626609
-1626698
-1626574
-1626677
-1626702
-1626769
-1626922
-1626962
-1626914
-1626950
-1626658
-1626968
-1626866
-1626932
-1626945
-1626996
-1627146
-1627004
-1626951
-1627160
-1627102
-1627244
-1627177
-1627149
-1627238
-1626999
-1627025
-1627023
-1627070
-1627245
-1627186
-1627071
-1626969
-1627242
-1627064
-1627033
-1627221
-1627222
-1627012
-1626988
-1626901
-1626764
-1626736
-1626121
-1625950
-1625742
-1625752
-1625518
-1624908
-1624715
-1624654
-1624247
-1623970
-1623947
-1623750
-1623443
-1623019
-1622787
-1622445
-1622243
-1621975
-1621692
-1621686
-1621513
-1621295
-1621006
-1620747
-1620448
-1620240
-1620071
-1619794
-1619561
-1619507
-1619376
-1619185
-1619114
-1618899
-1618865
-1618757
-1618963
-1618866
-1618593
-1618712
-1618535
-1618494
-1618607
-1618456
-1618386
-1618384
-1618474
-1618327
-1618270
-1618303
-1618253
-1618208
-1618161
-1618258
-1618392
-1618464
-1618387
-1618380
-1618356
-1618366
-1618465
-1618481
-1619111
-1618475
-1618469
-1618298
-1618395
-1618383
-1618319
-1618210
-1617845
-1617820
-1617874
-1617634
-1617557
-1617651
-1617640
-1617264
-1617287
-1617042
-1617045
-1616808
-1616971
-1616936
-1616782
-1616630
-1616761
-1616423
-1616350
-1616337
-1616173
-1616089
-1616054
-1615957
-1615872
-1615819
-1615848
-1615474
-1615553
-1615589
-1615530
-1615497
-1615392
-1615567
-1615417
-1615436
-1615382
-1615554
-1615373
-1615289
-1615380
-1615547
-1615669
-1615676
-1615556
-1615693
-1615655
-1615631
-1615598
-1615564
-1615801
-1615804
-1615826
-1615875
-1615945
-1615882
-1615889
-1615849
-1616025
-1616098
-1616215
-1616325
-1616248
-1616207
-1616349
-1616556
-1616505
-1616304
-1616358
-1616572
-1616478
-1616493
-1616211
-1616402
-1616597
-1616536
-1616671
-1616654
-1616553
-1616533
-1616474
-1616492
-1616545
-1616669
-1616458
-1616425
-1616078
-1616388
-1616458
-1616450
-1616429
-1616299
-1616059
-1616150
-1616108
-1616182
-1615962
-1615839
-1615887
-1615855
-1615831
-1615580
-1615645
-1615633
-1615588
-1615610
-1615328
-1615405
-1615387
-1615354
-1615182
-1615260
-1615531
-1615767
-1616219
-1616404
-1616553
-1616854
-1616973
-1617044
-1616972
-1616955
-1616974
-1617220
-1617084
-1617213
-1617151
-1617323
-1617195
-1617297
-1617428
-1617402
-1617557
-1617535
-1617610
-1617688
-1617738
-1617876
-1617741
-1617821
-1617857
-1617824
-1617832
-1617850
-1617911
-1618006
-1618039
-1618132
-1618225
-1618320
-1618263
-1618292
-1618475
-1618498
-1618359
-1618574
-1618476
-1618675
-1618712
-1618543
-1618783
-1618899
-1618965
-1618773
-1618894
-1618771
-1618917
-1618937
-1618832
-1618422
-1618929
-1619051
-1619084
-1619116
-1619269
-1619331
-1619406
-1619368
-1619441
-1619504
-1619545
-1619715
-1619750
-1619744
-1619695
-1619736
-1619755
-1619937
-1619925
-1620102
-1620033
-1620123
-1620163
-1620367
-1620384
-1620446
-1620549
-1620456
-1620645
-1620766
-1620683
-1620775
-1620879
-1620897
-1621238
-1621182
-1620735
-1621362
-1621434
-1621388
-1621398
-1621630
-1621697
-1621759
-1621676
-1621821
-1621870
-1621683
-1621794
-1621829
-1621912
-1621914
-1622001
-1622156
-1622261
-1622186
-1622077
-1622083
-1622465
-1622345
-1622491
-1622515
-1622611
-1622494
-1622685
-1622746
-1622789
-1622657
-1622787
-1622942
-1623030
-1623146
-1623214
-1623180
-1623170
-1623377
-1623373
-1623515
-1623619
-1623684
-1623665
-1623691
-1623773
-1623783
-1623738
-1623951
-1623860
-1623869
-1623916
-1623952
-1623910
-1624143
-1624037
-1623984
-1623962
-1624005
-1624091
-1624090
-1624027
-1623992
-1624022
-1624037
-1624079
-1624031
-1624313
-1624347
-1624496
-1624478
-1624635
-1624565
-1624654
-1624785
-1624713
-1624727
-1624759
-1624840
-1624919
-1624962
-1625061
-1625188
-1625132
-1625176
-1625205
-1625360
-1625575
-1625383
-1625504
-1625787
-1625804
-1625819
-1625960
-1625896
-1625967
-1626002
-1626069
-1626129
-1626391
-1626401
-1626324
-1626503
-1626590
-1626503
-1626530
-1626666
-1626514
-1626366
-1626442
-1626590
-1626705
-1626521
-1626644
-1626539
-1626548
-1626543
-1626504
-1626497
-1626540
-1626589
-1626733
-1626905
-1626801
-1626881
-1626902
-1627194
-1627104
-1627184
-1627227
-1627318
-1627473
-1627571
-1627328
-1627439
-1627495
-1627482
-1626954
-1627313
-1627412
-1627455
-1627685
-1627526
-1627648
-1627576
-1627636
-1628494
-1627959
-1627691
-1627706
-1627738
-1627765
-1627807
-1627628
-1627711
-1627751
-1627832
-1628072
-1627941
-1628186
-1628135
-1628090
-1628162
-1628276
-1628445
-1628413
-1628312
-1628247
-1628378
-1628267
-1628440
-1628449
-1628568
-1628438
-1628420
-1628559
-1628608
-1628411
-1628446
-1628628
-1628559
-1628570
-1628567
-1628702
-1628641
-1628632
-1628676
-1628882
-1628873
-1628956
-1628832
-1628892
-1629054
-1629036
-1628937
-1628859
-1629059
-1629119
-1629082
-1629188
-1628977
-1629064
-1629016
-1629050
-1628888
-1628794
-1628925
-1628730
-1629361
-1628933
-1628644
-1628283
-1627805
-1627747
-1627589
-1627525
-1627357
-1627288
-1627088
-1626968
-1626672
-1626297
-1626201
-1625995
-1625735
-1625620
-1625342
-1625073
-1625061
-1624721
-1624520
-1624481
-1624208
-1623931
-1623843
-1623556
-1623592
-1623440
-1623284
-1623168
-1623066
-1622739
-1622623
-1622465
-1622314
-1622320
-1622033
-1622097
-1621928
-1621900
-1621783
-1621787
-1621613
-1621428
-1621355
-1621290
-1621293
-1621178
-1621050
-1621106
-1620949
-1620974
-1620992
-1620570
-1620726
-1620709
-1620705
-1620830
-1620647
-1620501
-1620540
-1620496
-1620652
-1620639
-1620392
-1620451
-1620291
-1620273
-1620107
-1620267
-1620115
-1620118
-1620073
-1620150
-1619950
-1619869
-1619862
-1619849
-1619882
-1619710
-1619583
-1619592
-1619632
-1619518
-1619472
-1619510
-1619337
-1619341
-1619236
-1619091
-1619168
-1619265
-1619175
-1619117
-1619047
-1618946
-1618927
-1619014
-1618890
-1618810
-1618771
-1618887
-1618978
-1618731
-1618726
-1618617
-1618705
-1618578
-1618704
-1618604
-1618678
-1618794
-1618746
-1618659
-1618501
-1618566
-1618542
-1618523
-1618744
-1619299
-1618836
-1618665
-1618705
-1618869
-1618761
-1618539
-1618760
-1618860
-1618829
-1619092
-1618976
-1618918
-1619029
-1619257
-1619310
-1619193
-1619158
-1619214
-1619454
-1619422
-1619462
-1619428
-1619627
-1619472
-1619436
-1619510
-1619451
-1619562
-1619570
-1619610
-1619518
-1619558
-1619596
-1619569
-1619595
-1619549
-1619578
-1619660
-1619677
-1619603
-1619694
-1619718
-1619589
-1619502
-1619498
-1619657
-1619703
-1619529
-1619541
-1619650
-1619841
-1619947
-1619821
-1619948
-1620048
-1620041
-1620126
-1620191
-1620171
-1620167
-1620132
-1620106
-1620077
-1619982
-1620052
-1620121
-1620161
-1620266
-1620364
-1620195
-1620178
-1620207
-1620125
-1620426
-1620317
-1620401
-1620348
-1620329
-1620316
-1620327
-1620263
-1620266
-1620436
-1620403
-1620516
-1620520
-1620542
-1620698
-1620560
-1620508
-1620448
-1620467
-1620372
-1620637
-1620549
-1620742
-1620803
-1620853
-1620869
-1620764
-1620725
-1620722
-1620835
-1620879
-1620804
-1621052
-1620932
-1620996
-1621094
-1621114
-1621121
-1621217
-1621343
-1621484
-1621289
-1621265
-1621310
-1621351
-1621236
-1621439
-1621398
-1621376
-1621087
-1621335
-1621471
-1621562
-1621707
-1621592
-1621696
-1621694
-1621574
-1621782
-1621816
-1621740
-1621826
-1621817
-1621843
-1621731
-1621846
-1621843
-1621854
-1621970
-1621930
-1622004
-1622019
-1622023
-1622095
-1621976
-1622093
-1622252
-1622238
-1622184
-1622396
-1622226
-1622244
-1622344
-1622349
-1622329
-1622511
-1622492
-1622586
-1622600
-1622640
-1622621
-1622599
-1622706
-1622836
-1622761
-1622985
-1622929
-1622892
-1622874
-1623041
-1623226
-1623312
-1623254
-1623258
-1623307
-1623383
-1623489
-1623575
-1623754
-1623809
-1623719
-1623834
-1623983
-1623902
-1624064
-1624112
-1624015
-1623964
-1624198
-1624013
-1623976
-1623865
-1623891
-1624027
-1624159
-1624072
-1624172
-1623968
-1623901
-1623836
-1623819
-1623875
-1623916
-1623904
-1623981
-1625070
-1624498
-1623932
-1624210
-1624175
-1624241
-1624365
-1624448
-1624333
-1624469
-1624538
-1624524
-1624546
-1624600
-1624667
-1624710
-1624801
-1624465
-1624879
-1624890
-1624936
-1625035
-1624958
-1625118
-1625191
-1625184
-1625090
-1625208
-1625188
-1625199
-1625382
-1625416
-1625507
-1625397
-1625673
-1625508
-1625673
-1625759
-1625767
-1625798
-1625843
-1625883
-1625915
-1626031
-1625915
-1626081
-1626135
-1626292
-1626425
-1626596
-1626760
-1626697
-1626725
-1626940
-1626879
-1626900
-1626972
-1626995
-1627195
-1627158
-1627067
-1627013
-1627001
-1627157
-1627141
-1627234
-1627323
-1627254
-1627474
-1627468
-1627492
-1627364
-1627609
-1627481
-1627500
-1627544
-1627594
-1627563
-1627702
-1627696
-1627715
-1627837
-1627950
-1627930
-1627976
-1627834
-1628022
-1627960
-1627938
-1628117
-1628018
-1628941
-1628514
-1628224
-1628284
-1628105
-1628107
-1628189
-1628317
-1628128
-1628122
-1628157
-1628122
-1628088
-1628132
-1628429
-1628271
-1628484
-1628326
-1628476
-1628385
-1628367
-1628436
-1628454
-1628412
-1628623
-1628645
-1628951
-1628817
-1628833
-1628878
-1629052
-1628758
-1629202
-1629326
-1629283
-1629254
-1629461
-1629556
-1629673
-1629744
-1629592
-1629560
-1629616
-1629679
-1629758
-1629778
-1629881
-1629875
-1629815
-1629879
-1629762
-1629896
-1629750
-1629801
-1629767
-1629738
-1629645
-1629713
-1629715
-1629799
-1629778
-1629601
-1629429
-1629517
-1629376
-1629427
-1629111
-1629020
-1628877
-1628779
-1628554
-1628391
-1628320
-1628237
-1628048
-1627924
-1627616
-1627372
-1627240
-1626914
-1626776
-1626555
-1626343
-1626129
-1625802
-1625528
-1625286
-1625075
-1624787
-1624598
-1624425
-1624051
-1624095
-1623899
-1623790
-1623608
-1623348
-1623178
-1623216
-1622973
-1622862
-1622778
-1622684
-1622493
-1622402
-1622337
-1622204
-1622239
-1622131
-1621985
-1621992
-1622042
-1621875
-1621849
-1621779
-1621762
-1621803
-1621722
-1621748
-1621833
-1621611
-1621657
-1621489
-1621505
-1621390
-1621443
-1621333
-1621061
-1620998
-1620873
-1620699
-1620567
-1620510
-1620552
-1620077
-1620205
-1620098
-1620020
-1620172
-1620069
-1620075
-1619922
-1620077
-1620200
-1620230
-1620167
-1620038
-1620014
-1619986
-1620019
-1620107
-1619968
-1620074
-1620104
-1620324
-1620075
-1620200
-1620093
-1620017
-1619999
-1619989
-1619979
-1620068
-1619971
-1619942
-1619893
-1619831
-1619751
-1619809
-1619735
-1619627
-1619607
-1619747
-1619743
-1619654
-1619753
-1619643
-1619726
-1619623
-1619748
-1619724
-1619954
-1619847
-1620112
-1620019
-1619938
-1620156
-1620075
-1620345
-1620513
-1620640
-1620724
-1620649
-1620753
-1620954
-1620988
-1621221
-1621367
-1621317
-1621352
-1621547
-1621694
-1621816
-1621888
-1621848
-1622019
-1622106
-1622127
-1622226
-1622319
-1622208
-1622217
-1622380
-1622308
-1622288
-1622193
-1622341
-1622251
-1622230
-1622021
-1622054
-1622117
-1621965
-1622021
-1621973
-1621816
-1621611
-1621586
-1621402
-1621441
-1621606
-1621797
-1621621
-1621665
-1621572
-1621649
-1621528
-1621713
-1621527
-1621460
-1621449
-1621286
-1621221
-1621282
-1621428
-1621435
-1621478
-1621686
-1621817
-1621887
-1621955
-1622749
-1622200
-1622013
-1622070
-1622108
-1622095
-1622228
-1622209
-1622364
-1622394
-1622439
-1622545
-1622632
-1622797
-1622918
-1622845
-1622873
-1622994
-1622965
-1623133
-1623113
-1623016
-1622981
-1623187
-1623116
-1623270
-1623136
-1623112
-1623197
-1623051
-1622903
-1622926
-1623025
-1623202
-1623046
-1623168
-1623092
-1623321
-1623208
-1623266
-1623413
-1623313
-1623217
-1623207
-1623107
-1622783
-1622764
-1623097
-1623122
-1623282
-1623273
-1623186
-1623280
-1623281
-1623510
-1623375
-1623413
-1623473
-1623509
-1623732
-1623861
-1623846
-1623750
-1623706
-1623689
-1623865
-1623763
-1623786
-1623822
-1623792
-1623822
-1623787
-1623860
-1624116
-1624086
-1624158
-1624336
-1624334
-1624346
-1624488
-1624670
-1624738
-1624862
-1624764
-1624680
-1624786
-1624797
-1625039
-1624908
-1624909
-1625118
-1624990
-1625198
-1625120
-1625148
-1625128
-1625124
-1625195
-1625127
-1625043
-1625038
-1625023
-1624953
-1624972
-1625017
-1625032
-1625071
-1625180
-1625140
-1625362
-1625315
-1625340
-1625395
-1625519
-1625572
-1625546
-1625701
-1625720
-1625788
-1626005
-1625908
-1625923
-1625945
-1625996
-1626094
-1626289
-1626410
-1626531
-1626513
-1626539
-1626707
-1626764
-1627753
-1627065
-1626977
-1626887
-1626971
-1626901
-1626863
-1626848
-1626833
-1626780
-1626905
-1626808
-1626897
-1627030
-1626944
-1626984
-1627064
-1627126
-1627174
-1627223
-1627170
-1627213
-1627204
-1627382
-1627278
-1627329
-1627295
-1627332
-1627501
-1627595
-1627528
-1627490
-1627737
-1627615
-1627721
-1627857
-1628101
-1628229
-1628295
-1628221
-1628373
-1628583
-1628460
-1628395
-1628433
-1628463
-1628530
-1628678
-1628902
-1628875
-1628818
-1628724
-1628883
-1628896
-1628857
-1628971
-1628890
-1628991
-1629001
-1628983
-1629214
-1629169
-1629173
-1629049
-1629086
-1629100
-1629240
-1629309
-1629173
-1629391
-1629309
-1629338
-1629572
-1629489
-1629491
-1629468
-1629617
-1629794
-1629941
-1629851
-1629822
-1629858
-1629789
-1629959
-1630103
-1630020
-1630054
-1630096
-1630256
-1631380
-1630618
-1630374
-1630300
-1630347
-1630506
-1630419
-1630294
-1630202
-1630019
-1630023
-1629969
-1629728
-1629793
-1629510
-1629213
-1626999
-1628350
-1628505
-1628380
-1628174
-1628219
-1627921
-1627728
-1627422
-1627009
-1626929
-1626661
-1626377
-1625929
-1625737
-1625733
-1625366
-1625288
-1624931
-1624441
-1624216
-1624250
-1623918
-1623883
-1623624
-1623533
-1623343
-1623147
-1623021
-1622956
-1622692
-1622483
-1622404
-1622415
-1622370
-1622295
-1622224
-1622100
-1622068
-1621923
-1621654
-1621519
-1621623
-1621577
-1621460
-1621374
-1621379
-1621374
-1621206
-1621069
-1621060
-1620966
-1621121
-1620487
-1620819
-1620842
-1620845
-1620950
-1620907
-1620718
-1620811
-1620660
-1620588
-1620462
-1620376
-1620306
-1620474
-1620319
-1620150
-1620118
-1620040
-1619918
-1619808
-1619922
-1619864
-1619962
-1619767
-1619527
-1619393
-1619271
-1619198
-1619058
-1619191
-1619131
-1618994
-1618908
-1618902
-1618977
-1618863
-1618770
-1618901
-1618728
-1618608
-1618649
-1618600
-1618457
-1618560
-1618493
-1618508
-1618630
-1618465
-1618552
-1618525
-1618415
-1618302
-1618224
-1618124
-1618086
-1617982
-1618032
-1617773
-1617725
-1617763
-1617924
-1617807
-1617830
-1617934
-1617824
-1617672
-1617670
-1617593
-1618986
-1617963
-1617845
-1617754
-1617870
-1617585
-1617600
-1617753
-1617761
-1617685
-1617854
-1617683
-1617547
-1617727
-1617751
-1617886
-1617777
-1618013
-1617890
-1617938
-1617942
-1617992
-1617991
-1617924
-1618036
-1618041
-1618130
-1618209
-1618190
-1618311
-1618474
-1618456
-1618396
-1618540
-1618634
-1618794
-1618688
-1618834
-1618671
-1618702
-1618768
-1618883
-1618798
-1618876
-1618857
-1618903
-1619109
-1619088
-1618983
-1619218
-1619343
-1619323
-1619380
-1619326
-1619371
-1619314
-1620775
-1621097
-1621336
-1621481
-1621487
-1621562
-1621610
-1621577
-1621695
-1621538
-1621671
-1621703
-1621496
-1621255
-1621264
-1621232
-1621227
-1621255
-1621292
-1621225
-1621275
-1621481
-1621390
-1621273
-1621453
-1621480
-1621587
-1621351
-1621410
-1621441
-1621352
-1621366
-1621324
-1621361
-1621395
-1621361
-1621404
-1621236
-1621193
-1621167
-1621176
-1621325
-1621139
-1621040
-1621114
-1620968
-1620905
-1620945
-1620914
-1620854
-1620836
-1620722
-1620596
-1620689
-1620617
-1620446
-1620392
-1620275
-1620258
-1620331
-1620262
-1620237
-1620136
-1620123
-1620079
-1619999
-1620067
-1620005
-1620024
-1620183
-1620313
-1620157
-1620087
-1620120
-1620297
-1620300
-1620391
-1620435
-1620474
-1620594
-1620601
-1620787
-1620917
-1620556
-1620900
-1621037
-1620960
-1620986
-1621165
-1621178
-1621354
-1621391
-1621519
-1621449
-1621825
-1621953
-1621981
-1621879
-1621861
-1621864
-1621887
-1621921
-1622174
-1622273
-1622202
-1622218
-1622289
-1622467
-1622576
-1622629
-1622735
-1622594
-1622810
-1622793
-1622705
-1622908
-1622963
-1622942
-1622981
-1622947
-1623050
-1623165
-1623174
-1623206
-1623379
-1623372
-1623472
-1623429
-1623481
-1623715
-1623863
-1623811
-1623971
-1623925
-1624101
-1623988
-1624220
-1624285
-1624288
-1624243
-1624179
-1624254
-1624361
-1624401
-1625156
-1624743
-1624728
-1624543
-1625840
-1624890
-1624865
-1624790
-1624740
-1624931
-1624919
-1624978
-1624437
-1624783
-1624720
-1624975
-1625172
-1625153
-1625149
-1625137
-1625248
-1625267
-1625417
-1625444
-1625490
-1625432
-1625326
-1625537
-1625538
-1625410
-1625294
-1625405
-1625371
-1625504
-1625487
-1625269
-1625438
-1625500
-1625345
-1625326
-1625302
-1625502
-1625516
-1625489
-1625484
-1625612
-1625430
-1625438
-1625295
-1625371
-1625409
-1625359
-1625541
-1625367
-1625246
-1625391
-1625383
-1625399
-1625478
-1625510
-1625521
-1625561
-1625536
-1625658
-1625675
-1625585
-1625684
-1625728
-1625680
-1625663
-1625791
-1625874
-1625823
-1625892
-1625891
-1625912
-1625951
-1626023
-1626039
-1626023
-1626245
-1626209
-1626186
-1626098
-1626318
-1626326
-1626283
-1626302
-1626289
-1626343
-1626203
-1626258
-1626314
-1626233
-1625947
-1625910
-1625681
-1625657
-1625659
-1625437
-1625374
-1625126
-1624933
-1624820
-1624556
-1624354
-1624301
-1624135
-1623866
-1623628
-1623426
-1623229
-1623013
-1622692
-1622477
-1622348
-1622083
-1621763
-1621572
-1621332
-1621309
-1621096
-1621001
-1620613
-1620366
-1620119
-1619897
-1619692
-1619582
-1619539
-1619415
-1619436
-1619355
-1619266
-1619177
-1619222
-1618933
-1618696
-1618743
-1618666
-1618663
-1618604
-1618292
-1618159
-1618137
-1617851
-1617790
-1617042
-1617209
-1617355
-1617161
-1616998
-1616937
-1616809
-1617002
-1616815
-1616828
-1616110
-1616463
-1616451
-1616376
-1616314
-1616343
-1616028
-1615617
-1615769
-1615744
-1615501
-1615434
-1615328
-1615410
-1615404
-1615200
-1615091
-1615072
-1615114
-1614912
-1614924
-1614810
-1614731
-1614597
-1614507
-1614470
-1614588
-1614501
-1614421
-1614449
-1614403
-1614269
-1614199
-1614110
-1614119
-1614146
-1614049
-1613985
-1614086
-1614002
-1613997
-1613986
-1613995
-1613864
-1613824
-1613845
-1614704
-1613939
-1613864
-1613861
-1613539
-1613436
-1613415
-1613374
-1613234
-1613252
-1613113
-1613130
-1613211
-1613044
-1613148
-1613048
-1613117
-1613029
-1612981
-1612790
-1612970
-1612762
-1612750
-1612658
-1612617
-1612747
-1612579
-1612548
-1612774
-1612660
-1612510
-1612533
-1612551
-1612574
-1612577
-1612702
-1612565
-1612734
-1612694
-1612710
-1612893
-1612912
-1613038
-1612974
-1613119
-1613206
-1613413
-1613494
-1613456
-1613737
-1613723
-1613986
-1614050
-1614048
-1614085
-1614398
-1614425
-1614345
-1614415
-1614601
-1614295
-1614757
-1614900
-1614787
-1614797
-1614861
-1615606
-1614961
-1614977
-1614950
-1614737
-1614802
-1614714
-1614763
-1614616
-1614688
-1614565
-1614353
-1614344
-1614251
-1614324
-1614253
-1614357
-1614347
-1614433
-1614467
-1614476
-1614442
-1614356
-1614415
-1614279
-1614242
-1614181
-1614382
-1614522
-1614485
-1614389
-1614496
-1614429
-1614549
-1614407
-1614423
-1614377
-1614598
-1614763
-1614835
-1614517
-1614467
-1614439
-1614403
-1614373
-1614465
-1614413
-1614351
-1614554
-1614533
-1614558
-1614536
-1614525
-1614604
-1614608
-1614565
-1614507
-1614672
-1614602
-1614813
-1614700
-1614692
-1614768
-1614801
-1614864
-1614905
-1615053
-1614996
-1615051
-1615075
-1615047
-1615102
-1615208
-1615188
-1615272
-1615412
-1615414
-1615353
-1615343
-1615402
-1615571
-1615643
-1615609
-1615458
-1615473
-1615678
-1615794
-1615725
-1615761
-1615779
-1615801
-1615997
-1615861
-1615809
-1615877
-1615878
-1615934
-1615990
-1616085
-1616262
-1616400
-1616293
-1616498
-1616424
-1616422
-1616445
-1616713
-1616917
-1616950
-1616959
-1617076
-1616933
-1617013
-1617190
-1617163
-1617258
-1617274
-1617282
-1617213
-1617284
-1617320
-1617454
-1617526
-1617532
-1617623
-1617569
-1617550
-1617533
-1617709
-1617812
-1617860
-1617783
-1617873
-1618107
-1618036
-1618207
-1618233
-1618289
-1618299
-1618313
-1618555
-1618563
-1618659
-1618700
-1618831
-1618751
-1618743
-1618724
-1618756
-1618773
-1618956
-1618724
-1618731
-1618694
-1618706
-1618437
-1618404
-1618375
-1618350
-1618352
-1618318
-1618503
-1618362
-1618559
-1618384
-1618354
-1618356
-1618369
-1618302
-1618533
-1618418
-1618567
-1618318
-1618358
-1618497
-1618585
-1618466
-1618357
-1618533
-1618523
-1618613
-1618723
-1618471
-1618495
-1618455
-1618625
-1618715
-1618757
-1619004
-1618858
-1619091
-1619197
-1619159
-1619187
-1619285
-1619074
-1619286
-1619163
-1619240
-1619254
-1619303
-1619347
-1619199
-1619132
-1619231
-1619245
-1619286
-1619272
-1619490
-1619477
-1619566
-1619608
-1619514
-1619535
-1619664
-1619299
-1619586
-1619778
-1619902
-1620192
-1620079
-1620327
-1620310
-1620538
-1620553
-1620667
-1620312
-1620246
-1620099
-1620257
-1620369
-1620182
-1620235
-1620110
-1620076
-1620354
-1620152
-1620118
-1620125
-1620163
-1620110
-1620359
-1620455
-1620313
-1620279
-1620264
-1620414
-1620450
-1620304
-1620261
-1620404
-1620275
-1620393
-1620359
-1620525
-1620502
-1620515
-1620374
-1620314
-1620292
-1620139
-1620084
-1619840
-1619684
-1619636
-1619094
-1618761
-1617094
-1616543
-1615151
-1613850
-1613578
-1613423
-1613194
-1613130
-1612849
-1612715
-1612504
-1612318
-1612276
-1612172
-1611932
-1611857
-1611602
-1611423
-1611280
-1611077
-1610899
-1610731
-1610595
-1610575
-1610692
-1610671
-1610530
-1610640
-1610497
-1610643
-1610626
-1610608
-1610590
-1610776
-1610800
-1610836
-1610485
-1610164
-1609875
-1609746
-1609513
-1609439
-1609238
-1608996
-1608851
-1608711
-1608623
-1608529
-1608375
-1608059
-1608070
-1607927
-1607690
-1607568
-1607471
-1607208
-1607055
-1607165
-1607080
-1606851
-1606767
-1606715
-1606720
-1606592
-1606383
-1606483
-1606413
-1606475
-1606269
-1606380
-1606221
-1605814
-1606182
-1606202
-1606345
-1606322
-1606412
-1606219
-1606135
-1606299
-1606186
-1606293
-1606362
-1606465
-1606444
-1606451
-1606419
-1606323
-1606398
-1606305
-1606274
-1606249
-1606232
-1606007
-1605083
-1605866
-1606150
-1606801
-1606758
-1606855
-1606731
-1606771
-1607054
-1607264
-1607324
-1607421
-1607609
-1607645
-1607806
-1608179
-1608126
-1608437
-1608578
-1609969
-1609056
-1608993
-1609111
-1609301
-1609356
-1609543
-1609668
-1609860
-1609949
-1609840
-1610039
-1610077
-1610313
-1610309
-1610202
-1610131
-1610327
-1610239
-1610219
-1610370
-1610121
-1610003
-1609809
-1609918
-1609949
-1609801
-1609307
-1609644
-1609685
-1609659
-1609506
-1609406
-1609283
-1609336
-1609247
-1609168
-1609082
-1608904
-1608569
-1608664
-1608460
-1608545
-1608314
-1608135
-1607991
-1608024
-1607796
-1607734
-1607761
-1607511
-1607471
-1607449
-1607441
-1607349
-1607450
-1607356
-1607384
-1607345
-1607220
-1607331
-1607333
-1607144
-1607199
-1607078
-1607145
-1607116
-1607374
-1606965
-1607273
-1607215
-1607298
-1607261
-1607159
-1607236
-1607374
-1607189
-1607301
-1607324
-1607364
-1607246
-1607378
-1607519
-1607550
-1607398
-1607517
-1607692
-1607597
-1607608
-1607617
-1607707
-1607705
-1607804
-1607944
-1608064
-1607957
-1608082
-1608227
-1608127
-1608148
-1608294
-1608423
-1608448
-1608417
-1608375
-1608479
-1608513
-1608639
-1608957
-1608843
-1608889
-1609103
-1609254
-1609208
-1609315
-1609442
-1609343
-1609196
-1609415
-1609585
-1609647
-1609616
-1609647
-1609887
-1609934
-1609918
-1609979
-1610108
-1609978
-1609875
-1610048
-1609922
-1610979
-1611032
-1611010
-1611110
-1611127
-1611035
-1611045
-1611103
-1611031
-1611136
-1610910
-1610923
-1611002
-1611209
-1610650
-1611218
-1611186
-1611303
-1611316
-1611181
-1611088
-1611177
-1611254
-1611265
-1611133
-1611303
-1611219
-1611323
-1611403
-1611200
-1611370
-1611285
-1611257
-1611393
-1611413
-1611580
-1611669
-1611498
-1611511
-1611713
-1611766
-1611576
-1611660
-1611743
-1611874
-1611767
-1611846
-1611848
-1611935
-1612142
-1612037
-1612011
-1612207
-1612014
-1612153
-1612170
-1612158
-1612221
-1612357
-1612326
-1612296
-1612089
-1612275
-1612215
-1611831
-1612061
-1612125
-1611998
-1611982
-1612030
-1612072
-1611956
-1612021
-1612071
-1612139
-1611953
-1612021
-1611972
-1611887
-1612042
-1612100
-1611883
-1611891
-1611821
-1611811
-1611743
-1611874
-1611965
-1611901
-1611743
-1611582
-1611886
-1611823
-1611793
-1611348
-1611683
-1611766
-1611697
-1611490
-1611702
-1612042
-1612030
-1612116
-1612359
-1612202
-1612436
-1612432
-1612562
-1612801
-1612787
-1613010
-1613133
-1613368
-1613465
-1613383
-1613436
-1613672
-1613622
-1613643
-1613853
-1613711
-1613857
-1614017
-1614075
-1614204
-1614413
-1614261
-1614399
-1614518
-1614645
-1614700
-1614809
-1614789
-1614985
-1615004
-1614993
-1614976
-1615108
-1615096
-1614997
-1615209
-1615146
-1615189
-1615321
-1615077
-1614821
-1614642
-1614182
-1614120
-1614048
-1613760
-1613647
-1613470
-1613206
-1613184
-1612754
-1612546
-1612249
-1612073
-1611850
-1611631
-1611540
-1611158
-1610849
-1610702
-1610514
-1610382
-1610037
-1609711
-1609645
-1609439
-1609233
-1609117
-1608799
-1608570
-1608252
-1608254
-1608233
-1608934
-1607973
-1607674
-1608552
-1608776
-1606946
-1606717
-1606513
-1606463
-1606116
-1606007
-1605737
-1605421
-1605196
-1604994
-1604841
-1604584
-1604214
-1604176
-1603945
-1603787
-1603634
-1603314
-1603181
-1602940
-1602852
-1602704
-1602471
-1602507
-1602367
-1602173
-1601635
-1601497
-1601415
-1601243
-1601240
-1601134
-1600876
-1600954
-1600997
-1601036
-1600920
-1600844
-1600754
-1600726
-1600704
-1600879
-1600792
-1600778
-1600764
-1600720
-1600646
-1600711
-1600779
-1600938
-1600798
-1600825
-1600860
-1600889
-1600807
-1600960
-1600904
-1601045
-1600879
-1600916
-1600890
-1600894
-1601048
-1600952
-1600899
-1600862
-1600966
-1601062
-1601110
-1600843
-1600830
-1600927
-1600696
-1600607
-1600720
-1600721
-1600719
-1600537
-1600365
-1600537
-1600465
-1600558
-1600744
-1601047
-1601268
-1601324
-1601447
-1601537
-1601436
-1602600
-1602151
-1601926
-1601870
-1601973
-1601890
-1602018
-1601862
-1601942
-1601931
-1602068
-1601974
-1602158
-1601984
-1602050
-1602501
-1602220
-1602341
-1602205
-1602438
-1602243
-1602213
-1602255
-1602429
-1602227
-1602285
-1602204
-1602192
-1602269
-1602250
-1601678
-1602130
-1602038
-1602074
-1602007
-1602077
-1602144
-1601970
-1602001
-1601984
-1601976
-1601873
-1601882
-1602027
-1601920
-1602043
-1602224
-1602322
-1602399
-1602584
-1602590
-1602644
-1602566
-1602792
-1602666
-1602712
-1602711
-1602603
-1602820
-1602758
-1602676
-1602825
-1602726
-1602700
-1602719
-1602745
-1602824
-1602916
-1602772
-1602999
-1602997
-1603004
-1603070
-1603151
-1602976
-1602948
-1603165
-1603116
-1603091
-1603194
-1603147
-1603070
-1603206
-1603236
-1604278
-1603568
-1603388
-1603458
-1603557
-1603636
-1603642
-1603388
-1603610
-1603480
-1603497
-1603585
-1603851
-1603815
-1603866
-1603769
-1603802
-1604012
-1604108
-1604012
-1604082
-1604264
-1604166
-1604115
-1604160
-1604413
-1604469
-1604342
-1604372
-1604463
-1604520
-1604579
-1604674
-1604822
-1604856
-1604860
-1604882
-1604986
-1605044
-1605276
-1605518
-1605377
-1605434
-1605605
-1605554
-1605737
-1605909
-1605913
-1605960
-1606154
-1606054
-1606190
-1606104
-1606119
-1606422
-1606730
-1606777
-1606532
-1606578
-1606711
-1606938
-1606954
-1606989
-1606947
-1606971
-1607106
-1607144
-1606943
-1607022
-1607148
-1607126
-1607128
-1606998
-1606857
-1606849
-1607000
-1607045
-1606995
-1606831
-1606902
-1607054
-1606863
-1606819
-1606849
-1606866
-1606684
-1606677
-1606755
-1606830
-1606626
-1606550
-1606418
-1606488
-1606630
-1606532
-1606563
-1606461
-1606466
-1606495
-1606682
-1606595
-1606656
-1606657
-1606650
-1606697
-1606822
-1606925
-1607015
-1607175
-1607370
-1607336
-1606900
-1607295
-1607497
-1607725
-1607729
-1607851
-1608016
-1608314
-1608593
-1608639
-1608557
-1608720
-1608881
-1609063
-1609013
-1609122
-1609176
-1609485
-1609482
-1609407
-1609374
-1609627
-1609610
-1609560
-1609464
-1609511
-1609503
-1609539
-1609546
-1609614
-1609650
-1609762
-1609767
-1609769
-1609678
-1609621
-1609590
-1609681
-1609633
-1609670
-1609596
-1609209
-1609162
-1609227
-1609234
-1609198
-1609279
-1609280
-1609325
-1609366
-1609471
-1609522
-1609432
-1609361
-1609377
-1609612
-1609556
-1609510
-1609563
-1610893
-1609878
-1609680
-1609523
-1609325
-1609574
-1609591
-1609600
-1609651
-1609611
-1609318
-1609417
-1609314
-1609342
-1609283
-1609166
-1609361
-1609362
-1609167
-1608814
-1609070
-1609035
-1609165
-1609044
-1609158
-1609048
-1609120
-1609278
-1609051
-1608945
-1609007
-1609038
-1608911
-1608800
-1608632
-1608464
-1608320
-1607855
-1607489
-1607007
-1606899
-1606584
-1605983
-1605723
-1605564
-1605060
-1605039
-1604961
-1605143
-1605056
-1604621
-1604438
-1604258
-1604187
-1603938
-1603768
-1603780
-1603429
-1603195
-1603078
-1603098
-1602958
-1602919
-1603366
-1602930
-1602596
-1602506
-1602503
-1602309
-1602128
-1602051
-1601890
-1601634
-1601477
-1601305
-1601234
-1601316
-1601360
-1601157
-1601238
-1601183
-1601283
-1601368
-1601317
-1601408
-1601469
-1601491
-1601545
-1601773
-1601858
-1601919
-1601905
-1602005
-1601917
-1602018
-1601999
-1602200
-1602156
-1602261
-1602143
-1602182
-1602212
-1602256
-1602314
-1602311
-1602269
-1602229
-1602434
-1602419
-1602262
