PPG
-1012725
-1012756
-1012983
-1013086
-1013115
-1013305
-1013263
-1013233
-1013294
-1013401
-1013583
-1013416
-1013766
-1013841
-1013879
-1014084
-1014163
-1014053
-1014208
-1014336
-1014353
-1014375
-1014443
-1014587
-1014596
-1014765
-1014660
-1014694
-1014804
-1014899
-1015108
-1015071
-1015206
-1015449
-1015552
-1015519
-1015486
-1015513
-1015536
-1015681
-1015714
-1015733
-1015949
-1016109
-1016182
-1016226
-1016306
-1016218
-1016226
-1016362
-1016477
-1016381
-1016522
-1016709
-1016789
-1016797
-1016916
-1016827
-1016926
-1016955
-1017036
-1017178
-1017329
-1017432
-1017484
-1017494
-1017466
-1017493
-1017377
-1017629
-1017787
-1017737
-1017785
-1017997
-1018045
-1018029
-1018162
-1018140
-1018113
-1018287
-1018384
-1018380
-1018564
-1018607
-1018700
-1019579
-1019143
-1018882
-1018893
-1018870
-1019023
-1019192
-1019315
-1019411
-1019455
-1019540
-1019518
-1019513
-1019597
-1019753
-1019818
-1020084
-1020163
-1020224
-1020323
-1020389
-1020380
-1020395
-1020360
-1020595
-1020809
-1020833
-1020956
-1021013
-1021099
-1021231
-1021199
-1021325
-1021386
-1021550
-1021709
-1021659
-1021722
-1021904
-1022018
-1022100
-1022094
-1022184
-1022278
-1022358
-1022336
-1022430
-1022489
-1022500
-1022580
-1022764
-1022677
-1022653
-1022696
-1022676
-1022632
-1022491
-1022306
-1022097
-1021979
-1021773
-1021512
-1020957
-1020573
-1020246
-1019794
-1019318
-1018918
-1018332
-1017793
-1017133
-1016434
-1015667
-1014996
-1014333
-1013663
-1012834
-1012128
-1011491
-1010732
-1009819
-1009141
-1008233
-1007451
-1006766
-1006070
-1005368
-1004794
-1004067
-1003401
-1002797
-1002176
-1001570
-1000915
-1000186
-999891
-999580
-999094
-998721
-998282
-997886
-997665
-997211
-996930
-996833
-996403
-996255
-996310
-996066
-996060
-995907
-995752
-995569
-995387
-995461
-995273
-995298
-995179
-995267
-996049
-995392
-995156
-995065
-995011
-994961
-994960
-994994
-994950
-995069
-995011
-995023
-994824
-994770
-994738
-994787
-994772
-994673
-994605
-994351
-994482
-994447
-994257
-994229
-994027
-994120
-993871
-993865
-993869
-993773
-993645
-993434
-993384
-993230
-992940
-992919
-992614
-992496
-992528
-992464
-992206
-992024
-991941
-991645
-991588
-991329
-991312
-990985
-990887
-990846
-990674
-990628
-990312
-990116
-990066
-989883
-989742
-989579
-989494
-989432
-989413
-989295
-989086
-988932
-988755
-988623
-988695
-988642
-988398
-988487
-988564
-988501
-988465
-988375
-988334
-988301
-988447
-988466
-988244
-988658
-988874
-988863
-988827
-989054
-989192
-989266
-989564
-989563
-989851
-989954
-990096
-990392
-990413
-990688
-990738
-990960
-991190
-991322
-991578
-991733
-991816
-992053
-992191
-992366
-992514
-992614
-992733
-992869
-993063
-993130
-993218
-993390
-993477
-993473
-993204
-993545
-993675
-993741
-993798
-993756
-993768
-993727
-993780
-993809
-993600
-993689
-993602
-993530
-993532
-993269
-993246
-993133
-993080
-992947
-992965
-992891
-992883
-992844
-992697
-992540
-992586
-992351
-992224
-992391
-992254
-992632
-992313
-992236
-992105
-992188
-992143
-992110
-992023
-991998
-992035
-992052
-992169
-992145
-992201
-992202
-992220
-992111
-992120
-992293
-992241
-992327
-992525
-992639
-992602
-992636
-992577
-992630
-992744
-992856
-993020
-992944
-993118
-993278
-993293
-992846
-993183
-993415
-993453
-993536
-993596
-993725
-993765
-993806
-993869
-994021
-993927
-994099
-994100
-994220
-994369
-994424
-994580
-994663
-994774
-994765
-994851
-994991
-994982
-995005
-995245
-995255
-995410
-995563
-995611
-995662
-995677
-995818
-995881
-995936
-996194
-996292
-996360
-996494
-996569
-996606
-996605
-996884
-997023
-997106
-997125
-997277
-997255
-997394
-997501
-997514
-997611
-997725
-997826
-997864
-997975
-998016
-998230
-998168
-998127
-998264
-998380
-998474
-998662
-998601
-998781
-998870
-998976
-998960
-999003
-999023
-999163
-999228
-999386
-999419
-999491
-999678
-999820
-999830
-999850
-999765
-999814
-1000022
-1000053
-1000137
-1000240
-1000289
-1000382
-1000472
-1000469
-1000227
-1000405
-1000651
-1000721
-1000895
-1001046
-1000989
-1001099
-1001051
-1001133
-1001150
-1001224
-1001256
-1001242
-1001423
-1001476
-1001637
-1001662
-1001677
-1001741
-1001834
-1001709
-1001821
-1002017
-1002057
-1002128
-1002170
-1002261
-1002362
-1002292
-1002418
-1002478
-1002655
-1002569
-1002645
-1002670
-1002821
-1002974
-1002865
-1002822
-1002648
-1003089
-1003200
-1003236
-1003341
-1003490
-1003433
-1003618
-1003541
-1003610
-1003552
-1003701
-1003806
-1003917
-1003778
-1004069
-1004109
-1004237
-1004155
-1004361
-1004347
-1004373
-1004528
-1004671
-1004668
-1004841
-1004866
-1004895
-1004988
-1005624
-1005142
-1005057
-1005268
-1005243
-1005285
-1005359
-1005597
-1005637
-1005618
-1005627
-1005684
-1005828
-1006057
-1006179
-1006152
-1006324
-1006278
-1006442
-1006448
-1006436
-1006586
-1006594
-1006765
-1006843
-1006879
-1007021
-1007208
-1007250
-1007195
-1007297
-1007339
-1007411
-1007383
-1007562
-1007592
-1007868
-1007911
-1007990
-1007943
-1008089
-1008236
-1008363
-1008445
-1008483
-1008629
-1008674
-1008845
-1008858
-1008965
-1008941
-1008993
-1009157
-1009265
-1009251
-1009525
-1009612
-1009641
-1009711
-1009867
-1009851
-1009916
-1009931
-1010121
-1010123
-1010378
-1010414
-1010428
-1010512
-1010617
-1010667
-1010665
-1011547
-1011174
-1011127
-1011192
-1011182
-1011164
-1011246
-1011384
-1011417
-1011479
-1011492
-1011727
-1011795
-1011872
-1012057
-1012004
-1012142
-1012274
-1012254
-1012272
-1012342
-1012483
-1012518
-1012637
-1012855
-1013548
-1013262
-1013079
-1013047
-1013160
-1013202
-1013257
-1013315
-1013390
-1013593
-1013600
-1013678
-1013739
-1013769
-1013939
-1013946
-1014149
-1014205
-1014237
-1014416
-1014305
-1014572
-1014601
-1014539
-1014615
-1014777
-1014951
-1014836
-1015028
-1015116
-1015255
-1015213
-1015356
-1015448
-1015537
-1015586
-1015635
-1015717
-1015758
-1015816
-1016051
-1016101
-1016096
-1016177
-1016206
-1016270
-1016459
-1016424
-1016584
-1016687
-1016777
-1016714
-1016798
-1016827
-1016935
-1016922
-1017161
-1017130
-1017157
-1017222
-1017327
-1017347
-1017592
-1017520
-1017681
-1017706
-1017841
-1017909
-1017944
-1017988
-1017994
-1018009
-1018163
-1018233
-1017823
-1018150
-1017986
-1018225
-1018373
-1018564
-1018643
-1018662
-1018669
-1018616
-1018713
-1018865
-1018963
-1019094
-1019229
-1019223
-1019339
-1019453
-1019376
-1019416
-1019392
-1019469
-1019906
-1019856
-1019821
-1019993
-1019946
-1019974
-1020076
-1020209
-1020089
-1020135
-1020338
-1020309
-1020419
-1020557
-1020689
-1020849
-1020912
-1020819
-1020788
-1020906
-1021055
-1021211
-1021395
-1021311
-1021453
-1021625
-1021632
-1021757
-1021824
-1021808
-1021818
-1022027
-1022136
-1022225
-1022352
-1022532
-1022636
-1022703
-1022730
-1022792
-1022937
-1023051
-1023154
-1023178
-1023325
-1023389
-1023425
-1023611
-1023557
-1023788
-1023755
-1023842
-1024006
-1024017
-1024150
-1024290
-1024276
-1024388
-1024227
-1024366
-1024184
-1024239
-1024262
-1024174
-1024246
-1024059
-1023869
-1023524
-1023276
-1023003
-1022809
-1022534
-1022102
-1021641
-1021347
-1020791
-1020185
-1019574
-1019093
-1018421
-1017763
-1017144
-1016432
-1015841
-1015095
-1014423
-1013703
-1013093
-1012306
-1011624
-1011022
-1009990
-1009642
-1008880
-1008312
-1007650
-1007069
-1007015
-1005998
-1005388
-1004759
-1004286
-1003771
-1003322
-1002931
-1002622
-1002225
-1001746
-1001404
-1001040
-1000790
-1001128
-1000611
-1000269
-1000027
-999859
-999543
-999394
-999259
-999150
-999100
-998955
-998985
-998982
-998981
-999044
-998851
-998893
-998848
-998864
-998777
-998780
-998818
-998891
-998865
-998855
-998806
-998725
-998647
-998720
-998801
-998755
-998830
-998841
-998947
-998882
-998800
-998750
-998699
-998685
-998640
-998688
-998645
-998659
-998645
-998589
-998535
-998404
-998313
-998227
-998237
-998205
-998161
-998073
-997985
-997949
-997913
-997828
-997628
-997590
-997465
-997480
-997340
-997255
-997235
-997055
-997082
-996863
-996850
-996716
-996629
-996554
-996563
-996490
-996465
-996477
-996336
-996424
-996231
-996327
-996398
-996265
-996290
-996370
-996385
-996493
-996429
-996601
-996592
-996666
-996759
-996919
-996927
-997156
-997293
-997399
-997386
-997624
-997668
-997938
-998198
-998366
-998414
-998678
-998764
-998868
-999016
-999206
-999342
-999418
-999610
-999758
-999901
-1000166
-1000252
-1000256
-1000263
-1000338
-1000480
-1000367
-1000664
-1000767
-1000898
-1000812
-1000792
-1000923
-1000879
-1000880
-1000866
-1000812
-1000740
-1000730
-1000679
-1000722
-1000698
-1000687
-1000667
-1000376
-1000359
-1000364
-1000266
-1000209
-1000103
-999981
-999939
-999986
-999842
-999745
-999680
-999517
-999491
-999456
-999428
-999385
-999279
-999170
-999103
-999022
-998964
-998908
-999610
-999088
-998875
-999004
-999011
-998947
-998977
-998797
-998798
-998830
-998950
-998895
-998954
-998992
-999038
-999063
-999082
-999119
-999073
-999041
-999273
-999294
-999390
-999398
-999583
-999558
-999604
-999600
-999743
-999683
-999883
-999950
-999961
-999959
-1000025
-1000244
-1000362
-1000230
-1000293
-1000393
-1000548
-1000575
-1000656
-1000900
-1000878
-1000891
-1001050
-1001112
-1001190
-1001233
-1001288
-1001418
-1001426
-1001681
-1001666
-1001814
-1001870
-1001869
-1001904
-1001940
-1002114
-1002191
-1002290
-1002447
-1002507
-1002579
-1002733
-1002725
-1002838
-1002985
-1003179
-1003290
-1003297
-1003344
-1003562
-1003770
-1003744
-1003909
-1003934
-1004163
-1004391
-1004392
-1004585
-1004443
-1004640
-1004763
-1004928
-1004987
-1005216
-1005146
-1004543
-1005053
-1005303
-1005374
-1005598
-1005559
-1005604
-1005820
-1005954
-1005978
-1005987
-1006099
-1006177
-1006116
-1006241
-1006407
-1006529
-1006582
-1006726
-1006388
-1006647
-1006735
-1006917
-1006919
-1007053
-1007156
-1007260
-1007280
-1007277
-1007461
-1007445
-1007393
-1007533
-1007481
-1007645
-1007757
-1007704
-1007728
-1007831
-1007960
-1007924
-1008107
-1008082
-1008173
-1008247
-1008270
-1008349
-1008480
-1008520
-1008515
-1008557
-1008540
-1008528
-1008765
-1008837
-1008820
-1008954
-1008926
-1009013
-1009195
-1009208
-1009213
-1009156
-1009161
-1009224
-1009387
-1009394
-1009539
-1009678
-1009633
-1009703
-1009746
-1009745
-1009876
-1009972
-1009924
-1010045
-1010101
-1010261
-1010412
-1010356
-1010408
-1010416
-1010454
-1010548
-1010649
-1010664
-1010820
-1010772
-1010982
-1010916
-1010936
-1011017
-1010989
-1011137
-1011260
-1011662
-1011520
-1011557
-1011502
-1011434
-1011502
-1011650
-1011718
-1011738
-1011843
-1011996
-1012043
-1012132
-1012183
-1012205
-1012269
-1012312
-1012444
-1012621
-1012705
-1013398
-1012998
-1012941
-1013152
-1013049
-1013162
-1013269
-1013343
-1013351
-1013471
-1013470
-1013544
-1013727
-1013959
-1013868
-1013904
-1013868
-1013967
-1014052
-1014136
-1014274
-1014476
-1014471
-1014594
-1014611
-1014616
-1014684
-1014780
-1014883
-1015066
-1015215
-1015173
-1015305
-1015291
-1015333
-1015411
-1015594
-1015556
-1015802
-1015691
-1015822
-1015835
-1016094
-1016238
-1016197
-1016295
-1016249
-1016287
-1016365
-1016575
-1016670
-1016803
-1016914
-1016950
-1016940
-1017051
-1017020
-1017202
-1017257
-1017389
-1017370
-1017586
-1017528
-1017699
-1017772
-1017821
-1017935
-1017936
-1018047
-1018039
-1018126
-1018290
-1018436
-1018474
-1018619
-1018569
-1018560
-1018666
-1018872
-1018946
-1019055
-1019168
-1019315
-1019294
-1019296
-1019365
-1019396
-1019543
-1019594
-1019634
-1019572
-1019948
-1019966
-1020011
-1020045
-1020256
-1020155
-1020276
-1020358
-1020457
-1020560
-1020554
-1020777
-1020788
-1020772
-1020798
-1020905
-1021074
-1021034
-1021207
-1021402
-1021290
-1021493
-1021415
-1021501
-1021463
-1021510
-1021670
-1021723
-1021842
-1021897
-1021876
-1021967
-1022138
-1022126
-1022206
-1022158
-1022337
-1022273
-1022490
-1022516
-1022598
-1022612
-1022644
-1022628
-1022738
-1022495
-1022914
-1022989
-1023118
-1023085
-1023204
-1023150
-1023303
-1023387
-1023332
-1023433
-1023620
-1023707
-1023644
-1023778
-1023806
-1023839
-1023989
-1023925
-1024034
-1024197
-1024080
-1024225
-1024327
-1024467
-1024544
-1024724
-1024681
-1024796
-1024725
-1024827
-1024927
-1024935
-1025085
-1025133
-1025088
-1025320
-1025303
-1025454
-1025351
-1025493
-1025636
-1025770
-1025909
-1025922
-1026109
-1026219
-1026211
-1026142
-1026212
-1026336
-1026455
-1026526
-1026668
-1026781
-1026933
-1027039
-1027092
-1027008
-1027171
-1027314
-1027492
-1027558
-1027550
-1027723
-1027833
-1027768
-1027954
-1027913
-1027910
-1028142
-1028216
-1028357
-1028388
-1028420
-1028576
-1028630
-1028648
-1028635
-1028546
-1028508
-1028425
-1028291
-1028213
-1028208
-1028004
-1027760
-1027503
-1027091
-1026898
-1026485
-1026269
-1025751
-1025191
-1024714
-1024349
-1023822
-1023205
-1022559
-1022064
-1021327
-1020776
-1020189
-1019623
-1019003
-1018225
-1017663
-1016936
-1016341
-1015741
-1015026
-1014375
-1013897
-1013458
-1012869
-1012108
-1011703
-1011033
-1010488
-1009971
-1009610
-1009768
-1008914
-1008401
-1008043
-1007664
-1007394
-1007049
-1006751
-1006458
-1006237
-1005974
-1005761
-1005516
-1005415
-1005134
-1005058
-1004823
-1004748
-1004651
-1004577
-1004542
-1004405
-1004374
-1004245
-1004157
-1004238
-1004248
-1003814
-1003897
-1003976
-1003965
-1003896
-1003911
-1003894
-1003993
-1003974
-1003881
-1003900
-1003884
-1003782
-1003775
-1003799
-1003726
-1003711
-1003736
-1003663
-1003569
-1003591
-1003589
-1003455
-1003347
-1003511
-1003549
-1003524
-1003555
-1003500
-1003298
-1003223
-1003206
-1003210
-1003194
-1003749
-1003207
-1002962
-1002976
-1002916
-1002853
-1002758
-1002619
-1002561
-1002646
-1002630
-1002477
-1002408
-1002324
-1002292
-1002226
-1001894
-1001961
-1001904
-1001847
-1001818
-1001746
-1001650
-1001838
-1001734
-1001959
-1002135
-1002244
-1002368
-1002502
-1002471
-1002524
-1002725
-1002906
-1003051
-1003217
-1003271
-1003672
-1003682
-1003763
-1003895
-1004051
-1004376
-1004413
-1004588
-1004848
-1004972
-1005043
-1005128
-1005152
-1005331
-1005563
-1005732
-1005773
-1005990
-1005909
-1006008
-1006096
-1006124
-1006214
-1006217
-1006224
-1006222
-1006307
-1006313
-1006317
-1006334
-1006401
-1006273
-1006156
-1006203
-1006068
-1006107
-1005994
-1005956
-1005896
-1005864
-1005879
-1005707
-1005640
-1005443
-1005371
-1005427
-1005344
-1005295
-1005186
-1005193
-1005125
-1004953
-1004779
-1004874
-1004797
-1004795
-1004651
-1004328
-1004470
-1004489
-1004554
-1004304
-1004290
-1004211
-1004163
-1004214
-1004147
-1004307
-1004283
-1004242
-1004341
-1004226
-1004192
-1004208
-1004275
-1004193
-1004258
-1004235
-1004377
-1004321
-1004371
-1004343
-1004319
-1004306
-1004421
-1004525
-1004512
-1004615
-1004687
-1004785
-1004971
-1004817
-1004900
-1004855
-1004861
-1004985
-1005165
-1005309
-1005415
-1005373
-1005473
-1005538
-1005580
-1005518
-1005605
-1005770
-1005882
-1005880
-1005989
-1006130
-1006305
-1006240
-1006246
-1006310
-1006339
-1006452
-1006543
-1006713
-1007564
-1006951
-1007170
-1007072
-1007122
-1007218
-1007253
-1007388
-1007387
-1007666
-1007683
-1007802
-1007832
-1007848
-1007883
-1008098
-1008082
-1008271
-1008451
-1008503
-1008640
-1008603
-1008758
-1008492
-1008745
-1008884
-1008833
-1009034
-1009085
-1009208
-1009333
-1009437
-1009567
-1009602
-1009717
-1009749
-1009893
-1009957
-1010040
-1010095
-1010253
-1010273
-1010404
-1010541
-1010535
-1010604
-1010746
-1010805
-1010861
-1010972
-1011038
-1011138
-1011159
-1011189
-1011232
-1011419
-1011356
-1011469
-1011559
-1011687
-1011775
-1011895
-1012021
-1011969
-1011963
-1011998
-1012152
-1012341
-1012306
-1012296
-1012451
-1012420
-1012576
-1012506
-1012648
-1012609
-1012671
-1012713
-1012855
-1012985
-1013043
-1013093
-1013189
-1013122
-1013195
-1013150
-1013196
-1013413
-1013466
-1013440
-1013578
-1013595
-1013738
-1013730
-1013662
-1013688
-1013800
-1013832
-1013896
-1013931
-1014003
-1014072
-1014119
-1014224
-1014215
-1014315
-1014387
-1014345
-1014493
-1014510
-1014706
-1014797
-1014762
-1014907
-1014950
-1014895
-1014901
-1014981
-1015109
-1015159
-1015327
-1015262
-1015249
-1015485
-1015407
-1015468
-1015545
-1015614
-1015674
-1015764
-1015855
-1016025
-1016136
-1016162
-1016187
-1016213
-1016279
-1016413
-1016550
-1016572
-1016644
-1016811
-1016799
-1016750
-1016920
-1016893
-1016989
-1017144
-1017140
-1017284
-1017467
-1017448
-1017603
-1017543
-1017575
-1017770
-1017732
-1017826
-1017990
-1018063
-1018127
-1018222
-1018393
-1018449
-1018379
-1018492
-1018614
-1018622
-1018692
-1018930
-1018943
-1019128
-1019253
-1019154
-1019214
-1019236
-1019390
-1019439
-1019557
-1019698
-1019828
-1019942
-1020016
-1019970
-1019965
-1020022
-1019901
-1020173
-1020299
-1020366
-1020686
-1020674
-1020742
-1020758
-1020911
-1020872
-1020977
-1021034
-1021118
-1021197
-1021247
-1021548
-1021511
-1021488
-1021562
-1021770
-1021879
-1021916
-1021907
-1021877
-1022189
-1022379
-1022414
-1022412
-1022447
-1022539
-1022632
-1022805
-1022748
-1022859
-1023056
-1023060
-1023184
-1023243
-1023343
-1023431
-1023557
-1023545
-1023543
-1023738
-1023803
-1024412
-1024196
-1024171
-1024038
-1024105
-1024208
-1024309
-1024356
-1024547
-1024634
-1024445
-1024749
-1024774
-1024933
-1024969
-1024995
-1025085
-1025144
-1025219
-1025365
-1025468
-1025560
-1025585
-1025702
-1025613
-1025676
-1025733
-1025844
-1026072
-1026173
-1026175
-1026262
-1026218
-1026267
-1026275
-1026453
-1026533
-1026698
-1026650
-1026657
-1026884
-1026963
-1026946
-1027078
-1027090
-1027202
-1027234
-1027267
-1027385
-1028131
-1028470
-1027770
-1027660
-1027729
-1027774
-1027836
-1027819
-1027695
-1028006
-1028090
-1028235
-1028193
-1028271
-1028303
-1028367
-1028431
-1028513
-1028667
-1028717
-1028879
-1028530
-1028767
-1028902
-1028912
-1028981
-1029073
-1029160
-1029278
-1029395
-1029452
-1029581
-1029612
-1029741
-1029696
-1029943
-1030048
-1030024
-1030230
-1030231
-1030440
-1030496
-1030542
-1030531
-1030712
-1030763
-1030799
-1031054
-1031036
-1031339
-1031344
-1031445
-1031564
-1031841
-1032006
-1032087
-1032066
-1032443
-1031936
-1031781
-1031715
-1031553
-1031374
-1030757
-1030383
-1030088
-1029827
-1029292
-1028811
-1028370
-1027821
-1027284
-1026583
-1025973
-1025205
-1024384
-1023795
-1022935
-1022285
-1021656
-1020777
-1020070
-1019215
-1018437
-1017645
-1016784
-1016160
-1015334
-1014680
-1014083
-1013354
-1012691
-1012052
-1011388
-1010744
-1010118
-1009725
-1009086
-1008558
-1008203
-1007756
-1007385
-1006831
-1006467
-1006124
-1005855
-1005605
-1005348
-1005140
-1004870
-1004672
-1004492
-1004363
-1004197
-1003979
-1003851
-1003866
-1003693
-1003713
-1003597
-1003692
-1003630
-1003453
-1003402
-1003307
-1003202
-1003363
-1003339
-1003176
-1003153
-1003319
-1003197
-1003100
-1003032
-1003042
-1003037
-1003078
-1002891
-1002918
-1002685
-1002589
-1002490
-1002439
-1002423
-1002299
-1002145
-1002071
-1002024
-1001775
-1001658
-1001563
-1001463
-1001268
-1001199
-1001091
-1001047
-1000843
-1000673
-1000449
-1000351
-1000204
-999917
-999774
-999762
-999665
-999526
-999279
-999222
-999075
-998886
-998682
-998493
-998497
-998202
-998185
-998134
-997914
-997798
-997655
-997413
-997327
-997123
-997094
-997001
-997019
-996917
-996826
-996860
-996795
-996674
-996465
-996522
-996490
-996540
-996279
-996470
-996459
-996469
-996547
-996467
-996607
-996495
-996700
-996715
-996874
-996968
-997157
-997254
-997357
-997533
-997556
-997601
-997913
-998060
-998148
-998449
-998671
-998691
-998908
-998994
-999201
-999415
-999643
-999675
-999896
-1000148
-1000343
-1000469
-1000502
-1000681
-1000814
-1000870
-1000981
-1001178
-1001236
-1001388
-1001441
-1001606
-1001570
-1001623
-1001671
-1001717
-1001674
-1001751
-1001710
-1001750
-1001820
-1001727
-1001788
-1001698
-1001716
-1001543
-1001578
-1001525
-1001548
-1001457
-1001492
-1001410
-1001320
-1001136
-1001115
-1001031
-1001006
-1000856
-1000813
-1000827
-1000740
-1000741
-1000686
-1000535
-1000481
-1000487
-1000434
-1000351
-1000258
-1000269
-1000144
-1000285
-1000217
-999971
-1000194
-1000268
-1000232
-1000242
-1000176
-1000282
-1000313
-1000324
-1000233
-1000347
-1000343
-1000269
-1000488
-1000415
-1000589
-1000489
-1000668
-1000725
-1000717
-1000478
-1000857
-1000848
-1001058
-1001140
-1001197
-1001119
-1001231
-1001390
-1001398
-1001513
-1001552
-1001689
-1001760
-1001759
-1001841
-1002000
-1002085
-1002264
-1002258
-1002307
-1002362
-1002432
-1002660
-1002604
-1002803
-1002962
-1003020
-1003090
-1003138
-1003186
-1003144
-1003955
-1003731
-1003533
-1003579
-1003771
-1003787
-1003806
-1003968
-1004052
-1004014
-1004142
-1004235
-1004375
-1004479
-1004569
-1004583
-1004762
-1004883
-1004983
-1005044
-1005087
-1005147
-1005249
-1005333
-1005445
-1005494
-1005651
-1005660
-1005820
-1005832
-1005970
-1005968
-1006152
-1006172
-1006309
-1006381
-1006492
-1006520
-1006674
-1006631
-1006810
-1006860
-1007025
-1007008
-1007160
-1007309
-1007197
-1007315
-1007490
-1007565
-1007669
-1007787
-1007877
-1007895
-1007933
-1008150
-1008180
-1008129
-1008207
-1008322
-1008372
-1008438
-1008494
-1008605
-1008651
-1008782
-1008781
-1008862
-1009004
-1009070
-1008988
-1009192
-1009175
-1009236
-1009425
-1009434
-1009432
-1009499
-1009677
-1009701
-1009780
-1009788
-1009713
-1009984
-1009971
-1010053
-1010094
-1010067
-1010068
-1010181
-1010237
-1010432
-1010427
-1010639
-1010748
-1010785
-1010760
-1010712
-1010836
-1010907
-1010861
-1010934
-1010973
-1011159
-1011292
-1011385
-1011409
-1011406
-1011486
-1011524
-1011543
-1011785
-1011845
-1011821
-1011916
-1012022
-1012076
-1012056
-1012043
-1012153
-1012341
-1012305
-1012447
-1012563
-1012688
-1012734
-1012920
-1012905
-1012903
-1012991
-1013022
-1013034
-1013214
-1013211
-1013381
-1013534
-1013523
-1013495
-1013553
-1013680
-1013687
-1013863
-1013895
-1013897
-1014148
-1014268
-1014302
-1014198
-1014457
-1014547
-1014580
-1014686
-1014712
-1014776
-1014926
-1014868
-1015050
-1015113
-1015185
-1015170
-1015290
-1015451
-1015464
-1015642
-1015700
-1015792
-1015828
-1015885
-1015947
-1015909
-1016219
-1016356
-1016454
-1016496
-1016587
-1016615
-1016773
-1016852
-1016983
-1017039
-1017035
-1017089
-1017065
-1017240
-1017420
-1017554
-1017698
-1017670
-1017695
-1017692
-1017815
-1017900
-1018068
-1017812
-1018269
-1018290
-1018420
-1018341
-1018428
-1018529
-1018713
-1018726
-1018913
-1018874
-1019004
-1019132
-1019127
-1019130
-1019207
-1019355
-1019503
-1019643
-1019749
-1019681
-1019797
-1019842
-1019928
-1019986
-1020158
-1020207
-1020245
-1020459
-1020588
-1020637
-1020756
-1020766
-1020931
-1020825
-1020962
-1020817
-1021079
-1021163
-1021264
-1021442
-1021660
-1021647
-1021774
-1021561
-1021847
-1021983
-1022044
-1022139
-1022212
-1022215
-1022061
-1022385
-1022521
-1022523
-1022628
-1022756
-1022830
-1022871
-1022890
-1022954
-1023198
-1023311
-1023392
-1023313
-1023311
-1023506
-1023529
-1023711
-1023615
-1023715
-1023893
-1023927
-1024079
-1024015
-1023903
-1024204
-1024286
-1024317
-1024492
-1024557
-1024674
-1024824
-1024753
-1024865
-1024810
-1024917
-1024975
-1025063
-1025167
-1025264
-1025367
-1025439
-1025476
-1025493
-1025587
-1025684
-1025649
-1025751
-1025831
-1025965
-1026028
-1026097
-1026107
-1026201
-1026166
-1026152
-1026399
-1026351
-1026534
-1026603
-1026657
-1026757
-1026702
-1026855
-1026883
-1027081
-1027120
-1027240
-1027186
-1027389
-1027572
-1027481
-1027480
-1027736
-1027849
-1027855
-1027909
-1027969
-1028112
-1028180
-1028227
-1028298
-1028316
-1028481
-1028559
-1028755
-1028805
-1028889
-1029061
-1029112
-1029356
-1029335
-1029325
-1029435
-1029620
-1029721
-1029873
-1029939
-1030022
-1030086
-1030089
-1030066
-1030114
-1030088
-1030245
-1030171
-1030044
-1030098
-1030174
-1030158
-1029914
-1029779
-1029650
-1029421
-1029084
-1028980
-1028578
-1028140
-1027838
-1027463
-1026932
-1026377
-1025650
-1025155
-1024464
-1023780
-1023135
-1022356
-1021378
-1020758
-1020149
-1019298
-1018469
-1017765
-1016860
-1016192
-1015457
-1014667
-1013872
-1013048
-1012416
-1011610
-1010159
-1008393
-1007730
-1007183
-1006626
-1005958
-1005641
-1005286
-1004813
-1004538
-1004267
-1003916
-1003503
-1003230
-1003089
-1002897
-1002648
-1002373
-1002289
-1002179
-1002124
-1001880
-1001868
-1001713
-1001648
-1001583
-1001445
-1001391
-1001473
-1001359
-1001485
-1001415
-1001400
-1001297
-1001296
-1001272
-1001237
-1001161
-1001200
-1001178
-1001231
-1001187
-1001030
-1001117
-1000998
-1000924
-1000822
-1000797
-1000643
-1000630
-1000637
-1000501
-1000431
-1000102
-1000215
-1000059
-999909
-999867
-999660
-999543
-999456
-999466
-999181
-999017
-998775
-998797
-998562
-998355
-998261
-998106
-997859
-997698
-997537
-997469
-997315
-997101
-996958
-996630
-996419
-996791
-996341
-996026
-995832
-995676
-995447
-995473
-995194
-995040
-994914
-994787
-994667
-994508
-994543
-994445
-994380
-994388
-994188
-994098
-994003
-993932
-993874
-993691
-993713
-993785
-993835
-993741
-993697
-993541
-994296
-993865
-993677
-993686
-993794
-993776
-993933
-994071
-994014
-994147
-994236
-994326
-994584
-994669
-994777
-994826
-995248
-995479
-995660
-995696
-995797
-996092
-996154
-996338
-996637
-996927
-997075
-997167
-997365
-997409
-997573
-997644
-997929
-998117
-998134
-998264
-998311
-998453
-998571
-998644
-998655
-998630
-998519
-998639
-998716
-998743
-998811
-998941
-998881
-998664
-998617
-998587
-998670
-998549
-998478
-999100
-998559
-998426
-998296
-997819
-997828
-997782
-997761
-997688
-997651
-997510
-997483
-997519
-997413
-997166
-997169
-997149
-996845
-996823
-996998
-996927
-996876
-996796
-996806
-996587
-996689
-996657
-996747
-996624
-996684
-996680
-996603
-996660
-997283
-996817
-996641
-996726
-996836
-996863
-996817
-996905
-996952
-997115
-997125
-997028
-996984
-997167
-997291
-997327
-997273
-997349
-997503
-997511
-997690
-997648
-997737
-997811
-997888
-997947
-998091
-998179
-998329
-998414
-998386
-998403
-998466
-998502
-998674
-998866
-998862
-998934
-999004
-999154
-999285
-999394
-999377
-999482
-999630
-999576
-999762
-999917
-999975
-1000067
-1000087
-1000018
-1000212
-1000174
-1000379
-1000465
-1000547
-1000757
-1001569
-1001196
-1000957
-1000880
-1001117
-1001201
-1001241
-1001456
-1001520
-1001640
-1001600
-1001658
-1001767
-1001962
-1001940
-1002049
-1002115
-1002116
-1002251
-1002371
-1002544
-1002606
-1002657
-1002623
-1002349
-1002750
-1002803
-1002879
-1002901
-1003149
-1003169
-1003375
-1003316
-1003502
-1003458
-1003504
-1003552
-1003619
-1003718
-1003770
-1003630
-1003824
-1003923
-1004056
-1004047
-1004018
-1004264
-1004330
-1004304
-1004516
-1004500
-1004610
-1004278
-1004547
-1004625
-1004676
-1004783
-1004793
-1004907
-1005045
-1005088
-1005086
-1005122
-1005171
-1005173
-1005176
-1005370
-1005417
-1005500
-1005664
-1005718
-1005701
-1005767
-1005784
-1005775
-1005699
-1005784
-1005968
-1006114
-1006092
-1006074
-1006196
-1006223
-1006163
-1006315
-1006320
-1006499
-1006571
-1006569
-1006650
-1006698
-1006873
-1006684
-1006832
-1006885
-1006995
-1007119
-1007122
-1007141
-1007291
-1007375
-1007527
-1007464
-1007586
-1007644
-1007664
-1007847
-1007868
-1007963
-1008063
-1008055
-1008152
-1008241
-1008178
-1008335
-1008405
-1008508
-1008600
-1008573
-1008725
-1008776
-1008890
-1009061
-1008983
-1009064
-1009146
-1009151
-1009347
-1009381
-1009408
-1009499
-1009566
-1009675
-1009725
-1009796
-1009831
-1009907
-1009946
-1010204
-1010321
-1010287
-1010392
-1010460
-1010506
-1010545
-1010693
-1010824
-1010920
-1011025
-1011130
-1011131
-1011239
-1011268
-1011245
-1011420
-1011462
-1011649
-1011377
-1011691
-1011806
-1011940
-1012139
-1012242
-1012309
-1012344
-1012302
-1012476
-1012475
-1012617
-1012575
-1012857
-1012957
-1013037
-1013124
-1013194
-1013192
-1013266
-1013287
-1013404
-1013583
-1013711
-1013764
-1013792
-1013754
-1013839
-1013933
-1014053
-1014105
-1014128
-1014201
-1014268
-1014407
-1014531
-1014497
-1014584
-1014661
-1014662
-1014759
-1014928
-1014929
-1015000
-1015265
-1015005
-1015107
-1015237
-1015263
-1015478
-1015426
-1015482
-1015728
-1015785
-1015802
-1015927
-1015918
-1016091
-1016165
-1016296
-1016282
-1016419
-1016418
-1016667
-1016829
-1016733
-1016790
-1016850
-1017029
-1017159
-1017275
-1017442
-1017420
-1017598
-1017750
-1017584
-1017684
-1017818
-1017868
-1017994
-1018742
-1018382
-1018443
-1018503
-1018659
-1018555
-1018770
-1018741
-1018930
-1019002
-1019068
-1019318
-1019336
-1019429
-1019643
-1019639
-1019673
-1019846
-1019919
-1019986
-1020098
-1020191
-1020301
-1020352
-1020445
-1020735
-1020657
-1020702
-1020802
-1020884
-1020864
-1020912
-1021054
-1021184
-1021170
-1021243
-1021246
-1021333
-1021385
-1021391
-1021560
-1021653
-1021663
-1021682
-1021681
-1021692
-1021728
-1021796
-1021970
-1022030
-1022034
-1022080
-1022140
-1022199
-1022238
-1022305
-1022352
-1022413
-1022443
-1022583
-1022613
-1022640
-1022765
-1022850
-1022996
-1022999
-1023033
-1022963
-1023150
-1023152
-1023280
-1023394
-1023409
-1023521
-1023724
-1023632
-1023670
-1023741
-1023957
-1024094
-1024113
-1024206
-1024286
-1024354
-1024574
-1024614
-1024557
-1024751
-1024782
-1025004
-1024964
-1025073
-1025144
-1025321
-1025417
-1025377
-1025420
-1025575
-1025715
-1025799
-1025835
-1026467
-1026150
-1026148
-1026065
-1025981
-1026074
-1026138
-1026246
-1026328
-1026323
-1026339
-1026238
-1026005
-1026177
-1026067
-1025972
-1025841
-1025662
-1025229
-1025184
-1025051
-1024728
-1024351
-1024082
-1023717
-1023085
-1022551
-1021956
-1021558
-1020861
-1020270
-1019597
-1018901
-1018319
-1017608
-1016749
-1016057
-1015305
-1014616
-1013931
-1013209
-1012501
-1011695
-1011076
-1010225
-1009510
-1008867
-1008047
-1007487
-1006928
-1006275
-1005806
-1005235
-1004586
-1004079
-1003684
-1003140
-1002768
-1002456
-1002058
-1001401
-1001342
-1001168
-1000846
-1000545
-1000442
-1000138
-999996
-999983
-999738
-999557
-999393
-999499
-999409
-999253
-998840
-998924
-998902
-998926
-998938
-998929
-998848
-998827
-998610
-998631
-998625
-998515
-998505
-998508
-998379
-998237
-998208
-998186
-998058
-997909
-997867
-997938
-997746
-997599
-997492
-997385
-997255
-997103
-996912
-996804
-996760
-996538
-996499
-996222
-995981
-995912
-995764
-995604
-995507
-995295
-995082
-995002
-994812
-994603
-994320
-994201
-994116
-993849
-993668
-993464
-993331
-993174
-993114
-992966
-992878
-992655
-992547
-992462
-992309
-992224
-992233
-992144
-991937
-991889
-991734
-991641
-991524
-991530
-991494
-991464
-991495
-991596
-991657
-991615
-991580
-991539
-991573
-991653
-991647
-991830
-991873
-991940
-992228
-992272
-992318
-992468
-992613
-992646
-992807
-993022
-993223
-993409
-993590
-993729
-993875
-994021
-994242
-994463
-994771
-994970
-995092
-995351
-995573
-995626
-995839
-996021
-996164
-996328
-996473
-996676
-996844
-996946
-997004
-997008
-997144
-997089
-997112
-997281
-997458
-997310
-997435
-997462
-997457
-997499
-997400
-997357
-997382
-997451
-997317
-997236
-997318
-997330
-997183
-997111
-996955
-996861
-996878
-996894
-996874
-996819
-996707
-996652
-996626
-996501
-996472
-996265
-996256
-996383
-996283
-996286
-996196
-996146
-995897
-995930
-995943
-995863
-995946
-995857
-995935
-995936
-995840
-995882
-995905
-995958
-995861
-995862
-995908
-995935
-995924
-995938
-996026
-996076
-996185
-996168
-996170
-996187
-996179
-996340
-996258
-996262
-996516
-996530
-996493
-996434
-996554
-996799
-996728
-996924
-997040
-997094
-997255
-997166
-997391
-997397
-997333
-997395
-997545
-997570
-997689
-997835
-997841
-997861
-997963
-998064
-998149
-998226
-998845
-998590
-998457
-998501
-998646
-998796
-998877
-998814
-998832
-998962
-999123
-999280
-999278
-999331
-999405
-999477
-999677
-999733
-999757
-999866
-999931
-999955
-1000122
-1000146
-1000280
-1000495
-1000555
-1000521
-1000648
-1000610
-1000709
-1000802
-1000832
-1000994
-1001251
-1001296
-1001371
-1001370
-1001455
-1001471
-1001627
-1001692
-1001741
-1001890
-1001982
-1002126
-1002339
-1002221
-1002419
-1002478
-1002538
-1002565
-1002717
-1002674
-1002831
-1002965
-1003012
-1003014
-1003195
-1003228
-1003361
-1003510
-1003594
-1003705
-1003679
-1003847
-1003775
-1003784
-1003932
-1003987
-1004043
-1003890
-1004078
-1004260
-1004255
-1004299
-1004411
-1004353
-1004475
-1004354
-1004463
-1004657
-1004693
-1004659
-1004788
-1004871
-1005024
-1004927
-1004857
-1005081
-1005101
-1005018
-1005169
-1005211
-1005300
-1005360
-1005400
-1005421
-1005504
-1005889
-1005621
-1005673
-1005640
-1005620
-1005753
-1005905
-1005949
-1006019
-1006054
-1005924
-1006040
-1006231
-1006238
-1006314
-1006400
-1006392
-1006454
-1006423
-1006463
-1006557
-1006676
-1006814
-1006728
-1006795
-1006873
-1007110
-1007065
-1006989
-1007180
-1007208
-1007204
-1007415
-1007322
-1007453
-1007663
-1007637
-1007802
-1007786
-1007809
-1007574
-1007906
-1008086
-1008107
-1008255
-1008288
-1008293
-1008483
-1008452
-1008498
-1008515
-1008737
-1008889
-1008944
-1009044
-1009085
-1009270
-1009233
-1009231
-1009321
-1009430
-1009548
-1009543
-1009786
-1009879
-1009900
-1010042
-1010121
-1010068
-1010108
-1010264
-1010340
-1010347
-1010499
-1010635
-1011341
-1011024
-1011084
-1011010
-1010976
-1011042
-1011095
-1011213
-1011482
-1011580
-1011562
-1011569
-1011747
-1011734
-1011781
-1011800
-1011936
-1012039
-1012081
-1012359
-1012324
-1012405
-1013301
-1012826
-1012721
-1012757
-1012808
-1012879
-1013075
-1013077
-1013228
-1013378
-1013362
-1013388
-1013543
-1013576
-1013549
-1013671
-1013736
-1013776
-1013824
-1013913
-1014126
-1014316
-1014204
-1014218
-1014165
-1014316
-1014397
-1014489
-1014593
-1014619
-1014758
-1014706
-1014903
-1014915
-1014936
-1015051
-1015123
-1015196
-1015243
-1015331
-1015461
-1015350
-1015464
-1015521
-1015584
-1015766
-1015708
-1015836
-1015953
-1015891
-1016114
-1016026
-1016039
-1016170
-1016198
-1016242
-1016321
-1016414
-1016489
-1016561
-1016646
-1016715
-1016595
-1016643
-1016772
-1016877
-1016644
-1016929
-1017085
-1017210
-1017365
-1017307
-1017154
-1017293
-1017417
-1017519
-1017566
-1017661
-1017837
-1017772
-1017973
-1017888
-1017866
-1017937
-1018025
-1018188
-1018156
-1018212
-1018428
-1018540
-1018558
-1018569
-1018599
-1018592
-1018764
-1018658
-1018949
-1019152
-1019218
-1019440
-1019360
-1019409
-1019472
-1019570
-1019754
-1019991
-1019997
-1019954
-1020155
-1020345
-1020367
-1020430
-1020534
-1020517
-1020670
-1020781
-1020817
-1021080
-1020819
-1021158
-1021163
-1021227
-1021233
-1021432
-1021517
-1021561
-1021580
-1021671
-1021746
-1021860
-1021909
-1022067
-1021954
-1021859
-1021962
-1022132
-1022151
-1022192
-1022095
-1022088
-1021893
-1021663
-1021516
-1021319
-1021097
-1020924
-1020681
-1020417
-1020031
-1019582
-1019097
-1018555
-1017917
-1017342
-1016832
-1016180
-1015517
-1015021
-1014307
-1014077
-1013118
-1012151
-1011514
-1010006
-1006027
-1005289
-1004649
-1004073
-1003642
-1002945
-1002468
-1002052
-1001276
-1001127
-1000660
-1000169
-999847
-999560
-999123
-998819
-998634
-998324
-998142
-997975
-997733
-997528
-997337
-997155
-997035
-997001
-996948
-997432
-996830
-996711
-996421
-996520
-996459
-996424
-996356
-996389
-996316
-996292
-996359
-996327
-996274
-996240
-996156
-996125
-996108
-996129
-996153
-996254
-996126
-996093
-995989
-996076
-995938
-995833
-995929
-995935
-995844
-995813
-995785
-995517
-995523
-995615
-995451
-995350
-995418
-995312
-995228
-995191
-994991
-995052
-994972
-994844
-994620
-994601
-994498
-994339
-994227
-994191
-994205
-994204
-994032
-993845
-993784
-993612
-993516
-993501
-993485
-993373
-993067
-993313
-993168
-993139
-992924
-992905
-992928
-992885
-992883
-992871
-992959
-992904
-992856
-992944
-992918
-992903
-992946
-993135
-993279
-993380
-993402
-993558
-993574
-993712
-993761
-994387
-994293
-994268
-994447
-994703
-994963
-995191
-995200
-995284
-995491
-995708
-995791
-995932
-996233
-996318
-996560
-996629
-996770
-996862
-997077
-997171
-997240
-997432
-997563
-997718
-997810
-997746
-997750
-997701
-997784
-997771
-997805
-997832
-997961
-997858
-997839
-997895
-997757
-997718
-997768
-997603
-997573
-997581
-997465
-997484
-997412
-997304
-997274
-997068
-996972
-996918
-996883
-996768
-996716
-996729
-996734
-996646
-996451
-996401
-996300
-996337
-996196
-996222
-996239
-996084
-996089
-996185
-996111
-996016
-995983
-995998
-995737
-995841
-995998
-995963
-996101
-996188
-996000
-996017
-995968
-995787
-995969
-996177
-996146
-996220
-996361
-996318
-996287
-996357
-996277
-996433
-996600
-996681
-996659
-996762
-996846
-996842
-996969
-997071
-996986
-997085
-997090
-997251
-997231
-997376
-997477
-997649
-997604
-997670
-997719
-997804
-997904
-997990
-998170
-998294
-998271
-998328
-998435
-998582
-998534
-998687
-998762
-998830
-998958
-999054
-999153
-999385
-999442
-999404
-999420
-999558
-999578
-999646
-999930
-1000011
-1000002
-1000181
-1000210
-1000247
-1000264
-1000436
-1000463
-1000523
-1000599
-1000789
-1000845
-1001078
-1001112
-1001110
-1001066
-1001312
-1001565
-1001556
-1001713
-1001780
-1001786
-1001993
-1001990
-1002072
-1002232
-1002247
-1002401
-1002411
-1002667
-1002777
-1002748
-1002802
-1002914
-1002961
-1002992
-1003062
-1003042
-1003174
-1003347
-1003507
-1003515
-1003506
-1003507
-1003675
-1003728
-1003878
-1003857
-1003746
-1003948
-1004162
-1005136
-1004380
-1004341
-1004243
-1004355
-1004476
-1004545
-1004633
-1004686
-1004774
-1004806
-1004781
-1004840
-1004872
-1004869
-1004982
-1005375
-1005216
-1005146
-1005258
-1005384
-1005183
-1005384
-1005510
-1005608
-1005676
-1005670
-1005903
-1005937
-1005841
-1005874
-1005890
-1006035
-1006131
-1006108
-1006295
-1006182
-1006315
-1006349
-1006588
-1006681
-1006629
-1006664
-1006738
-1006747
-1006824
-1006998
-1007008
-1007036
-1007135
-1007191
-1007196
-1007390
-1007335
-1007525
-1007611
-1007622
-1007528
-1007760
-1007810
-1007974
-1007961
-1007862
-1007890
-1008005
-1008012
-1008262
-1008284
-1008999
-1008509
-1008571
-1008593
-1008620
-1008658
-1008679
-1008820
-1008838
-1008888
-1008947
-1009614
-1009344
-1009276
-1009249
-1010307
-1009707
-1009643
-1009612
-1009737
-1009770
-1009880
-1009963
-1010057
-1010070
-1009969
-1010012
-1010120
-1010274
-1010368
-1010405
-1010578
-1010647
-1010697
-1010665
-1010744
-1010826
-1010888
-1011062
-1011078
-1011285
-1011355
-1011410
-1011455
-1011499
-1011483
-1011506
-1011604
-1011747
-1011816
-1011914
-1012077
-1012049
-1012057
-1012149
-1012183
-1012243
-1012331
-1012483
-1012589
-1012787
-1012685
-1012918
-1012903
-1012872
-1012968
-1013039
-1013206
-1013259
-1013467
-1013380
-1013473
-1013611
-1013559
-1013693
-1013756
-1013721
-1013927
-1014021
-1014050
-1014249
-1014078
-1014384
-1014345
-1014373
-1014399
-1014480
-1014626
-1014638
-1014764
-1014940
-1015020
-1015130
-1015144
-1015120
-1015175
-1016032
-1015603
-1015460
-1015665
-1015770
-1015777
-1015888
-1015802
-1015865
-1015941
-1015991
-1016113
-1016234
-1016362
-1016407
-1016608
-1016580
-1016541
-1016629
-1017227
-1016814
-1016950
-1016897
-1017015
-1017059
-1017103
-1017268
-1017289
-1017230
-1017347
-1017224
-1017347
-1017363
-1017474
-1017675
-1017622
-1017681
-1017703
-1017758
-1017876
-1018010
-1017910
-1017975
-1018095
-1018150
-1018195
-1018328
-1018310
-1018119
-1018385
-1018330
-1018449
-1018525
-1018400
-1018745
-1018907
-1018908
-1018953
-1018985
-1018952
-1019077
-1019201
-1019162
-1019294
-1019438
-1019454
-1019552
-1019539
-1019492
-1019561
-1019649
-1019659
-1019843
-1019968
-1020157
-1020254
-1020356
-1020291
-1020396
-1020395
-1020537
-1020628
-1020666
-1020749
-1020973
-1020990
-1021130
-1021194
-1021200
-1021312
-1021444
-1021264
-1021545
-1021646
-1021823
-1021965
-1022057
-1022090
-1021990
-1022040
-1022084
-1022387
-1022505
-1022429
-1022584
-1022585
-1022492
-1022393
-1022359
-1022246
-1022133
-1021961
-1021887
-1021660
-1021254
-1020908
-1020470
-1020167
-1019737
-1019275
-1018733
-1018127
-1017520
-1016908
-1016187
-1015608
-1014905
-1014286
-1013537
-1012864
-1009776
-1009005
-1008261
-1007480
-1006889
-1006087
-1005533
-1004966
-1004291
-1003701
-1002946
-1002422
-1001878
-1001240
-997725
-997471
-997231
-997066
-996881
-996799
-996564
-996476
-996220
-995990
-995802
-995700
-995782
-995665
-995638
-995592
-995506
-995394
-995240
-995197
-995210
-995185
-995097
-995155
-995187
-995074
-995061
-994920
-994908
-994714
-994626
-994648
-994631
-994506
-994533
-994334
-994392
-994288
-994223
-994005
-993771
-993687
-993724
-993558
-993409
-993318
-993304
-993188
-992884
-992724
-992557
-992521
-992260
-992199
-991935
-991861
-991653
-991657
-991445
-991164
-991051
-990741
-990646
-990459
-990315
-990264
-990075
-990029
-989738
-989619
-989359
-989294
-989181
-988948
-988824
-988792
-988834
-988601
-988449
-988312
-988211
-987884
-988004
-987909
-987788
-987699
-987619
-987725
-987493
-987489
-987412
-987283
-987330
-987291
-987407
-987433
-987486
-987544
-987519
-987628
-987722
-987769
-987915
-987940
-988076
-988220
-988389
-988554
-988713
-988845
-989028
-989196
-989322
-989545
-989690
-989840
-990176
-990385
-990393
-990537
-991034
-991322
-991484
-991461
-991803
-991860
-992037
-992116
-992207
-992304
-992436
-992476
-992665
-992636
-992706
-992827
-992770
-992858
-992931
-992939
-992849
-992795
-992888
-992991
-992972
-993012
-992832
-992384
-992566
-992501
-992595
-992551
-992486
-992497
-992509
-992418
-992291
-992090
-992040
-992076
-992054
-991938
-991941
-991955
-992011
-992035
-991913
-991815
-991795
-991728
-991713
-991684
-991719
-991738
-991781
-991884
-991794
-991778
-991707
-991757
-991899
-991835
-991940
-992006
-992099
-992173
-992126
-992188
-992143
-992270
-992258
-992273
-992384
-992514
-992714
-992704
-992755
-992716
-992653
-992774
-993045
-993044
-993227
-993426
-993458
-993454
-993397
-993518
-993699
-993685
-993857
-993890
-994051
-994137
-994086
-994131
-994204
-994175
-994266
-994410
-994526
-994585
-994672
-994780
-994803
-994934
-994853
-995043
-995199
-995042
-995314
-995487
-995535
-995793
-995818
-995745
-995797
-995914
-996207
-996144
-996341
-997044
-996616
-996641
-996611
-996604
-996666
-996814
-996981
-997111
-997176
-997254
-997448
-997518
-997581
-997683
-997772
-997862
-997875
-998019
-998080
-998375
-998450
-998470
-998569
-998281
-998495
-998779
-998825
-998996
-999164
-999293
-999274
-999495
-999604
-999683
-999523
-999657
-999684
-999911
-999994
-1000005
-1000082
-1000188
-1000277
-1000349
-1000284
-1000385
-1000593
-1000563
-1000649
-1000805
-1000931
-1000933
-1001076
-1001041
-1000993
-1001202
-1001383
-1001281
-1001340
-1001504
-1001672
-1001702
-1001790
-1001830
-1001574
-1001762
-1001969
-1001975
-1002027
-1002244
-1002350
-1002486
-1002308
-1002494
-1002515
-1002497
-1002616
-1002680
-1002846
-1002877
-1003030
-1002976
-1003060
-1003074
-1003257
-1003231
-1003370
-1003516
-1003420
-1003553
-1003558
-1003633
-1003621
-1003692
-1003723
-1003879
-1003882
-1003984
-1004183
-1004253
-1004224
-1004394
-1004335
-1004368
-1004402
-1004466
-1004633
-1004609
-1004731
-1004755
-1004930
-1005030
-1005105
-1005070
-1005104
-1005701
-1005443
-1005442
-1005546
-1005568
-1005735
-1005860
-1005791
-1005822
-1005870
-1005908
-1006052
-1006198
-1006267
-1006363
-1006419
-1006605
-1006657
-1006610
-1006649
-1006755
-1006887
-1007038
-1007123
-1007194
-1007365
-1007378
-1007414
-1007448
-1007576
-1007700
-1007716
-1007793
-1007923
-1007988
-1008038
-1008156
-1008217
-1008221
-1008234
-1008481
-1008521
-1008658
-1008782
-1008973
-1008945
-1009025
-1009055
-1009214
-1008986
-1009319
-1009489
-1009600
-1009657
-1009763
-1009905
-1009956
-1009988
-1009941
-1010029
-1010163
-1010328
-1010426
-1010411
-1010532
-1010641
-1010740
-1010776
-1010818
-1011007
-1011058
-1011263
-1011161
-1011413
-1011469
-1011592
-1011644
-1011660
-1011845
-1011963
-1011930
-1011912
-1012072
-1012321
-1012408
-1012513
-1012500
-1012545
-1012528
-1012628
-1012697
-1012738
-1012894
-1013053
-1013196
-1013228
-1013421
-1013338
-1013464
-1013534
-1013512
-1013671
-1013805
-1013843
-1013904
-1014116
-1014174
-1014191
-1014267
-1014396
-1014613
-1014529
-1014662
-1014816
-1014886
-1014946
-1014942
-1014993
-1014999
-1015079
-1015222
-1015205
-1015344
-1015414
-1015481
-1015574
-1015514
-1015544
-1015488
-1015588
-1016432
-1016038
-1015990
-1015993
-1015978
-1016169
-1016203
-1016421
-1016467
-1016653
-1016674
-1016771
-1016747
-1016798
-1016814
-1017010
-1017064
-1017089
-1017257
-1017339
-1017463
-1017583
-1017502
-1017536
-1017644
-1017744
-1017861
-1017903
-1018012
-1018171
-1018231
-1018198
-1018354
-1018382
-1018471
-1018645
-1018650
-1018644
-1018850
-1019028
-1019081
-1019102
-1019148
-1019128
-1019139
-1019314
-1019520
-1019586
-1019746
-1019886
-1019941
-1020014
-1020068
-1020057
-1020135
-1020236
-1020464
-1020483
-1020487
-1020596
-1020709
-1020792
-1020834
-1020968
-1020889
-1020787
-1021146
-1021306
-1021353
-1021282
-1021320
-1021419
-1021315
-1021338
-1021165
-1021076
-1021045
-1020946
-1020832
-1020617
-1020492
-1020069
-1019675
-1019396
-1018874
-1018435
-1017995
-1017489
-1017004
-1016532
-1015762
-1015147
-1014444
-1013808
-1013080
-1012406
-1011853
-1011010
-1010217
-1009547
-1008886
-1008138
-1007467
-1006650
-1005910
-1005210
-1004634
-1003958
-1003379
-1002731
-1002271
-1001631
-1001123
-1000527
-999971
-999672
-999231
-998779
-998412
-998144
-997919
-997494
-997304
-996941
-996777
-996539
-996505
-996235
-996131
-996009
-995891
-995866
-995663
-995399
-995525
-995410
-995453
-995139
-995259
-995365
-995436
-995353
-995179
-995223
-995126
-995067
-995192
-995102
-995107
-995126
-995077
-995052
-994844
-994726
-994750
-994720
-994637
-994509
-994430
-994419
-994368
-994416
-994277
-994102
-993941
-993825
-993798
-993652
-993506
-993532
-993460
-993346
-993090
-992947
-992646
-992516
-992480
-992341
-992131
-992094
-991984
-991800
-991689
-991445
-991326
-991129
-991112
-990960
-990785
-990643
-990500
-990501
-990316
-990074
-989976
-989902
-989792
-989685
-989667
-989615
-989474
-989475
-989268
-989202
-989093
-989016
-988638
-988803
-988933
-989003
-988950
-989000
-988996
-988965
-988916
-988902
-988889
-989022
-989196
-989326
-989357
-989528
-989575
-989686
-989802
-989929
-990095
-990361
-990536
-990742
-990840
-991056
-991122
-991369
-991501
-991713
-991900
-992145
-992258
-992392
-992531
-992874
-992971
-993163
-993218
-993284
-993547
-993677
-993885
-993819
-994082
-994208
-994154
-994272
-994425
-994475
-994543
-994493
-994441
-994527
-994718
-994682
-994716
-994665
-994609
-994637
-994666
-994573
-994524
-994465
-994476
-994494
-994391
-994183
-994115
-993979
-993990
-993890
-993858
-993775
-993745
-993760
-993619
-993542
-993400
-993495
-993498
-993533
-993352
-993397
-993366
-993389
-993323
-993193
-993249
-993290
-993349
-993323
-993389
-993393
-993307
-993357
-993409
-993337
-993288
-993401
-993435
-993447
-993625
-993644
-993784
-993825
-993850
-993937
-993831
-993851
-994024
-994119
-994270
-994396
-994352
-994389
-994519
-994480
-994559
-994717
-994789
-994874
-994914
-995026
-995143
-995353
-995343
-995388
-995355
-995475
-995700
-995761
-995840
-995904
-996016
-996145
-996195
-996253
-996384
-996530
-996536
-996620
-996856
-997031
-997107
-997137
-997245
-997239
-997275
-997376
-997546
-997565
-997858
-997988
-998084
-998250
-998139
-997973
-998200
-998352
-998571
-998654
-998775
-998826
-998949
-999064
-999005
-999123
-999122
-999231
-999495
-999592
-999324
-999694
-999623
-999866
-999907
-999999
-1000090
-1000148
-1000360
-1000362
-1000468
-1000616
-1000601
-1000773
-1000848
-1000866
-1000934
-1000981
-1001109
-1001188
-1001412
-1001462
-1001408
-1001488
-1001707
-1001679
-1001655
-1001742
-1001860
-1001890
-1001980
-1002175
-1002345
-1002362
-1002396
-1002450
-1002533
-1002509
-1002567
-1002668
-1002849
-1002912
-1002959
-1003165
-1003618
-1003312
-1003215
-1003087
-1003347
-1003451
-1003543
-1003660
-1003635
-1003758
-1003730
-1003878
-1003873
-1004088
-1004136
-1004226
-1004275
-1004325
-1004528
-1004448
-1004503
-1004529
-1004512
-1004694
-1004779
-1004777
-1004957
-1004988
-1005095
-1005007
-1005179
-1005212
-1005329
-1005325
-1005413
-1005569
-1005525
-1005442
-1005768
-1005745
-1005739
-1005873
-1006516
-1006229
-1006153
-1006156
-1006389
-1006460
-1006564
-1006580
-1006563
-1006497
-1006580
-1006748
-1006837
-1006983
-1006985
-1007222
-1007286
-1007303
-1007412
-1007228
-1007467
-1007535
-1007591
-1007681
-1007811
-1007841
-1008059
-1008009
-1007753
-1008012
-1008825
-1008621
-1008594
-1008655
-1008611
-1008800
-1008910
-1008868
-1008960
-1008993
-1009150
-1009324
-1009248
-1009368
-1009485
-1009599
-1009850
-1009841
-1009751
-1009861
-1009943
-1010058
-1010121
-1010310
-1010445
-1010443
-1010684
-1010720
-1010657
-1010805
-1010972
-1011027
-1011029
-1011125
-1011231
-1011272
-1011553
-1011526
-1011435
-1011706
-1011796
-1011972
-1012160
-1012246
-1012347
-1012471
-1012495
-1012290
-1012588
-1012598
-1012761
-1012836
-1012987
-1013150
-1013070
-1013232
-1013329
-1013322
-1013967
-1013759
-1013674
-1013700
-1013865
-1013858
-1014014
-1013958
-1014032
-1014218
-1014375
-1014539
-1014505
-1014663
-1014676
-1014753
-1014934
-1014959
-1015092
-1015102
-1015191
-1015145
-1015365
-1015530
-1015571
-1015704
-1015658
-1015761
-1015904
-1015940
-1016012
-1016040
-1016197
-1016273
-1016323
-1016389
-1016608
-1016716
-1016741
-1016763
-1016813
-1017790
-1017237
-1017089
-1017011
-1017266
-1017486
-1017516
-1017549
-1017526
-1017720
-1017741
-1017817
-1017920
-1017856
-1017977
-1018201
-1018293
-1018595
-1018555
-1018626
-1018751
-1018811
-1018772
-1018736
-1018893
-1018958
-1018802
-1019140
-1019333
-1019302
-1019299
-1019347
-1019478
-1020183
-1019820
-1019659
-1019833
-1019845
-1019877
-1019895
-1020102
-1020163
-1020161
-1020197
-1020218
-1020242
-1020453
-1020504
-1020618
-1020678
-1020869
-1020800
-1020681
-1020869
-1020864
-1021049
-1021255
-1021272
-1021389
-1021522
-1021543
-1021551
-1021675
-1021782
-1021748
-1021814
-1021996
-1022022
-1022112
-1022288
-1022345
-1022164
-1022325
-1022413
-1022543
-1022535
-1022860
-1022868
-1022968
-1023183
-1023285
-1023378
-1023434
-1023448
-1023426
-1023686
-1023738
-1023917
-1023984
-1024006
-1024079
-1024201
-1024321
-1024332
-1024441
-1024399
-1024590
-1024944
-1024696
-1024707
-1024686
-1024832
-1024718
-1024803
-1024706
-1024552
-1024624
-1024130
-1024135
-1024024
-1023941
-1023693
-1023959
-1023149
-1022544
-1022595
-1021959
-1021193
-1020581
-1020093
-1019610
-1019053
-1018395
-1017711
-1017097
-1016444
-1015820
-1015144
-1014408
-1013751
-1012922
-1012252
-1011432
-1010773
-1010192
-1009681
-1008976
-1008340
-1007775
-1007309
-1006621
-1006046
-1005501
-1004950
-1004514
-1004078
-1003631
-1003352
-1002978
-1002675
-1002273
-1002144
-1001708
-1001424
-1001339
-1001202
-1001073
-1000867
-1000700
-1000548
-1000485
-1000375
-1000291
-1000192
-1000184
-1000383
-1000060
-999979
-1000043
-1000071
-1000039
-1000034
-1000060
-999948
-999958
-999823
-999825
-999902
-999901
-999887
-1000416
-999960
-999857
-999711
-999781
-999595
-999531
-999484
-999538
-999561
-999348
-999352
-999091
-998982
-998931
-998911
-999097
-998790
-998504
-998438
-998335
-998248
-998067
-997909
-997947
-997719
-997665
-997573
-998362
-997700
-997293
-997105
-996920
-996883
-996859
-996626
-996573
-996497
-996376
-996219
-996095
-995981
-995793
-995720
-995643
-995628
-995462
-995413
-995401
-995316
-995290
-995188
-995121
-995056
-995117
-995011
-995068
-995137
-995114
-995162
-995178
-995242
-995260
-995255
-995451
-995386
-995553
-995758
-995866
-995854
-995758
-996115
-996281
-996455
-996759
-996948
-997115
-997305
-997491
-997555
-997732
-997852
-998119
-998207
-998412
-998663
-998938
-999018
-999186
-999375
-999541
-999714
-999736
-999894
-1000004
-1000045
-1000250
-1000391
-1000507
-1000495
-1000522
-1000641
-1000715
-1000592
-1000641
-1000757
-1000803
-1000835
-1000750
-1000689
-1000759
-1000715
-1000500
-1000430
-1000453
-1000417
-1000419
-1000418
-1000381
-1000367
-1000286
-1000114
-999942
-999905
-999936
-999881
-999821
-999762
-999864
-999721
-999627
-999497
-999393
-999409
-999582
-999551
-999561
-999495
-999428
-999517
-999390
-999378
-999302
-999170
-999367
-999437
-999397
-999449
-999541
-999615
-999461
-999491
-999484
-999531
-999609
-999700
-999737
-999782
-999877
-999875
-1000038
-1000056
-1000053
-1000095
-1000307
-1000294
-1000283
-1000464
-1000632
-1000641
-1000592
-1000754
-1000657
-1000833
-1000947
-1001060
-1001222
-1001193
-1001331
-1001339
-1001493
-1001486
-1001545
-1001645
-1001678
-1001811
-1001902
-1002129
-1002291
-1002417
-1002304
-1002379
-1002375
-1002406
-1002639
-1002709
-1002818
-1002995
-1003121
-1003183
-1003237
-1003235
-1003234
-1003347
-1003563
-1003769
-1003834
-1003891
-1003974
-1004153
-1004078
-1004061
-1004180
-1004255
-1004480
-1004528
-1004691
-1004823
-1004740
-1005022
-1004966
-1005049
-1005005
-1005227
-1005297
-1005311
-1005462
-1005604
-1005745
-1005862
-1005764
-1005911
-1005997
-1005981
-1006193
-1006215
-1006375
-1006547
-1006604
-1006620
-1006731
-1006604
-1006704
-1006905
-1006919
-1007007
-1007123
-1007205
-1007257
-1007424
-1007560
-1007461
-1007589
-1007592
-1007782
-1007629
-1007877
-1007961
-1007998
-1008064
-1008200
-1008268
-1008312
-1008289
-1008442
-1008596
-1008547
-1008720
-1008817
-1008808
-1008824
-1009012
-1009014
-1008969
-1009061
-1009204
-1009137
-1008988
-1009415
-1009561
-1009448
-1009615
-1009577
-1009504
-1009775
-1009872
-1009991
-1010003
-1009783
-1010050
-1010104
-1010199
-1010277
-1010347
-1010407
-1010378
-1010454
-1010552
-1010625
-1010651
-1010657
-1010754
-1010742
-1010902
-1010939
-1011063
-1011117
-1011149
-1011348
-1011355
-1011469
-1011403
-1011386
-1011573
-1011701
-1011664
-1011793
-1011827
-1012005
-1011909
-1012084
-1012090
-1012205
-1012234
-1012452
-1012510
-1012584
-1012636
-1012603
-1012864
-1012822
-1012892
-1012971
-1013018
-1013076
-1013073
-1013194
-1013424
-1013527
-1013522
-1013563
-1013600
-1013661
-1013810
-1013793
-1014574
-1014289
-1014268
-1014288
-1014292
-1014288
-1014424
-1014482
-1014524
-1014646
-1014756
-1014778
-1014975
-1015076
-1015147
-1015256
-1015352
-1015373
-1015480
-1015564
-1015672
-1015751
-1015830
-1015856
-1015730
-1015936
-1016023
-1016040
-1016215
-1016250
-1016390
-1016373
-1016618
-1016717
-1016830
-1016877
-1016796
-1016932
-1016938
-1017135
-1017242
-1017365
-1017464
-1017443
-1017660
-1017618
-1017695
-1017801
-1017779
-1018381
-1018207
-1018163
-1018224
-1018279
-1018318
-1018363
-1018462
-1018481
-1018534
-1018608
-1018739
-1018936
-1018722
-1018989
-1019214
-1019188
-1019215
-1019378
-1019394
-1019435
-1019550
-1019758
-1019868
-1019929
-1020834
-1020202
-1020101
-1019934
-1020187
-1020262
-1020296
-1020445
-1020548
-1020284
-1020587
-1020615
-1020676
-1020723
-1020784
-1020905
-1021045
-1021191
-1021409
-1021386
-1021572
-1021687
-1021699
-1021758
-1021785
-1021885
-1021929
-1021932
-1022060
-1022119
-1022120
-1022296
-1022259
-1022322
-1022557
-1022574
-1022562
-1022684
-1022356
-1022560
-1022843
-1022963
-1023035
-1023172
-1023265
-1023312
-1023326
-1023265
-1023402
-1023379
-1023428
-1023643
-1023769
-1023741
-1023900
-1023916
-1023925
-1023968
-1023782
-1023793
-1024188
-1024310
-1024428
-1024526
-1024639
-1024658
-1024760
-1024718
-1024805
-1024929
-1024967
-1025168
-1025210
-1025353
-1025488
-1025639
-1025475
-1025617
-1025681
-1025807
-1025907
-1025952
-1026175
-1026309
-1026432
-1026423
-1026418
-1026419
-1026594
-1026737
-1026840
-1026857
-1027125
-1027149
-1027240
-1027405
-1027334
-1027340
-1027407
-1027497
-1027670
-1027694
-1027736
-1027904
-1027870
-1028035
-1027907
-1027871
-1027901
-1027892
-1027960
-1027948
-1027817
-1027645
-1027437
-1027174
-1026855
-1026673
-1026362
-1026054
-1025584
-1025306
-1024842
-1024324
-1023907
-1023363
-1022607
-1022012
-1021455
-1020752
-1020195
-1019559
-1018815
-1018211
-1017642
-1017004
-1016255
-1015577
-1014929
-1014322
-1013749
-1012926
-1012410
-1011872
-1011351
-1010801
-1010333
-1009730
-1009339
-1008924
-1008455
-1008050
-1007625
-1007399
-1006917
-1006797
-1006380
-1006129
-1006005
-1005695
-1005995
-1005536
-1005383
-1005264
-1005165
-1004994
-1004958
-1004785
-1004721
-1004705
-1004752
-1004717
-1004591
-1004647
-1004660
-1004695
-1004614
-1004515
-1004567
-1004511
-1004540
-1004649
-1004581
-1004675
-1004681
-1004742
-1004694
-1004623
-1004538
-1004557
-1004598
-1004609
-1004574
-1004620
-1004632
-1004554
-1005102
-1004554
-1004424
-1004241
-1004209
-1004097
-1004221
-1004244
-1004210
-1004086
-1003919
-1003818
-1003747
-1003689
-1003695
-1003665
-1003679
-1003565
-1003509
-1003310
-1003152
-1003042
-1003046
-1002939
-1002929
-1002845
-1002749
-1002759
-1002677
-1002545
-1002383
-1002232
-1002116
-1002189
-1002230
-1002021
-1001919
-1001942
-1001947
-1002005
-1001936
-1001820
-1001718
-1001729
-1001889
-1001865
-1001846
-1001978
-1002088
-1002107
-1002075
-1002167
-1001966
-1002218
-1002404
-1002575
-1002611
-1002703
-1002873
-1003067
-1003230
-1003334
-1003452
-1003658
-1003930
-1004074
-1004260
-1004431
-1004684
-1004790
-1004903
-1005047
-1005214
-1005388
-1005595
-1005702
-1005947
-1005942
-1006142
-1006329
-1006265
-1006422
-1006426
-1006646
-1006661
-1006693
-1006727
-1006818
-1006893
-1006890
-1006986
-1006658
-1006827
-1006916
-1006901
-1006940
-1007036
-1006937
-1006902
-1006926
-1006850
-1006803
-1006693
-1006654
-1006626
-1006488
-1006539
-1006370
-1006340
-1006211
-1006296
-1006195
-1006125
-1005978
-1005979
-1005860
-1005794
-1005940
-1005797
-1005840
-1005729
-1005724
-1005256
-1005550
-1005586
-1005573
-1005547
-1005623
-1005677
-1005607
-1005497
-1005633
-1005553
-1005564
-1005649
-1005665
-1005732
-1005700
-1005879
-1005885
-1005982
-1005880
-1005879
-1005920
-1006855
-1006274
-1006158
-1006262
-1006296
-1006467
-1006429
-1006453
-1006456
-1006646
-1006692
-1006638
-1006632
-1006876
-1007112
-1007114
-1007099
-1007156
-1007311
-1007446
-1007558
-1007633
-1007604
-1007737
-1007836
-1007901
-1008043
-1008008
-1008100
-1008260
-1008277
-1008834
-1008735
-1008641
-1008737
-1008748
-1008941
-1008997
-1008940
-1009157
-1009301
-1009373
-1009474
-1009522
-1009680
-1009660
-1009759
-1009730
-1009830
-1009956
-1010027
-1010185
-1010376
-1010385
-1010431
-1010533
-1010543
-1010681
-1010710
-1010921
-1010936
-1011082
-1011192
-1011171
-1011316
-1011433
-1011541
-1011558
-1011564
-1011631
-1011795
-1011864
-1012020
-1011999
-1012206
-1012311
-1012284
-1012293
-1012381
-1012481
-1012661
-1012683
-1012801
-1012774
-1012868
-1013036
-1013009
-1013126
-1013220
-1013254
-1013476
-1013554
-1013515
-1013606
-1013667
-1013760
-1013833
-1013978
-1014031
-1014035
-1014195
-1014234
-1014266
-1014435
-1014556
-1014621
-1014622
-1014619
-1014507
-1014640
-1014700
-1014900
-1014881
-1014896
-1015056
-1015161
-1015110
-1015175
-1015264
-1015267
-1015347
-1015317
-1015386
-1015594
-1015674
-1015751
-1015637
-1015633
-1015733
-1015879
-1015884
-1015885
-1015907
-1016015
-1016039
-1015775
-1016084
-1016107
-1016272
-1016323
-1016330
-1016469
-1016426
-1016631
-1016655
-1016707
-1016625
-1016657
-1016665
-1016843
-1016795
-1016815
-1016908
-1016905
-1017021
-1017090
-1017232
-1017123
-1017189
-1017158
-1017261
-1017281
-1017394
-1017451
-1017455
-1017507
-1017554
-1017637
-1017517
-1017770
-1017786
-1017852
-1017736
-1017852
-1017936
-1017977
-1018038
-1018047
-1018181
-1018211
-1018390
-1018371
-1018487
-1018593
-1018661
-1018648
-1018740
-1018776
-1018818
-1018972
-1019162
-1019123
-1019239
-1019414
-1019569
-1019648
-1019541
-1019737
-1019834
-1019993
-1020022
-1020119
-1020293
-1020307
-1020459
-1020668
-1020675
-1020689
-1020690
-1020781
-1020929
-1021194
-1021231
-1021432
-1021577
-1021569
-1021720
-1021797
-1021874
-1021913
-1021978
-1022160
-1022185
-1022328
-1022528
-1022574
-1022666
-1022681
-1022732
-1022982
-1023138
-1023170
-1023304
-1023312
-1023514
-1023497
-1023566
-1023771
-1023685
-1023979
-1024081
-1024114
-1024230
-1024288
-1024392
-1024418
-1024541
-1024526
-1024564
-1024649
-1024821
-1024925
-1025065
-1025170
-1025189
-1025780
-1025658
-1025857
-1025877
-1026036
-1026135
-1026226
-1026264
-1026340
-1026433
-1026438
-1026509
-1026741
-1026721
-1026810
-1026831
-1026982
-1026955
-1027047
-1027105
-1027188
-1027282
-1027388
-1027509
-1027490
-1027524
-1027542
-1027743
-1027399
-1027638
-1028243
-1028100
-1027965
-1028028
-1028154
-1028226
-1028361
-1028235
-1028948
-1028648
-1028550
-1028551
-1028729
-1028841
-1028876
-1028941
-1028975
-1028910
-1029032
-1029061
-1029133
-1029283
-1029286
-1029331
-1029403
-1029500
-1029576
-1029488
-1029357
-1029690
-1029765
-1029719
-1029876
-1030034
-1030133
-1030131
-1030190
-1030095
-1030202
-1030200
-1030254
-1030347
-1030480
-1030578
-1030741
-1030830
-1030810
-1030869
-1030905
-1031012
-1031082
-1031130
-1031023
-1031387
-1031560
-1031681
-1031619
-1031650
-1031730
-1031911
-1031912
-1031997
-1032110
-1032307
-1032378
-1032419
-1032606
-1032577
-1032600
-1032693
-1032929
-1032992
-1033043
-1033193
-1033297
-1033332
-1033289
-1033369
-1033377
-1033613
-1033657
-1033909
-1034073
-1034126
-1034051
-1034201
-1034172
-1034116
-1034096
-1034297
-1034385
-1034252
-1034169
-1034279
-1034209
-1033989
-1033813
-1033614
-1033279
-1033179
-1032751
-1032571
-1032204
-1031799
-1031351
-1030750
-1030959
-1029962
-1029131
-1028410
-1027828
-1027148
-1026454
-1025807
-1025117
-1024439
-1023536
-1022819
-1022053
-1021397
-1020790
-1019968
-1019406
-1018808
-1018123
-1017492
-1016760
-1016181
-1015523
-1014942
-1014514
-1013957
-1013570
-1013162
-1012700
-1012882
-1011551
-1011202
-1010899
-1010749
-1010361
-1010153
-1010025
-1009994
-1009872
-1009541
-1009532
-1009299
-1009292
-1009260
-1009209
-1009042
-1009050
-1009139
-1009098
-1008947
-1008931
-1008864
-1008979
-1009048
-1008983
-1009017
-1009061
-1009079
-1009012
-1008911
-1008809
-1008890
-1008677
-1008766
-1008874
-1008779
-1008897
-1008924
-1008783
-1008696
-1008747
-1008760
-1008552
-1008558
-1008449
-1008371
-1008283
-1008258
-1008179
-1007996
-1007856
-1007749
-1007663
-1007608
-1007489
-1007353
-1007286
-1007057
-1007126
-1006963
-1006868
-1006625
-1006563
-1006405
-1006302
-1006111
-1006005
-1006035
-1005853
-1005735
-1005532
-1005358
-1005199
-1005201
-1005056
-1004938
-1004842
-1004825
-1004492
-1004425
-1004188
-1004266
-1004208
-1004170
-1004067
-1004164
-1004001
-1004013
-1003945
-1004609
-1003976
-1003801
-1004190
-1003913
-1003919
-1003936
-1003948
-1004023
-1003953
-1003762
-1003952
-1004143
-1004309
-1004330
-1004478
-1004689
-1004631
-1004880
-1004954
-1005090
-1005491
-1005468
-1005641
-1005700
-1005942
-1006289
-1006451
-1006685
-1006733
-1006909
-1007006
-1007219
-1007335
-1007582
-1007696
-1007849
-1008482
-1008326
-1008363
-1008330
-1008528
-1008623
-1008674
-1008845
-1008891
-1009070
-1009187
-1009294
-1009264
-1009178
-1009108
-1009173
-1009172
-1009304
-1009285
-1009268
-1009276
-1009274
-1009257
-1009142
-1008992
-1008952
-1008901
-1008911
-1008988
-1008926
-1008834
-1008888
-1008744
-1008653
-1008815
-1008585
-1008402
-1008395
-1008371
-1008268
-1008286
-1008296
-1008211
-1008197
-1008043
-1007916
-1007970
-1007851
-1007872
-1007824
-1007868
-1007862
-1007952
-1007895
-1007798
-1007864
-1007851
-1007979
-1007950
-1007940
-1007910
-1008063
-1008081
-1008112
-1008053
-1008190
-1008228
-1008332
-1008265
-1008346
-1008421
-1008507
-1008588
-1008560
-1008552
-1008637
-1008843
-1008845
-1008977
-1009302
-1009320
-1009402
-1009374
-1009212
-1009606
-1009737
-1009787
-1009863
-1009889
-1009993
-1010038
-1010122
-1010276
-1010285
-1010409
-1011132
-1010724
-1010843
-1010821
-1011029
-1011014
-1011109
-1011048
-1011030
-1011195
-1011290
-1011399
-1011506
-1011631
-1011836
-1011829
-1011882
-1012081
-1012218
-1012237
-1012352
-1012430
-1012503
-1012660
-1012799
-1012810
-1012923
-1013023
-1012956
-1013166
-1013216
-1013203
-1013423
-1013543
-1013703
-1013774
-1013709
-1013842
-1013843
-1013925
-1014094
-1014137
-1014244
-1014295
-1014426
-1014596
-1014492
-1014556
-1014667
-1014834
-1014600
-1014867
-1014980
-1015172
-1015179
-1015360
-1015294
-1015325
-1015472
-1015506
-1015692
-1015754
-1015807
-1015843
-1016032
-1016052
-1016201
-1016165
-1016148
-1016329
-1016438
-1016461
-1016647
-1016741
-1016788
-1016849
-1016896
-1016858
-1016930
-1016970
-1017004
-1017099
-1017174
-1017346
-1017394
-1017532
-1017441
-1017514
-1018113
-1017801
-1017737
-1017768
-1017767
-1017889
-1017922
-1018132
-1018056
-1018072
-1018188
-1018318
-1018407
-1018367
-1018360
-1018484
-1018684
-1018671
-1018720
-1018842
-1018899
-1018939
-1018911
-1018998
-1019153
-1019175
-1019250
-1019334
-1019431
-1019497
-1019413
-1019578
-1019633
-1019857
-1019839
-1019971
-1019958
-1020139
-1020075
-1020142
-1020269
-1020327
-1020142
-1020428
-1020549
-1020670
-1020767
-1020827
-1020760
-1020832
-1020966
-1021129
-1021224
-1021261
-1021289
-1021406
-1021391
-1021404
-1021587
-1021510
-1021665
-1021658
-1021793
-1021895
-1022047
-1022113
-1022009
-1022206
-1022262
-1022329
-1022344
-1022475
-1022597
-1022718
-1022868
-1022927
-1022989
-1023089
-1023133
-1023035
-1023253
-1023266
-1023346
-1023486
-1023609
-1023767
-1023716
-1023617
-1023877
-1023960
-1023920
-1024167
-1024215
-1024423
-1024488
-1024627
-1024658
-1024805
-1024838
-1024802
-1024911
-1025075
-1025054
-1025308
-1025268
-1025487
-1025610
-1025510
-1025522
-1025710
-1025890
-1025911
-1025978
-1026127
-1026179
-1026239
-1026254
-1026279
-1026429
-1026462
-1026553
-1026716
-1026766
-1026792
-1026963
-1027185
-1027264
-1027231
-1027283
-1027314
-1027490
-1027641
-1027669
-1027723
-1027914
-1027996
-1028108
-1028045
-1028058
-1028079
-1028212
-1028257
-1028498
-1028655
-1028664
-1028865
-1028963
-1029008
-1028966
-1029060
-1029146
-1029230
-1029428
-1029509
-1029510
-1029659
-1029743
-1029724
-1029791
-1029785
-1029907
-1029939
-1030098
-1030189
-1030212
-1030347
-1030572
-1030549
-1030518
-1030534
-1030654
-1030824
-1030838
-1031056
-1030968
-1031168
-1031197
-1031162
-1031268
-1031233
-1031305
-1031275
-1031366
-1031429
-1031544
-1031604
-1031669
-1031628
-1031655
-1031763
-1031900
-1031916
-1031959
-1032070
-1032131
-1032115
-1032134
-1032150
-1032225
-1032214
-1032329
-1032408
-1032457
-1032692
-1032545
-1032526
-1032581
-1032567
-1032607
-1032788
-1032927
-1032687
-1032851
-1032880
-1032846
-1032830
-1032942
-1032971
-1032964
-1033113
-1033149
-1033060
-1033088
-1033660
-1033074
-1032943
-1033064
-1032991
-1033056
-1033079
-1033216
-1033234
-1033311
-1033296
-1033287
-1033164
-1033367
-1033433
-1033476
-1033652
-1033810
-1033875
-1034031
-1034011
-1034081
-1034203
-1034329
-1034258
-1034273
-1034367
-1034412
-1034383
-1034291
-1034325
-1034171
-1034164
-1034224
-1034111
-1034019
-1034068
-1033915
-1033933
-1033897
-1033923
-1033927
-1033718
-1033566
-1033213
-1032914
-1032577
-1032306
-1031833
-1031436
-1030808
-1030275
-1029707
-1029066
-1028466
-1027887
-1027342
-1026797
-1026150
-1025509
-1024719
-1024072
-1023310
-1022723
-1022004
-1021573
-1020922
-1020430
-1019842
-1019220
-1018588
-1017800
-1017382
-1016997
-1016491
-1016062
-1015704
-1015352
-1014976
-1014743
-1014283
-1013943
-1013580
-1013229
-1013271
-1013118
-1012957
-1012830
-1012787
-1012548
-1012508
-1012215
-1012108
-1012149
-1012155
-1012119
-1012183
-1012092
-1012071
-1011989
-1011916
-1011878
-1011920
-1011972
-1012076
-1012021
-1012045
-1012172
-1012198
-1012200
-1012209
-1012068
-1012082
-1012110
-1012052
-1011996
-1012140
-1012066
-1012130
-1012053
-1012014
-1011847
-1011759
-1011852
-1011888
-1011726
-1011749
-1011669
-1011631
-1011460
-1011269
-1011184
-1011050
-1011001
-1011026
-1010882
-1010629
-1010513
-1010570
-1010415
-1010171
-1009999
-1009828
-1009903
-1009814
-1009603
-1009468
-1009454
-1009420
-1009308
-1009102
-1008879
-1008627
-1008653
-1008463
-1008484
-1008448
-1008251
-1008193
-1008076
-1007928
-1007835
-1007845
-1007695
-1007618
-1007570
-1007544
-1007520
-1007487
-1007515
-1007474
-1007383
-1007412
-1007554
-1007558
-1007566
-1007545
-1007671
-1007759
-1007814
-1007929
-1008088
-1008168
-1008327
-1008527
-1008609
-1008867
-1009057
-1009192
-1009321
-1009367
-1009551
-1009753
-1009961
-1010149
-1010310
-1010590
-1010789
-1010879
-1011012
-1011256
-1011250
-1011424
-1011591
-1011803
-1011988
-1012038
-1012266
-1012310
-1012259
-1012483
-1012455
-1012482
-1012727
-1012797
-1012849
-1012980
-1013058
-1012911
-1012878
-1012962
-1013015
-1012961
-1012872
-1012977
-1012969
-1013017
-1012991
-1013607
-1013028
-1012699
-1012548
-1012246
-1012382
-1012462
-1012499
-1012447
-1012410
-1012235
-1012089
-1012045
-1011919
-1011801
-1011784
-1011801
-1011853
-1011777
-1011743
-1011769
-1011658
-1011593
-1011505
-1011530
-1011591
-1011621
-1011545
-1011555
-1011690
-1011632
-1011560
-1011556
-1011587
-1011564
-1011579
-1011638
-1011758
-1011806
-1011840
-1011901
-1011876
-1011979
-1012085
-1012053
-1012084
-1012213
-1012319
-1012382
-1012475
-1012357
-1012583
-1012700
-1012740
-1012751
-1012823
-1012926
-1013079
-1013145
-1013254
-1013348
-1013324
-1013451
-1013455
-1013626
-1013813
-1013672
-1013914
-1014059
-1014116
-1014133
-1014165
-1014368
-1014354
-1014452
-1014604
-1014665
-1014831
-1014866
-1015074
-1015075
-1015155
-1015129
-1015247
-1015385
-1015404
-1015518
-1015798
-1015897
-1015911
-1016030
-1016121
-1016099
-1016054
-1016358
-1016518
-1016439
-1016660
-1016758
-1016815
-1016896
-1016926
-1016937
-1017143
-1017207
-1017410
-1017359
-1017574
-1017655
-1017735
-1017820
-1017790
-1017920
-1017942
-1018046
-1018151
-1018059
-1018283
-1018359
-1018327
-1018519
-1018678
-1018814
-1018831
-1018856
-1018989
-1019084
-1019204
-1019339
-1019491
-1019341
-1019337
-1019387
-1019471
-1019541
-1019644
-1019724
-1019914
-1019936
-1020035
-1020158
-1020172
-1020220
-1020100
-1020352
-1020443
-1020494
-1020583
-1020608
-1020776
-1020812
-1020830
-1020901
-1020791
-1020869
-1020925
-1020964
-1021184
-1021335
-1021258
-1021347
-1021321
-1021516
-1021434
-1021590
-1021632
-1021736
-1021765
-1021767
-1021949
-1022010
-1021973
-1022094
-1022068
-1022173
-1022181
-1022237
-1022119
-1022525
-1022620
-1022616
-1023359
-1022875
-1022751
-1022768
-1022898
-1022852
-1022938
-1023063
-1023212
-1023190
-1023297
-1023419
-1023409
-1023334
-1023462
-1023609
-1023737
-1023767
-1023934
-1023916
-1024046
-1024001
-1024136
-1024165
-1024289
-1024328
-1024508
-1024420
-1024628
-1024584
-1024676
-1024799
-1024915
-1025012
-1024957
-1025177
-1025282
-1025217
-1025367
-1025364
-1025076
-1025468
-1025485
-1025691
-1025676
-1025880
-1026044
-1026037
-1026166
-1026290
-1026185
-1026304
-1026307
-1026464
-1026236
-1026587
-1026675
-1026797
-1027114
-1027015
-1027003
-1027075
-1027183
-1027234
-1027368
-1027478
-1027557
-1027624
-1027840
-1027763
-1027767
-1027842
-1027942
-1028077
-1028261
-1028297
-1028410
-1028452
-1028568
-1028642
-1028665
-1028640
-1028722
-1028957
-1029034
-1029071
-1029168
-1029198
-1029438
-1029429
-1029521
-1029556
-1029560
-1029699
-1029713
-1029804
-1029964
-1029986
-1030137
-1030231
-1030354
-1030392
-1030465
-1030532
-1030683
-1030668
-1030872
-1030883
-1031002
-1030942
-1031098
-1031215
-1031292
-1031294
-1031352
-1031485
-1031688
-1031794
-1031883
-1031850
-1031899
-1032001
-1032045
-1032162
-1032322
-1032379
-1033131
-1032777
-1032645
-1032666
-1032670
-1032745
-1032789
-1032903
-1033168
-1033256
-1033266
-1033308
-1033564
-1033360
-1033499
-1033660
-1033717
-1033887
-1033866
-1034048
-1034035
-1034151
-1034338
-1034275
-1034288
-1034387
-1034416
-1034608
-1034642
-1034673
-1034799
-1034712
-1034990
-1034922
-1034952
-1034972
-1035030
-1035077
-1035113
-1035251
-1035319
-1035348
-1035577
-1035583
-1035626
-1035666
-1035656
-1035870
-1035804
-1035913
-1036147
-1036156
-1036223
-1036193
-1036371
-1036364
-1036433
-1036444
-1036915
-1036804
-1036851
-1036918
-1037093
-1037151
-1037050
-1037150
-1037241
-1037321
-1037400
-1037548
-1037700
-1037772
-1037840
-1037898
-1037866
-1037957
-1037925
-1038167
-1038300
-1038352
-1038496
-1038544
-1038598
-1038789
-1038753
-1038779
-1038938
-1039107
-1039174
-1039365
-1039501
-1039726
-1039827
-1039704
-1039801
-1039944
-1040141
-1040152
-1040215
-1040274
-1040494
-1040459
-1040663
-1040619
-1040733
-1040849
-1040906
-1041092
-1041018
-1041057
-1041087
-1041097
-1041092
-1041038
-1040934
-1040979
-1040814
-1040690
-1040613
-1040414
-1040165
-1039923
-1039608
-1039234
-1038736
-1038226
-1037794
-1037356
-1036894
-1036259
-1035544
-1034871
-1034316
-1033676
-1032863
-1032137
-1031479
-1030873
-1030129
-1029280
-1028648
-1028057
-1027344
-1026614
-1025868
-1025230
-1024587
-1023982
-1023312
-1022772
-1022329
-1021884
-1021338
-1020856
-1020349
-1019994
-1019652
-1019143
-1018826
-1018627
-1018270
-1018132
-1017938
-1017644
-1017491
-1017170
-1016836
-1016979
-1016929
-1016895
-1016800
-1016758
-1016697
-1016605
-1016586
-1016557
-1016614
-1016517
-1016427
-1016640
-1016678
-1016555
-1016609
-1016464
-1016508
-1016626
-1016543
-1016609
-1016508
-1015454
-1015369
-1015307
-1015180
-1015151
-1015174
-1014996
-1014877
-1014749
-1014679
-1014583
-1014677
-1014533
-1014583
-1014485
-1014321
-1014389
-1014205
-1015106
-1014323
-1014078
-1014058
-1013961
-1013950
-1014013
-1013986
-1014007
-1013911
-1013873
-1013798
-1013765
-1013783
-1013710
-1013861
-1014020
-1014087
-1014146
-1014095
-1014089
-1014120
-1014266
-1014358
-1014539
-1014664
-1014742
-1014741
-1015087
-1015211
-1015332
-1015577
-1015663
-1015818
-1016057
-1016311
-1016503
-1016647
-1016899
-1017017
-1017208
-1017378
-1017461
-1017779
-1017850
-1018059
-1018330
-1018404
-1018676
-1018813
-1018865
-1018978
-1019057
-1019216
-1019355
-1019409
-1019450
-1019410
-1019459
-1019613
-1019741
-1019348
-1019471
-1019606
-1019719
-1019771
-1019796
-1019704
-1019683
-1019642
-1019478
-1019292
-1019282
-1019424
-1019264
-1019200
-1019084
-1019133
-1018972
-1018767
-1018682
-1018658
-1018507
-1018474
-1018417
-1018380
-1018367
-1018214
-1018157
-1018060
-1017952
-1017814
-1017736
-1017747
-1017702
-1017685
-1017677
-1017654
-1017507
-1017474
-1017432
-1017442
-1017481
-1017416
-1017454
-1017479
-1017486
-1017558
-1017559
-1017380
-1017488
-1017425
-1017508
-1017643
-1017621
-1017715
-1017693
-1017716
-1017736
-1017813
-1017805
-1017993
-1018040
-1018767
-1018385
-1018396
-1018830
-1018591
-1018572
-1018462
-1018618
-1018697
-1018690
-1018780
-1018812
-1019007
-1019155
-1019153
-1019265
-1019388
-1019387
-1019468
-1019525
-1019703
-1019748
-1019882
-1019972
-1020144
-1020237
-1020372
-1020376
-1020443
-1020520
-1020654
-1020743
-1020889
-1021010
-1021192
-1021232
-1021247
-1021278
-1021546
-1021529
-1021612
-1021816
-1021880
-1022045
-1022068
-1022490
-1022574
-1022558
-1022667
-1022887
-1022655
-1022963
-1023074
-1023156
-1023170
-1023329
-1023416
-1023554
-1023707
-1023732
-1023762
-1023812
-1023912
-1023977
-1024101
-1024201
-1024266
-1024239
-1024424
-1024541
-1024544
-1024610
-1024564
-1024555
-1024795
-1024798
-1024746
-1024910
-1025076
-1025187
-1025162
-1025261
-1025309
-1025293
-1025310
-1025533
-1025430
-1025445
-1025733
-1025757
-1025854
-1025884
-1025871
-1025993
-1025873
-1026004
-1026139
-1026065
-1026194
-1026280
-1026282
-1026475
-1026340
-1026407
-1026491
-1026529
-1026661
-1026623
-1026756
-1026857
-1026890
-1026995
-1026907
-1026884
-1026991
-1027109
-1027102
-1027156
-1027268
-1027359
-1027435
-1027509
-1028173
-1027839
-1027610
-1027838
-1027767
-1027871
-1027864
-1027891
-1028017
-1028110
-1028076
-1028255
-1028281
-1028370
-1028464
-1028430
-1028610
-1028552
-1028734
-1028821
-1028615
-1028689
-1028791
-1028908
-1028915
-1029088
-1029173
-1029222
-1029297
-1029343
-1029387
-1029547
-1029579
-1029560
-1029527
-1029609
-1029784
-1029977
-1029943
-1029944
-1030090
-1030911
-1030414
-1030304
-1030055
-1030333
-1030546
-1030554
-1030775
-1030690
-1030739
-1030863
-1030999
-1030991
-1031055
-1031261
-1031308
-1031254
-1031458
-1031475
-1031522
-1031516
-1031558
-1031642
-1031694
-1031897
-1031955
-1032113
-1032157
-1032169
-1032210
-1032284
-1032412
-1032544
-1032661
-1032653
-1032800
-1032921
-1033011
-1032986
-1032994
-1033060
-1033169
-1033312
-1033433
-1033175
-1033467
-1033635
-1033619
-1033838
-1033789
-1033813
-1033963
-1033982
-1034044
-1034097
-1034342
-1034374
-1034496
-1034538
-1034650
-1034596
-1034722
-1034871
-1034978
-1035063
-1035005
-1035125
-1035289
-1036052
-1035560
-1035485
-1035325
-1035525
-1035636
-1035525
-1035708
-1035865
-1035975
-1035919
-1035882
-1035953
-1036108
-1036131
-1036110
-1036147
-1036371
-1036554
-1036577
-1036518
-1036601
-1036548
-1036615
-1036797
-1036807
-1036902
-1037032
-1037038
-1037131
-1037302
-1037216
-1037209
-1037421
-1037346
-1037489
-1037649
-1037680
-1037888
-1037928
-1037946
-1037888
-1038022
-1038026
-1038243
-1038250
-1038373
-1038467
-1038495
-1038539
-1038718
-1038826
-1038820
-1038867
-1038879
-1039094
-1039064
-1039266
-1039252
-1039247
-1039328
-1039356
-1039482
-1039552
-1039588
-1039749
-1039973
-1040080
-1040155
-1040123
-1040169
-1040269
-1040302
-1040411
-1040604
-1040752
-1040787
-1040945
-1040939
-1041057
-1041127
-1041156
-1041222
-1041360
-1041404
-1041614
-1041616
-1041759
-1041809
-1041832
-1041795
-1041939
-1041928
-1042112
-1042154
-1042229
-1042233
-1042402
-1042262
-1042224
-1042158
-1042276
-1042112
-1042033
-1041996
-1041779
-1041548
-1041313
-1041051
-1040630
-1040321
-1039963
-1039584
-1039200
-1038745
-1038268
-1037717
-1037185
-1036539
-1035928
-1035151
-1034516
-1033977
-1033371
-1032744
-1032022
-1031350
-1030771
-1030128
-1029542
-1028868
-1028183
-1027704
-1027179
-1026625
-1026083
-1025679
-1025188
-1024488
-1024096
-1023609
-1023319
-1022974
-1022654
-1022314
-1021953
-1021744
-1021443
-1021312
-1021866
-1021153
-1020852
-1020669
-1020468
-1020522
-1020452
-1020291
-1020201
-1020124
-1020170
-1020026
-1020076
-1019986
-1020002
-1020057
-1020064
-1020121
-1020030
-1020129
-1020020
-1020201
-1020214
-1020215
-1020220
-1020239
-1020400
-1020445
-1020324
-1020289
-1020296
-1020406
-1020443
-1020492
-1020477
-1020537
-1020482
-1020608
-1020514
-1020531
-1020442
-1020406
-1020281
-1020343
-1020093
-1020426
-1020357
-1020459
-1020356
-1020186
-1020130
-1020014
-1019919
-1019949
-1019979
-1020022
-1019930
-1019963
-1019780
-1019695
-1019529
-1019504
-1019496
-1019426
-1019385
-1019433
-1019290
-1019286
-1019215
-1019130
-1019078
-1019138
-1018962
-1018785
-1018643
-1018846
-1018821
-1018868
-1018757
-1018899
-1018932
-1018940
-1019131
-1019223
-1019245
-1019252
-1019467
-1019588
-1019683
-1019742
-1019681
-1019857
-1020135
-1020207
-1020762
-1020673
-1020631
-1020822
-1021027
-1021084
-1021275
-1021740
-1021602
-1021649
-1021854
-1022131
-1022245
-1022319
-1022346
-1022428
-1022616
-1022757
-1022935
-1023064
-1023131
-1023189
-1023190
-1023416
-1023474
-1023429
-1023408
-1024127
-1023679
-1023436
-1023546
-1023504
-1023497
-1023599
-1023560
-1023484
-1023469
-1023483
-1023404
-1023350
-1023298
-1023371
-1023198
-1023296
-1023182
-1023112
-1022872
-1022799
-1022813
-1022728
-1022711
-1022572
-1022564
-1022561
-1022519
-1022314
-1022201
-1022117
-1022122
-1022058
-1022113
-1022138
-1022109
-1022033
-1022038
-1022073
-1021878
-1021863
-1022002
-1022022
-1021973
-1022071
-1022095
-1022085
-1021993
-1021983
-1022038
-1021986
-1022080
-1022047
-1022129
-1022189
-1022379
-1022437
-1022393
-1022443
-1022523
-1022611
-1022612
-1022590
-1022752
-1022888
-1022908
-1022771
-1023010
-1023772
-1023289
-1023249
-1023425
-1023352
-1023554
-1023605
-1023703
-1023913
-1023831
-1023894
-1024014
-1024060
-1024174
-1024140
-1024274
-1024225
-1024372
-1024645
-1024740
-1024644
-1024715
-1024765
-1024876
-1024922
-1025508
-1025488
-1025614
-1025695
-1026031
-1026351
-1026527
-1026750
-1026828
-1026949
-1027001
-1027111
-1027080
-1027118
-1027273
-1027384
-1027576
-1027620
-1027649
-1027802
-1027839
-1028051
-1028132
-1028157
-1028073
-1028126
-1028240
-1028512
-1028540
-1028682
-1028794
-1028807
-1028904
-1028916
-1028979
-1029086
-1029115
-1029282
-1029375
-1029438
-1029448
-1029636
-1029426
-1029631
-1029742
-1029934
-1029980
-1030063
-1030119
-1030221
-1030272
-1030431
-1030425
-1030343
-1030446
-1030530
-1030579
-1030635
-1030798
-1030834
-1030870
-1031071
-1031040
-1031099
-1030997
-1031099
-1031250
-1031228
-1031363
-1031424
-1031524
-1031565
-1031559
-1031608
-1031672
-1031752
-1031730
-1031821
-1031894
-1032001
-1032125
-1032259
-1032249
-1032273
-1032190
-1032369
-1032411
-1032376
-1032510
-1032629
-1032599
-1032613
-1032803
-1032769
-1032771
-1032918
-1032899
-1033040
-1033068
-1033113
-1033176
-1033333
-1033316
-1033273
-1033449
-1033504
-1033513
-1033482
-1033642
-1033784
-1033864
-1033894
-1033955
-1034031
-1033988
-1033979
-1034163
-1034317
-1034402
-1034385
-1034542
-1034645
-1034601
-1034604
-1034487
-1034653
-1034804
-1035012
-1035134
-1035170
-1035363
-1035318
-1035236
-1035423
-1035342
-1035435
-1035672
-1035679
-1035861
-1035970
-1035987
-1036018
-1036134
-1036122
-1036095
-1036217
-1036290
-1036433
-1036634
-1036547
-1036704
-1036814
-1036700
-1036757
-1036810
-1037043
-1037038
-1037081
-1037340
-1037332
-1037440
-1037555
-1037454
-1037551
-1037751
-1037779
-1037862
-1037956
-1038178
-1038238
-1038240
-1038346
-1038437
-1038469
-1038453
-1038551
-1038607
-1038705
-1038820
-1038921
-1039095
-1039127
-1039093
-1039236
-1039324
-1039459
-1039434
-1039518
-1039717
-1039727
-1039841
-1040016
-1040012
-1039960
-1040058
-1040170
-1040198
-1040331
-1040417
-1040485
-1040646
-1040702
-1040785
-1040801
-1040795
-1041000
-1041099
-1041071
-1041271
-1041313
-1041482
-1041412
-1041612
-1041849
-1041947
-1041883
-1042007
-1042140
-1042020
-1042086
-1042099
-1042240
-1042259
-1042372
-1042553
-1042580
-1042766
-1042882
-1042793
-1042788
-1042780
-1043003
-1043178
-1043167
-1043196
-1043322
-1043379
-1043358
-1043453
-1043410
-1043512
-1043607
-1043741
-1043837
-1043972
-1043943
-1044180
-1044178
-1044193
-1044154
-1044194
-1044390
-1044472
-1044538
-1044612
-1044643
-1044899
-1044922
-1044941
-1044822
-1044914
-1045061
-1045143
-1045279
-1045453
-1045460
-1045479
-1045659
-1045728
-1045669
-1045811
-1045875
-1045934
-1045969
-1046131
-1046279
-1046354
-1046448
-1046418
-1046604
-1046674
-1046759
-1046819
-1046900
-1047074
-1047119
-1047334
-1047342
-1047464
-1047372
-1047343
-1047471
-1047502
-1047509
-1047743
-1047690
-1047726
-1047655
-1047498
-1047374
-1047372
-1047115
-1047092
-1046963
-1046632
-1046432
-1045952
-1045526
-1045115
-1044725
-1044228
-1043640
-1043065
-1042567
-1042059
-1041337
-1040593
-1039997
-1039184
-1038480
-1037810
-1037185
-1036473
-1035757
-1035003
-1034305
-1033521
-1032813
-1032068
-1031458
-1030764
-1029983
-1029515
-1029028
-1028580
-1028084
-1027394
-1026909
-1026368
-1025945
-1025674
-1025234
-1024897
-1024679
-1024356
-1024204
-1023815
-1023582
-1023242
-1023142
-1023016
-1022614
-1022610
-1022540
-1022489
-1022416
-1022330
-1022260
-1022195
-1022086
-1022153
-1022142
-1022144
-1022126
-1022251
-1022193
-1022821
-1022309
-1022209
-1022175
-1022241
-1022262
-1022201
-1022272
-1022345
-1022266
-1022175
-1022117
-1022080
-1022043
-1022112
-1022215
-1022068
-1022072
-1022130
-1022050
-1021938
-1021799
-1021649
-1021575
-1021686
-1021629
-1021627
-1021471
-1021381
-1021139
-1021166
-1021033
-1021134
-1020942
-1020727
-1020702
-1020580
-1020552
-1020325
-1020192
-1020000
-1019905
-1019769
-1019566
-1019525
-1019402
-1019294
-1019189
-1019134
-1019009
-1018907
-1018464
-1018519
-1018397
-1018456
-1018320
-1018127
-1018244
-1018090
-1018072
-1017965
-1017846
-1017642
-1017678
-1017698
-1017669
-1017680
-1017508
-1017492
-1017587
-1017533
-1017614
-1017511
-1017618
-1017652
-1017753
-1017956
-1018020
-1018208
-1018039
-1018257
-1018448
-1018556
-1018669
-1018864
-1018952
-1019252
-1019321
-1019608
-1019784
-1019770
-1020050
-1020195
-1020419
-1020430
-1020786
-1021821
-1021294
-1021342
-1021345
-1021516
-1021608
-1021695
-1021977
-1022011
-1022133
-1022296
-1022438
-1022532
-1022525
-1022518
-1022293
-1022485
-1022680
-1022670
-1022824
-1022962
-1022991
-1022940
-1022872
-1022965
-1022892
-1022807
-1022840
-1022893
-1022699
-1022468
-1022494
-1022579
-1022587
-1022467
-1022407
-1022344
-1022341
-1022212
-1022185
-1022180
-1021989
-1022039
-1021971
-1021812
-1021774
-1021621
-1021788
-1021804
-1021644
-1021768
-1021641
-1021724
-1021559
-1021508
-1021433
-1021396
-1021524
-1021540
-1021515
-1021572
-1021490
-1021535
-1021504
-1021438
-1021560
-1021500
-1021548
-1021579
-1021661
-1021790
-1021738
-1021854
-1021952
-1021873
-1021904
-1021999
-1022088
-1022220
-1022308
-1022275
-1022407
-1022441
-1022635
-1022641
-1022645
-1022703
-1022784
-1022845
-1022873
-1022987
-1023193
-1023297
-1023265
-1023226
-1023349
-1023467
-1023603
-1023647
-1023782
-1023804
-1023952
-1024088
-1024084
-1024093
-1024254
-1024324
-1024375
-1024481
-1024560
-1024771
-1024734
-1024906
-1024914
-1025024
-1025034
-1025106
-1025334
-1025346
-1025414
-1025566
-1025737
-1025831
-1025851
-1025937
-1025969
-1026088
-1026245
-1026216
-1026326
-1026365
-1026551
-1026663
-1026637
-1026609
-1026772
-1026794
-1026927
-1026980
-1027094
-1027289
-1027232
-1027498
-1027316
-1027406
-1027657
-1027710
-1027852
-1027836
-1027824
-1028648
-1028273
-1028267
-1028224
-1028242
-1028380
-1028476
-1028499
-1028504
-1028705
-1028907
-1028930
-1029122
-1029219
-1029225
-1029171
-1029256
-1029308
-1029451
-1029530
-1029666
-1029575
-1029695
-1029663
-1029770
-1029784
-1029873
-1029881
-1029982
-1030083
-1030278
-1030339
-1030347
-1030277
-1030365
-1030478
-1030456
-1030656
-1030589
-1030614
-1030731
-1030726
-1030870
-1030890
-1030947
-1031010
-1031062
-1031194
-1031308
-1031349
-1031454
-1031521
-1031586
-1031552
-1031656
-1031712
-1031840
-1031867
-1032046
-1032120
-1032162
-1032257
-1032307
-1032318
-1032294
-1032421
-1032554
-1032436
-1032567
-1032746
-1032664
-1032821
-1032926
-1032829
-1032820
-1032834
-1032947
-1033078
-1033033
-1033183
-1033297
-1033429
-1033380
-1033381
-1033417
-1033565
-1033752
-1033756
-1033816
-1033905
-1033990
-1034111
-1034255
-1034236
-1034249
-1034245
-1034318
-1034454
-1034656
-1034755
-1034868
-1034939
-1034954
-1034909
-1034948
-1035030
-1035220
-1035124
-1035282
-1035389
-1036168
-1035770
-1035725
-1035676
-1035669
-1035717
-1035813
-1035938
-1036086
-1036113
-1036218
-1036431
-1036500
-1036401
-1036578
-1036551
-1036287
-1036635
-1036679
-1036922
-1036990
-1037161
-1037155
-1037220
-1037179
-1037272
-1037394
-1037532
-1037551
-1037720
-1037772
-1037878
-1037868
-1038009
-1038023
-1038173
-1038352
-1038366
-1038551
-1038483
-1038582
-1038660
-1038749
-1038696
-1038780
-1038908
-1038986
-1039065
-1039235
-1039212
-1039345
-1039415
-1039458
-1039530
-1039696
-1040583
-1040113
-1039988
-1039862
-1039974
-1040056
-1040131
-1040322
-1040363
-1040496
-1040398
-1040551
-1040644
-1040637
-1040741
-1040957
-1041133
-1041022
-1041034
-1041141
-1041159
-1041406
-1041452
-1041525
-1041663
-1041735
-1041728
-1041917
-1041928
-1042024
-1042015
-1042233
-1042230
-1042299
-1042301
-1042400
-1042524
-1042496
-1042460
-1042552
-1042574
-1042665
-1042669
-1042848
-1042933
-1042950
-1043070
-1043158
-1043109
-1043229
-1043298
-1043476
-1043396
-1043487
-1043493
-1043571
-1043492
-1043634
-1043632
-1043740
-1043840
-1043910
-1043953
-1044023
-1044210
-1044264
-1044379
-1044434
-1044333
-1044389
-1044509
-1044612
-1044618
-1044638
-1044747
-1044925
-1044908
-1044944
-1044886
-1044848
-1045057
-1045244
-1045093
-1045338
-1045402
-1045403
-1045511
-1045485
-1045500
-1045605
-1045600
-1045815
-1045840
-1045859
-1045899
-1046091
-1046233
-1046321
-1046232
-1046290
-1046440
-1046542
-1046569
-1046648
-1046672
-1046918
-1047068
-1047145
-1046833
-1047145
-1047279
-1047433
-1047629
-1047617
-1047719
-1047907
-1048057
-1048049
-1048073
-1048026
-1048048
-1048162
-1048292
-1048225
-1048457
-1048590
-1048739
-1048768
-1048804
-1048759
-1048680
-1048679
-1048734
-1048746
-1048777
-1048738
-1048674
-1048486
-1048198
-1047970
-1047795
-1047527
-1047316
-1046903
-1046496
-1046006
-1045559
-1045130
-1044460
-1043767
-1043218
-1042652
-1041913
-1041284
-1040558
-1039906
-1039185
-1038372
-1037556
-1036931
-1036183
-1035572
-1034678
-1034049
-1033453
-1032782
-1032564
-1031460
-1030724
-1029997
-1029317
-1028778
-1028336
-1027785
-1027463
-1026981
-1026684
-1026243
-1025910
-1025450
-1025087
-1024737
-1024494
-1024449
-1024224
-1024092
-1023856
-1023726
-1023654
-1023554
-1023383
-1023199
-1023140
-1023290
-1023281
-1024180
-1023522
-1023291
-1023354
-1023318
-1023221
-1023266
-1023211
-1023205
-1023406
-1023325
-1023400
-1023417
-1023440
-1023312
-1023349
-1023433
-1023333
-1023392
-1023391
-1023287
-1023224
-1023178
-1023171
-1023072
-1023085
-1023065
-1023040
-1022908
-1022877
-1022863
-1022807
-1022626
-1022572
-1022525
-1023229
-1022553
-1022284
-1022103
-1022051
-1021975
-1021912
-1021661
-1021610
-1021528
-1021382
-1021268
-1021052
-1021046
-1020844
-1020779
-1020770
-1020523
-1020398
-1020350
-1020294
-1020173
-1020160
-1019920
-1019848
-1020020
-1019786
-1019647
-1019516
-1018687
-1019307
-1019378
-1019253
-1019302
-1019277
-1019231
-1019213
-1019231
-1019372
-1019355
-1019367
-1019480
-1019397
-1019507
-1019620
-1019736
-1019774
-1019870
-1020081
-1020288
-1020412
-1020335
-1020582
-1020731
-1020857
-1021051
-1021244
-1021430
-1021642
-1021799
-1022063
-1022160
-1022412
-1022458
-1022678
-1022712
-1022908
-1023143
-1023335
-1023386
-1023567
-1023637
-1023728
-1023916
-1023845
-1023949
-1024037
-1024166
-1024156
-1024341
-1024378
-1024481
-1024520
-1024441
-1024391
-1024299
-1024324
-1024475
-1024425
-1024355
-1024415
-1024351
-1024278
-1024198
-1024224
-1024128
-1024181
-1024125
-1024079
-1024095
-1024029
-1024024
-1023828
-1023799
-1023597
-1023470
-1023430
-1023413
-1023404
-1023431
-1023393
-1023323
-1023259
-1023301
-1023155
-1023071
-1023059
-1023123
-1023172
-1023234
-1023232
-1023152
-1023110
-1023003
-1023090
-1023122
-1023223
-1023188
-1023153
-1023311
-1023320
-1023400
-1023418
-1023384
-1023396
-1023593
-1023647
-1023674
-1023704
-1023736
-1023857
-1023889
-1023858
-1023915
-1023992
-1024172
-1024142
-1024273
-1024442
-1024525
-1024605
-1024690
-1024649
-1024535
-1024786
-1025431
-1025206
-1025266
-1025261
-1025275
-1025488
-1025534
-1025632
-1025571
-1025623
-1025842
-1025902
-1025953
-1026099
-1026085
-1026363
-1026361
-1026290
-1026231
-1026368
-1026589
-1026640
-1026929
-1026977
-1027147
-1027261
-1027235
-1027326
-1028148
-1027806
-1027701
-1027743
-1027986
-1027945
-1028194
-1028217
-1028181
-1028351
-1028423
-1028376
-1028545
-1028610
-1028729
-1028824
-1028952
-1029171
-1029022
-1029155
-1029199
-1029268
-1029115
-1029867
-1029713
-1029758
-1029752
-1029704
-1029813
-1029899
-1030021
-1030220
-1030210
-1030287
-1030445
-1030511
-1030475
-1030589
-1030736
-1030631
-1030934
-1030931
-1030916
-1030994
-1031097
-1031223
-1031334
-1031351
-1031407
-1031437
-1031550
-1031574
-1031357
-1031803
-1031886
-1032000
-1032205
-1032070
-1032059
-1032228
-1032301
-1032401
-1032430
-1032514
-1032594
-1032690
-1032636
-1032725
-1032818
-1032724
-1032937
-1032917
-1032987
-1033127
-1033225
-1033238
-1033277
-1033326
-1033323
-1033141
-1033462
-1033578
-1033604
-1033672
-1033786
-1033922
-1034011
-1034015
-1033887
-1033995
-1034188
-1034187
-1034224
-1034335
-1034339
-1034469
-1034570
-1034523
-1034661
-1034620
-1034477
-1034803
-1034855
-1035005
-1035020
-1035509
-1035298
-1035376
-1035296
-1035319
-1035484
-1035600
-1035604
-1035594
-1035723
-1035848
-1035918
-1035955
-1036000
-1036138
-1036084
-1036184
-1036278
-1036374
-1036423
-1036621
-1036595
-1036535
-1036679
-1036686
-1036842
-1036933
-1037097
-1037092
-1037221
-1037431
-1037403
-1037469
-1037530
-1037568
-1037621
-1037736
-1037727
-1037918
-1037933
-1038086
-1038105
-1038271
-1038257
-1038242
-1038450
-1038435
-1038519
-1038662
-1038685
-1038947
-1039091
-1039076
-1039120
-1039110
-1039146
-1039319
-1039474
-1039625
-1039638
-1039716
-1039813
-1039786
-1039903
-1039815
-1040024
-1040139
-1040103
-1040311
-1040294
-1040475
-1040534
-1040455
-1040579
-1040728
-1040736
-1040873
-1040951
-1040998
-1041056
-1041194
-1041245
-1041364
-1041328
-1041496
-1041589
-1041582
-1041641
-1041799
-1041858
-1041999
-1042135
-1042182
-1042255
-1042335
-1042372
-1042412
-1042504
-1042564
-1042728
-1042935
-1043055
-1043056
-1042991
-1042954
-1043243
-1043308
-1043280
-1043363
-1043508
-1043528
-1043579
-1043772
-1043717
-1043918
-1043912
-1043949
-1043967
-1044103
-1044291
-1044444
-1044499
-1044466
-1044589
-1044540
-1044662
-1044734
-1044778
-1044935
-1045010
-1045022
-1045146
-1045153
-1045199
-1045328
-1046142
-1045820
-1045646
-1045686
-1045767
-1045760
-1045777
-1045894
-1045885
-1045959
-1045988
-1046114
-1046195
-1046148
-1046337
-1046371
-1046474
-1046535
-1046597
-1046654
-1046683
-1046784
-1046810
-1046881
-1046977
-1047032
-1047000
-1047150
-1047116
-1047166
-1047429
-1047455
-1047406
-1047622
-1047555
-1047654
-1047742
-1047869
-1047894
-1047884
-1047899
-1047971
-1047996
-1048176
-1048260
-1048375
-1048314
-1048495
-1048428
-1048565
-1048700
-1048843
-1048828
-1048929
-1049078
-1049234
-1049143
-1049113
-1049119
-1049218
-1049355
-1049458
-1049608
-1049705
-1049772
-1050010
-1049917
-1049947
-1050041
-1050010
-1050187
-1050395
-1050501
-1050653
-1050830
-1050858
-1050789
-1050835
-1051035
-1051128
-1051198
-1051308
-1051396
-1051271
-1051393
-1051422
-1051534
-1051491
-1051481
-1051369
-1051477
-1051359
-1051366
-1051290
-1051121
-1050919
-1050728
-1050414
-1050131
-1049836
-1049396
-1049011
-1048623
-1048121
-1047535
-1047176
-1046572
-1045878
-1045109
-1044507
-1043898
-1043026
-1042413
-1041662
-1040981
-1040208
-1039484
-1038686
-1038096
-1037331
-1036621
-1035909
-1035333
-1034757
-1034034
-1033424
-1032851
-1032200
-1031787
-1031232
-1030802
-1030275
-1029865
-1029526
-1029168
-1028814
-1028456
-1028074
-1027866
-1027657
-1027394
-1027318
-1027004
-1026848
-1026790
-1026595
-1026567
-1026377
-1026280
-1026266
-1026331
-1026390
-1026307
-1026297
-1026326
-1026153
-1026185
-1026254
-1026316
-1026194
-1026352
-1026424
-1026356
-1026371
-1026463
-1026521
-1026549
-1026344
-1026471
-1026532
-1026570
-1026628
-1026631
-1026635
-1026525
-1026652
-1026638
-1026645
-1026543
-1026499
-1026539
-1026455
-1026317
-1026316
-1026386
-1026316
-1026106
-1026139
-1026146
-1026075
-1025885
-1025886
-1025758
-1025816
-1025751
-1025679
-1025615
-1025408
-1025347
-1025302
-1025228
-1025024
-1024949
-1024862
-1024753
-1024817
-1024716
-1024495
-1024411
-1024239
-1024559
-1024353
-1024147
-1023990
-1024048
-1024014
-1023872
-1023754
-1023843
-1023715
-1023750
-1023720
-1023541
-1023683
-1023707
-1023695
-1023777
-1023716
-1023762
-1023797
-1023826
-1023924
-1023942
-1024072
-1024196
-1024467
-1024497
-1024523
-1024410
-1024696
-1024932
-1025064
-1025356
-1025534
-1025715
-1025911
-1025833
-1026113
-1026244
-1026327
-1026409
-1026610
-1026857
-1027090
-1027200
-1027289
-1027438
-1027527
-1027523
-1027586
-1027816
-1028004
-1028036
-1028024
-1028174
-1028264
-1027953
-1028051
-1028113
-1028311
-1028380
-1028296
-1028240
-1028261
-1028336
-1028283
-1028277
-1028276
-1028233
-1028101
-1028135
-1028127
-1028022
-1028039
-1027960
-1027988
-1027810
-1027627
-1027590
-1027477
-1027457
-1027486
-1027335
-1027259
-1027387
-1027276
-1027217
-1027170
-1027056
-1026937
-1026987
-1027021
-1027026
-1027060
-1026793
-1026814
-1026808
-1026872
-1026756
-1026665
-1026830
-1026911
-1026815
-1026772
-1026841
-1026975
-1026969
-1026915
-1026782
-1026783
-1026866
-1026931
-1027086
-1026995
-1027194
-1027268
-1027249
-1027224
-1027233
-1027174
-1027307
-1027351
-1027339
-1027462
-1027633
-1027630
-1027691
-1027719
-1027810
-1027753
-1028015
-1027672
-1027933
-1028203
-1028220
-1028421
-1028539
-1028556
-1028493
-1028491
-1028566
-1028760
-1028932
-1029056
-1029125
-1029255
-1029236
-1029355
-1029266
-1029315
-1029455
-1029662
-1029627
-1029830
-1029968
-1030077
-1030019
-1030085
-1030122
-1030220
-1030302
-1030548
-1030663
-1030841
-1030901
-1030752
-1031058
-1031032
-1031082
-1031257
-1031215
-1031347
-1031497
-1031706
-1031685
-1031848
-1031875
-1031899
-1032031
-1032187
-1032128
-1032362
-1032283
-1032479
-1032559
-1032611
-1032795
-1032836
-1032795
-1032874
-1032902
-1033000
-1032844
-1033160
-1033362
-1033505
-1033556
-1033530
-1033578
-1033661
-1033615
-1033767
-1033784
-1033947
-1034084
-1034179
-1034133
-1034107
-1034183
-1034266
-1034132
-1034320
-1034514
-1034581
-1034694
-1034718
-1034783
-1034916
-1034779
-1034705
-1034888
-1035031
-1035022
-1035127
-1035260
-1035284
-1035333
-1035277
-1035384
-1035468
-1035432
-1035554
-1035576
-1035686
-1035635
-1035758
-1035862
-1035750
-1035926
-1036006
-1036056
-1036006
-1036106
-1036177
-1036155
-1036377
-1036381
-1036336
-1036445
-1036476
-1036413
-1036627
-1036662
-1036754
-1036753
-1036731
-1036881
-1036864
-1036980
-1037007
-1037050
-1037115
-1037046
-1037216
-1037254
-1037348
-1037164
-1037406
-1037534
-1037579
-1037521
-1037629
-1037732
-1037745
-1037890
-1038074
-1038173
-1037930
-1038100
-1038035
-1038126
-1038180
-1038216
-1038379
-1038484
-1038652
-1038650
-1038625
-1038589
-1038677
-1038747
-1038656
-1038804
-1038888
-1039083
-1039079
-1039164
-1039148
-1039278
-1039288
-1039442
-1039464
-1039534
-1039705
-1039676
-1039781
-1039803
-1039935
-1039921
-1039909
-1040028
-1040208
-1040338
-1040323
-1040460
-1040592
-1040541
-1040605
-1040746
-1041193
-1041298
-1041218
-1041351
-1041322
-1041478
-1041499
-1041697
-1041761
-1041829
-1041933
-1042060
-1042075
-1042093
-1042211
-1042228
-1042430
-1042497
-1042472
-1042717
-1042665
-1042816
-1042811
-1042958
-1042947
-1042964
-1043043
-1043117
-1043311
-1043346
-1043371
-1043487
-1043574
-1043718
-1043711
-1043752
-1043979
-1044016
-1044006
-1044188
-1044208
-1044317
-1044402
-1044368
-1044449
-1044527
-1044713
-1044639
-1044655
-1044891
-1044879
-1044955
-1044937
-1045058
-1045141
-1045266
-1045357
-1045445
-1045536
-1045654
-1045702
-1045641
-1045627
-1045738
-1045799
-1045961
-1046009
-1045970
-1046008
-1046213
-1046255
-1046236
-1046294
-1046201
-1046193
-1046239
-1046439
-1046417
-1046559
-1046569
-1046712
-1046707
-1046709
-1046677
-1046842
-1046886
-1047017
-1047085
-1047009
-1047148
-1047128
-1047109
-1047119
-1047166
-1047240
-1047354
-1047339
-1047518
-1047600
-1047677
-1047663
-1047776
-1047661
-1047796
-1047744
-1047811
-1047870
-1047970
-1048051
-1048090
-1048180
-1048326
-1048347
-1048289
-1048316
-1048378
-1048462
-1048565
-1048652
-1048615
-1048869
-1048802
-1048841
-1048985
-1049040
-1049028
-1049242
-1049237
-1049321
-1049459
-1049522
-1049623
-1049672
-1049661
-1049751
-1049821
-1049971
-1050056
-1050189
-1050396
-1050425
-1050620
-1050655
-1050530
-1050660
-1050704
-1050834
-1050805
-1050934
-1051063
-1051162
-1051120
-1051089
-1051167
-1051122
-1051312
-1051307
-1051234
-1051254
-1051260
-1051275
-1051158
-1051039
-1050783
-1050597
-1050440
-1050216
-1050041
-1049647
-1049279
-1048874
-1048556
-1048007
-1047409
-1046865
-1046243
-1045572
-1044932
-1044182
-1043519
-1042871
-1042103
-1041281
-1040520
-1039891
-1039126
-1038311
-1037456
-1036799
-1036291
-1035621
-1034880
-1034235
-1033453
-1032753
-1032192
-1031586
-1030960
-1030418
-1030001
-1029602
-1029148
-1028608
-1028257
-1027812
-1027575
-1027199
-1027030
-1026708
-1026511
-1026367
-1026126
-1025945
-1025821
-1025784
-1025575
-1025580
-1025464
-1025381
-1025544
-1025549
-1025524
-1025401
-1025358
-1025326
-1025349
-1025356
-1025457
-1025441
-1025513
-1025427
-1025494
-1025505
-1025579
-1025594
-1025615
-1025598
-1025597
-1025720
-1025699
-1025661
-1025675
-1025594
-1025710
-1025722
-1025682
-1025646
-1025658
-1025703
-1025588
-1025663
-1025578
-1025377
-1025306
-1025228
-1025218
-1025315
-1025218
-1025136
-1025004
-1024965
-1024876
-1024758
-1024547
-1024401
-1024334
-1024252
-1024264
-1024186
-1024058
-1023946
-1023941
-1023808
-1023545
-1023447
-1023342
-1023213
-1023016
-1022906
-1022801
-1022794
-1022715
-1022603
-1022449
-1022276
-1022948
-1022409
-1022161
-1022122
-1021963
-1021973
-1021841
-1021720
-1021774
-1021785
-1021715
-1021685
-1021654
-1021600
-1021722
-1021864
-1021766
-1021830
-1021780
-1021778
-1021977
-1022122
-1022210
-1022256
-1022317
-1022559
-1022683
-1022698
-1022826
-1023096
-1023259
-1023402
-1023483
-1023658
-1023891
-1024024
-1024075
-1024227
-1024319
-1024556
-1024613
-1024761
-1024864
-1025026
-1025155
-1025255
-1025456
-1025418
-1025453
-1025525
-1025603
-1025684
-1025792
-1025951
-1025906
-1025852
-1025887
-1025832
-1025949
-1025911
-1025953
-1026081
-1025913
-1025985
-1025994
-1026028
-1026019
-1025785
-1025753
-1025604
-1025573
-1025667
-1025428
-1025397
-1025519
-1025359
-1025385
-1025222
-1025147
-1025082
-1025072
-1024997
-1024985
-1024948
-1024957
-1024795
-1024751
-1024610
-1024599
-1024635
-1024626
-1024586
-1024633
-1024555
-1024632
-1024301
-1024581
-1024624
-1024648
-1024383
-1024454
-1024691
-1024660
-1024698
-1024686
-1024728
-1024773
-1024881
-1024815
-1024874
-1024928
-1024995
-1025068
-1025172
-1025257
-1025348
-1025451
-1025492
-1025487
-1025517
-1025446
-1025558
-1025758
-1025784
-1025853
-1025952
-1026159
-1026100
-1026134
-1026167
-1026147
-1026426
-1026346
-1026448
-1026622
-1026619
-1026749
-1026738
-1026795
-1026906
-1026983
-1027022
-1027130
-1027279
-1027367
-1027409
-1027539
-1027564
-1027725
-1027694
-1027770
-1027992
-1028139
-1028078
-1028200
-1028225
-1028293
-1028452
-1028447
-1028519
-1028609
-1028735
-1028829
-1028934
-1028945
-1028940
-1029041
-1029267
-1029188
-1029398
-1029407
-1029559
-1029578
-1029799
-1029773
-1029953
-1030047
-1030033
-1030155
-1030105
-1030297
-1030418
-1030465
-1030756
-1030690
-1030862
-1030853
-1030815
-1030598
-1030825
-1031014
-1031117
-1031245
-1031356
-1031418
-1031544
-1031593
-1031499
-1031698
-1031651
-1031747
-1031777
-1031852
-1031946
-1032167
-1032240
-1032401
-1032471
-1032427
-1032395
-1032509
-1032683
-1032671
-1032780
-1032879
-1032965
-1033138
-1033110
-1033080
-1033144
-1033088
-1033210
-1033458
-1033362
-1033469
-1033511
-1033617
-1033655
-1033660
-1033712
-1033803
-1033893
-1033924
-1034011
-1033995
-1034096
-1034239
-1034154
-1034151
-1034305
-1034271
-1034189
-1034186
-1034497
-1034704
-1034638
-1034725
-1034748
-1034772
-1034932
-1034969
-1035020
-1035021
-1035145
-1035258
-1035391
-1036243
-1035643
-1035406
-1035445
-1035574
-1035766
-1035710
-1035791
-1035648
-1035916
-1036113
-1035989
-1036072
-1036101
-1036129
-1036216
-1036406
-1036278
-1036492
-1036590
-1036701
-1036723
-1036633
-1036793
-1036942
-1036969
-1037058
-1037072
-1037213
-1037286
-1037438
-1037473
-1037418
-1037325
-1038312
-1037896
-1037788
-1037855
-1037648
-1037997
-1037961
-1037969
-1038099
-1038194
-1038215
-1038311
-1038393
-1038457
-1038649
-1038647
-1038731
-1038736
-1038794
-1038771
-1038938
-1039160
-1039112
-1039255
-1039474
-1039299
-1039490
-1039619
-1039585
-1039628
-1039684
-1039832
-1039819
-1039980
-1040110
-1040205
-1040284
-1040344
-1040355
-1040473
-1040520
-1040705
-1040814
-1040841
-1040940
-1041032
-1041228
-1041199
-1041295
-1041431
-1041073
-1041403
-1041526
-1041585
-1041713
-1041853
-1041942
-1042059
-1042017
-1042174
-1042217
-1042326
-1042378
-1042473
-1042526
-1042651
-1042855
-1042873
-1042815
-1042974
-1043004
-1043208
-1043255
-1043325
-1043485
-1043453
-1043590
-1043748
-1043789
-1043799
-1043846
-1043994
-1043943
-1044046
-1044125
-1044240
-1044390
-1044363
-1044472
-1044444
-1044465
-1044668
-1044743
-1044763
-1044896
-1045182
-1045181
-1045160
-1045140
-1045286
-1045412
-1045511
-1045593
-1045559
-1045829
-1046035
-1046025
-1046001
-1046109
-1046058
-1046094
-1046208
-1046266
-1046413
-1046613
-1046528
-1046647
-1046679
-1046668
-1046767
-1046774
-1046905
-1047101
-1047163
-1047343
-1047335
-1047443
-1047480
-1047402
-1047556
-1047487
-1047575
-1047800
-1047792
-1047940
-1048117
-1048105
-1048106
-1047993
-1048155
-1047764
-1048269
-1048100
-1048259
-1048427
-1048473
-1048680
-1048767
-1049251
-1048904
-1048792
-1048970
-1049059
-1049096
-1049142
-1049242
-1049347
-1049282
-1049374
-1049381
-1049492
-1049592
-1049613
-1049784
-1049840
-1049931
-1050087
-1050053
-1050010
-1049810
-1050166
-1050849
-1050572
-1050560
-1050703
-1050790
-1050951
-1050885
-1050826
-1051029
-1051124
-1051122
-1051180
-1051318
-1051417
-1051419
-1051615
-1051540
-1051636
-1051869
-1051866
-1052080
-1052075
-1052247
-1052287
-1052315
-1052237
-1052520
-1053470
-1052865
-1052609
-1052731
-1052595
-1052745
-1052722
-1052729
-1053362
-1052791
-1052506
-1052128
-1051982
-1051967
-1051730
-1051353
-1051149
-1050732
-1050325
-1049827
-1049260
-1048750
-1048008
-1047516
-1046874
-1046077
-1045389
-1044346
-1044008
-1043189
-1042418
-1041575
-1040784
-1040125
-1039311
-1038670
-1037883
-1037038
-1036337
-1035650
-1034827
-1034112
-1033283
-1032815
-1032253
-1031605
-1031108
-1030597
-1030061
-1029571
-1029091
-1028644
-1028292
-1027905
-1027640
-1027191
-1027085
-1026865
-1026848
-1026499
-1026356
-1026276
-1025982
-1025965
-1025755
-1025838
-1025846
-1025680
-1025689
-1025594
-1025481
-1025452
-1025414
-1025539
-1025473
-1025544
-1025757
-1025674
-1025834
-1025688
-1025770
-1025703
-1025744
-1025806
-1025840
-1025809
-1025937
-1025986
-1025958
-1026045
-1025940
-1025812
-1025744
-1025803
-1025782
-1025815
-1025934
-1025995
-1025874
-1025802
-1025777
-1025678
-1025623
-1025614
-1025543
-1025531
-1025529
-1025457
-1025341
-1024837
-1025048
-1024944
-1024675
-1024837
-1024716
-1024695
-1024605
-1024489
-1024466
-1024217
-1024077
-1023893
-1023827
-1023684
-1023738
-1023312
-1023122
-1023042
-1022874
-1022853
-1022644
-1022525
-1022566
-1022497
-1022539
-1022388
-1022181
-1022119
-1022043
-1022188
-1022240
-1022170
-1022141
-1022097
-1022203
-1022150
-1022262
-1022360
-1022476
-1022628
-1022579
-1022699
-1022820
-1022977
-1023128
-1023257
-1023299
-1023451
-1023552
-1023707
-1023827
-1023943
-1024270
-1024387
-1024525
-1024672
-1024698
-1024865
-1025041
-1025179
-1025238
-1025338
-1025590
-1025785
-1025886
-1025947
-1026053
-1026055
-1026151
-1026208
-1026321
-1026431
-1026521
-1026554
-1026560
-1026472
-1026545
-1026481
-1026435
-1026456
-1026498
-1026430
-1026541
-1026515
-1026505
-1026413
-1026265
-1026204
-1026149
-1026177
-1026088
-1025989
-1026083
-1025965
-1025978
-1025884
-1025755
-1025682
-1025607
-1025547
-1025400
-1025471
-1025397
-1025412
-1025249
-1025162
-1025135
-1025149
-1024982
-1025110
-1025046
-1025119
-1024957
-1025078
-1025100
-1025102
-1024973
-1025058
-1024910
-1025075
-1024976
-1025008
-1025051
-1024979
-1025195
-1025209
-1025116
-1025223
-1025247
-1025354
-1025310
-1025382
-1025536
-1025521
-1025675
-1025718
-1025612
-1025652
-1025709
-1025776
-1025772
-1025980
-1026092
-1026083
-1026233
-1026256
-1026287
-1026390
-1026466
-1026488
-1026559
-1026719
-1026680
-1026876
-1027148
-1027166
-1027173
-1027119
-1027299
-1027321
-1027534
-1027597
-1027744
-1027781
-1027819
-1027881
-1027882
-1028054
-1028061
-1027927
-1028121
-1028318
-1028493
-1028326
-1028736
-1028832
-1028773
-1028855
-1028898
-1029119
-1029197
-1029241
-1029442
-1029466
-1029613
-1029615
-1029684
-1029697
-1029787
-1029859
-1029988
-1030021
-1030290
-1030293
-1030453
-1030594
-1030628
-1030697
-1030793
-1030682
-1030892
-1031007
-1031040
-1031172
-1031214
-1031223
-1031268
-1031483
-1031462
-1031629
-1032146
-1031860
-1031810
-1031936
-1032136
-1032199
-1032281
-1032283
-1032339
-1033334
-1032648
-1032526
-1032613
-1032705
-1032780
-1032795
-1032841
-1032864
-1032921
-1032992
-1033093
-1032840
-1033234
-1033450
-1033467
-1033539
-1033647
-1033774
-1033663
-1033728
-1033923
-1034029
-1034039
-1034239
-1034238
-1034231
-1034218
-1034192
-1035148
-1034647
-1034587
-1034628
-1034633
-1034696
-1034874
-1034802
-1034808
-1034809
-1034951
-1034994
-1035033
-1035096
-1035350
-1035345
-1035444
-1035477
-1035574
-1035719
-1035777
-1035836
-1035843
-1036040
-1036043
-1036203
-1036217
-1036232
-1036219
-1036299
-1036365
-1036479
-1036454
-1036534
-1036661
-1036657
-1036696
-1036812
-1036848
-1036867
-1037053
-1037120
-1037240
-1037293
-1037488
-1037481
-1037529
-1037430
-1037584
-1037594
-1037692
-1037823
-1037810
-1037980
-1038162
-1038219
-1038244
-1038240
-1037998
-1038198
-1038413
-1038547
-1038591
-1038743
-1038825
-1038906
-1038889
-1038803
-1038938
-1039077
-1039267
-1039302
-1039298
-1039437
-1039587
-1039615
-1039611
-1039686
-1039841
-1039854
-1039913
-1040097
-1040143
-1040283
-1040331
-1040529
-1040619
-1040494
-1040609
-1040661
-1040808
-1040850
-1041002
-1041049
-1041201
-1041266
-1041349
-1041338
-1041351
-1041559
-1041602
-1041673
-1041700
-1041760
-1041990
-1042029
-1042144
-1042139
-1042238
-1042333
-1042456
-1042460
-1042482
-1042816
-1043284
-1043118
-1043015
-1042982
-1043059
-1043177
-1043075
-1043293
-1043449
-1043427
-1043511
-1043403
-1043742
-1043809
-1043788
-1043875
-1044272
-1044020
-1044150
-1044262
-1044444
-1044624
-1044529
-1044550
-1044577
-1044714
-1044887
-1044897
-1044985
-1045071
