PPG
-556948
-556944
-556857
-556955
-557013
-557034
-557121
-557148
-557211
-557238
-557167
-557139
-557184
-557167
-557289
-557335
-557330
-557414
-557363
-557360
-557410
-557387
-557410
-557508
-557507
-557656
-557600
-557696
-557664
-557714
-557711
-557808
-557796
-557837
-557965
-557962
-558038
-558009
-558069
-558003
-558029
-558122
-558222
-558225
-558234
-558299
-558351
-558368
-558407
-558428
-558496
-558489
-558658
-558709
-558811
-558873
-558816
-558840
-558928
-558948
-559093
-559057
-559039
-559115
-559162
-559144
-559193
-559133
-559271
-559291
-559321
-559400
-559491
-559462
-559518
-559584
-559509
-559553
-559609
-559744
-559711
-559822
-559777
-559839
-559832
-559872
-559863
-559966
-560088
-559998
-560094
-560183
-560193
-560284
-560198
-560244
-560265
-560332
-560428
-560501
-560425
-560487
-560534
-560629
-560568
-560630
-560700
-560729
-560765
-560833
-560701
-560864
-560956
-560942
-560921
-560890
-560944
-560976
-561000
-561056
-561074
-561148
-561225
-561147
-561134
-561190
-561244
-561346
-561262
-561344
-561346
-561345
-561402
-561404
-561461
-561510
-561518
-561509
-561550
-561641
-561678
-561751
-561758
-561801
-561805
-561777
-561858
-561837
-561920
-561888
-561907
-561970
-562014
-562019
-561981
-562083
-562112
-562221
-562266
-562295
-562329
-562271
-562370
-562416
-562512
-562620
-562619
-562697
-562745
-562714
-562803
-562917
-563532
-563221
-563063
-563103
-563111
-563042
-563124
-563139
-563220
-563178
-563181
-563143
-563126
-563073
-562923
-562800
-562766
-562713
-562022
-561576
-561454
-561258
-560977
-559766
-559466
-559115
-558911
-558563
-558296
-558052
-557725
-557375
-557032
-556863
-556491
-556105
-555867
-555662
-555444
-555183
-554946
-554645
-554377
-554182
-553953
-553724
-553589
-553480
-553325
-553173
-553018
-552948
-552792
-552720
-552594
-552406
-552288
-552264
-552250
-552123
-552026
-551960
-551940
-551844
-551781
-551742
-551739
-551770
-551746
-551718
-551691
-551768
-551683
-551694
-551635
-551621
-551622
-551632
-551686
-551674
-551706
-551707
-551729
-551607
-551594
-551549
-551641
-551671
-551562
-551689
-551671
-551594
-551589
-551599
-551504
-551505
-551461
-551498
-551496
-551465
-551559
-551532
-551514
-551522
-551521
-551422
-551477
-551549
-551523
-551521
-551454
-551472
-551444
-551404
-551340
-551306
-551276
-551351
-551384
-551338
-551406
-551457
-551384
-551417
-551317
-551428
-551475
-551530
-551572
-551617
-551736
-551810
-551738
-551657
-551750
-551798
-551830
-551863
-552021
-552059
-552062
-552135
-552114
-552182
-552154
-552276
-552356
-552402
-552445
-552503
-552614
-552628
-552646
-552582
-552627
-552705
-552759
-552752
-552787
-552894
-552956
-552941
-552949
-552966
-552975
-553034
-553089
-553134
-553185
-553153
-553173
-553110
-553119
-553076
-553073
-553110
-553134
-553136
-553186
-553137
-553133
-553105
-553113
-553150
-553059
-553080
-553068
-553104
-553111
-553124
-553137
-553066
-553003
-553002
-552988
-553054
-553058
-553006
-553061
-553043
-552986
-552932
-552732
-552882
-552842
-552819
-552874
-552983
-552947
-552916
-552958
-552864
-552945
-552900
-552914
-552954
-552971
-552962
-552997
-553060
-553047
-553069
-553002
-553067
-553122
-553098
-553103
-553113
-553219
-553253
-553305
-553377
-553226
-553306
-553300
-553346
-553406
-553408
-553450
-553526
-553528
-553629
-553547
-553566
-553638
-553691
-553653
-553735
-553734
-553918
-553764
-553858
-553857
-553886
-553871
-553978
-553904
-554085
-554162
-554165
-554273
-554215
-554300
-554310
-554309
-554394
-554435
-554453
-554459
-554485
-554498
-554591
-554611
-554645
-554674
-554765
-554814
-554827
-554818
-554830
-554850
-554946
-554979
-554955
-555033
-555039
-555145
-555120
-555157
-555200
-555308
-555215
-555230
-555362
-555354
-555361
-555521
-555515
-555546
-555615
-555593
-555621
-555590
-555615
-555717
-555761
-555753
-555849
-555887
-555898
-555935
-555893
-556020
-555979
-555933
-556005
-556080
-556234
-556312
-556267
-556329
-556327
-556229
-556190
-556244
-556261
-556746
-556576
-556550
-556585
-556602
-556539
-556536
-556580
-556585
-556711
-556784
-556758
-556873
-556844
-556843
-556775
-556857
-556848
-556846
-556871
-556993
-557002
-557015
-557025
-557070
-557020
-557073
-557105
-557098
-557167
-557175
-557264
-557286
-557356
-557393
-557287
-557390
-557382
-557490
-557560
-557554
-557582
-557603
-557585
-557651
-557598
-557647
-557731
-557802
-557778
-557903
-557905
-557916
-557926
-557936
-557921
-558012
-558139
-558153
-558260
-558282
-558244
-558297
-558308
-558295
-558351
-558390
-558474
-558538
-558542
-558540
-558586
-558614
-558706
-558663
-558638
-558739
-558747
-558838
-558893
-558954
-558987
-558995
-558905
-558858
-558801
-558773
-558779
-558651
-558553
-558434
-558276
-558152
-557919
-557766
-557626
-557419
-557315
-557020
-556753
-556532
-556268
-555985
-555735
-555415
-555074
-554885
-554355
-553429
-553090
-552814
-552472
-552184
-551943
-551402
-551234
-550942
-550679
-550424
-550296
-550032
-549799
-549489
-549370
-548390
-548206
-548055
-548005
-547954
-547993
-547938
-547901
-547882
-547752
-547789
-547832
-547864
-547906
-547884
-547793
-547838
-547853
-547821
-547830
-547887
-547941
-547906
-547887
-547976
-547931
-547894
-547818
-547838
-547861
-547975
-547972
-548010
-547957
-547939
-547890
-547865
-547926
-547920
-547934
-547991
-547998
-548030
-547990
-547991
-547955
-547912
-547820
-547939
-547966
-548045
-547970
-548060
-548056
-548076
-548176
-548087
-548140
-548179
-548206
-548408
-548431
-548402
-548431
-548498
-548479
-548605
-548635
-548675
-548628
-548722
-548726
-548804
-548813
-548905
-548930
-548942
-549067
-549081
-549249
-549244
-549365
-549316
-549340
-549349
-549408
-549427
-549355
-549451
-549527
-549499
-549429
-549435
-549299
-549380
-549327
-549380
-549486
-549421
-549534
-549624
-549561
-549553
-549494
-549489
-549558
-549596
-549521
-549551
-549607
-549517
-549516
-549459
-549447
-549452
-549345
-549317
-549383
-549345
-549395
-549448
-549363
-549357
-549389
-549308
-549358
-549272
-549628
-549523
-549446
-549337
-549373
-549372
-549359
-549305
-549352
-549374
-549353
-549318
-549351
-549425
-549330
-549383
-549354
-549383
-549374
-549400
-549441
-549432
-549414
-549476
-549430
-549452
-549486
-549335
-549476
-549621
-549648
-549663
-549773
-549828
-549840
-549807
-549868
-549795
-549895
-549901
-549967
-549955
-549982
-550056
-550065
-550071
-549969
-550052
-550140
-550193
-550257
-550365
-550355
-550427
-550411
-550407
-550446
-550473
-550529
-550576
-550648
-550627
-550753
-550720
-550812
-550817
-550858
-550817
-550886
-550967
-551027
-550986
-551005
-551164
-551150
-551198
-551209
-551178
-551228
-551189
-551372
-551403
-551454
-551455
-551465
-551496
-551540
-551644
-551769
-551804
-551811
-551928
-551870
-551799
-551895
-552027
-552068
-552063
-552156
-552229
-552302
-552319
-552333
-552290
-552316
-552366
-552360
-552355
-552492
-552544
-552605
-552561
-552604
-552613
-552659
-552716
-552740
-552827
-552845
-552899
-552975
-553002
-552931
-552950
-552910
-553087
-553123
-553145
-553271
-553280
-553248
-553289
-553278
-553273
-553291
-553368
-553313
-553305
-553419
-553452
-553536
-553512
-553545
-553519
-553461
-553525
-553579
-553578
-553617
-553701
-553708
-553819
-553756
-553785
-553815
-553927
-553938
-553859
-554011
-554065
-554115
-554078
-554085
-554023
-554098
-554105
-554100
-554180
-554225
-554187
-554280
-554365
-554299
-554343
-554369
-554408
-554437
-554534
-554617
-554672
-554740
-554721
-554708
-554797
-554759
-554809
-554794
-554937
-554936
-554997
-555038
-555084
-555037
-555086
-555187
-555159
-555197
-555372
-555418
-555469
-555471
-555533
-555461
-555463
-555384
-555460
-555484
-555406
-555500
-555499
-555444
-555486
-555389
-555268
-555187
-555129
-555071
-554946
-554928
-554702
-554554
-554429
-554220
-554045
-553775
-553572
-553311
-553053
-552836
-552586
-552306
-551992
-551760
-551515
-551116
-550772
-550511
-550136
-549908
-549607
-549420
-549052
-548799
-548612
-548314
-548007
-547874
-547609
-547448
-547119
-547010
-546799
-546608
-546353
-546115
-546042
-545918
-545739
-545587
-545393
-544623
-544536
-544506
-544451
-544418
-544411
-544375
-544422
-544245
-544226
-544268
-544302
-544293
-544230
-544289
-544167
-544210
-544159
-544160
-544180
-544158
-544163
-544094
-544106
-544191
-544175
-544164
-544059
-544040
-544083
-544141
-544127
-544159
-544257
-544214
-544222
-544295
-544370
-544400
-544454
-544525
-544603
-544622
-544631
-544635
-544729
-544727
-544750
-544801
-544809
-545025
-545051
-545124
-545122
-545271
-545240
-545225
-545253
-545400
-545503
-545493
-545567
-545590
-545545
-545541
-545481
-545477
-545549
-545607
-545677
-545700
-545800
-545855
-545826
-545768
-545706
-545859
-545905
-545920
-545839
-545866
-545882
-545822
-545842
-545763
-545770
-545771
-545610
-545722
-545733
-545803
-545791
-545807
-545703
-545741
-545642
-545654
-545648
-545699
-545714
-546086
-545791
-545716
-545697
-545598
-545647
-545638
-545621
-545768
-545733
-545727
-545717
-545779
-545679
-545707
-545677
-545668
-545757
-545767
-545821
-545667
-545771
-545795
-545749
-545793
-545830
-545940
-545888
-545871
-545923
-545966
-545945
-546027
-546038
-545953
-546328
-546163
-546146
-546212
-546245
-546252
-546266
-546262
-546302
-546117
-546284
-546407
-546398
-546390
-546512
-546585
-546583
-546608
-546624
-546507
-546639
-546671
-546550
-546760
-546873
-546970
-546907
-546984
-547052
-547086
-547143
-547087
-547138
-547158
-547218
-547235
-547385
-547378
-547389
-547387
-547341
-547473
-547465
-547579
-547564
-547642
-547683
-547650
-547734
-547752
-547753
-547774
-547846
-547956
-547993
-548022
-548152
-548107
-548142
-548138
-548194
-548197
-548259
-548372
-548380
-548436
-548411
-548491
-548506
-548619
-548666
-548629
-548724
-548758
-548875
-548861
-548915
-548901
-548889
-549067
-549059
-549072
-549074
-549166
-549141
-549374
-549436
-549405
-549364
-549399
-549404
-549543
-549453
-549500
-549659
-549731
-549679
-549715
-549760
-549655
-549710
-549694
-549801
-549829
-549849
-549900
-550045
-549972
-550071
-550006
-550159
-550255
-550389
-550470
-550507
-550373
-550302
-550218
-550061
-549706
-549798
-549999
-550148
-550288
-550326
-550394
-550559
-550647
-550669
-550824
-550813
-550951
-551018
-551112
-551121
-551192
-551215
-551171
-551051
-550966
-550919
-550771
-550782
-550703
-550796
-550783
-550892
-550969
-551052
-551182
-551227
-551302
-551336
-551408
-551531
-551535
-551589
-551642
-551652
-551703
-551785
-551793
-551820
-551871
-551825
-551718
-551755
-551759
-551733
-551728
-551878
-552001
-552101
-552103
-552198
-552299
-552281
-552369
-552269
-552292
-552368
-552384
-552400
-552434
-552463
-552580
-552543
-552652
-552685
-552669
-552751
-552744
-552748
-552688
-552752
-552726
-552723
-552677
-552620
-552582
-552502
-552411
-552339
-552216
-552002
-551858
-551593
-551414
-551161
-550986
-550851
-550704
-550430
-550245
-550058
-549664
-549487
-549225
-548897
-548596
-548374
-548132
-547797
-547533
-547220
-546950
-546593
-546352
-546103
-545787
-545402
-545217
-544853
-544724
-544444
-544247
-543989
-543722
-543508
-543465
-543090
-542847
-542733
-542661
-542534
-542348
-542163
-542085
-542009
-541834
-541740
-541651
-541636
-541514
-541262
-541093
-541249
-541219
-541107
-541116
-541113
-540984
-540990
-541000
-541071
-540956
-541030
-541026
-541028
-541018
-541024
-540985
-540961
-541006
-540879
-540844
-540870
-540817
-540614
-540661
-540713
-540600
-540671
-540662
-540555
-540583
-540483
-540326
-540441
-540475
-540418
-540412
-540398
-540499
-540488
-540426
-540440
-540479
-540397
-540345
-540336
-540369
-540493
-540536
-540429
-540469
-540513
-540496
-540518
-540551
-540591
-540660
-540502
-540707
-540718
-540814
-540768
-540899
-541014
-541002
-541138
-541111
-541259
-541258
-541305
-541278
-541259
-541466
-541487
-541479
-541610
-541628
-541693
-541764
-541776
-541815
-541874
-541890
-542021
-542027
-542059
-542085
-542193
-542200
-542163
-542195
-542283
-542370
-542730
-542573
-542515
-542447
-542302
-542374
-542373
-542338
-542483
-542400
-542358
-542325
-542327
-542266
-542288
-542265
-542229
-542307
-542248
-542298
-542395
-542290
-542288
-542294
-542237
-542181
-542257
-542223
-542244
-542320
-542407
-542346
-542340
-542275
-542216
-542257
-542219
-542305
-542306
-542376
-542295
-542257
-542238
-542272
-542374
-542316
-542386
-542388
-542491
-542483
-542521
-542511
-542538
-542527
-542521
-542458
-542590
-542679
-542665
-542681
-542765
-542773
-542748
-542812
-542830
-542899
-542985
-543038
-543017
-543093
-543124
-543116
-543158
-543144
-543230
-543017
-543204
-543298
-543353
-543411
-543458
-543477
-543487
-543496
-543614
-543589
-543669
-543675
-543764
-543842
-543817
-543871
-543824
-543925
-544045
-544038
-544095
-544042
-544137
-544198
-544253
-544236
-544266
-544318
-544421
-544468
-544556
-544619
-544603
-544604
-544635
-544591
-544692
-544696
-544667
-544743
-544840
-545003
-544969
-545051
-545023
-545069
-545010
-545080
-545184
-545274
-545267
-545389
-545436
-545502
-545537
-545466
-545480
-545479
-545522
-545617
-545722
-545857
-545823
-545819
-545847
-545835
-545865
-545827
-545974
-545946
-546028
-546068
-546156
-546134
-546196
-546181
-546277
-546182
-546261
-546359
-546416
-546446
-546605
-546638
-546696
-546584
-546606
-546684
-546683
-546702
-546801
-546867
-546912
-546926
-546871
-546904
-546965
-546933
-546964
-546974
-547165
-547092
-547061
-547093
-547200
-547195
-547164
-547277
-547290
-547368
-547451
-547471
-547587
-547580
-547575
-547592
-547644
-547640
-547622
-547657
-547750
-547918
-547813
-547861
-547950
-547929
-547914
-547945
-548034
-548159
-548002
-548177
-548193
-548233
-548298
-548256
-548309
-548339
-548389
-548495
-548400
-548466
-548514
-548471
-548515
-548534
-548542
-548591
-548588
-548680
-548749
-548870
-548902
-548871
-548945
-548922
-548947
-548994
-549058
-549054
-549131
-549205
-549215
-549237
-549255
-549350
-549338
-549359
-549333
-549414
-549524
-549508
-549620
-549634
-549652
-549587
-549643
-549717
-549670
-549736
-549741
-549544
-549520
-549662
-549634
-549622
-549442
-549401
-549342
-549156
-549086
-548996
-548812
-548648
-548414
-548174
-547945
-547738
-547455
-547283
-547098
-546832
-546573
-546191
-545908
-545597
-545264
-545020
-544811
-544455
-544243
-543962
-543725
-543363
-543112
-542764
-542311
-542250
-541983
-541811
-541593
-541366
-541143
-540981
-540856
-540630
-540361
-540226
-540149
-539948
-539834
-539721
-539641
-539531
-539296
-539155
-539072
-538975
-538877
-538846
-538837
-538867
-538707
-538625
-538599
-538401
-538435
-538470
-538547
-538452
-538459
-538442
-538433
-538420
-538424
-538299
-538246
-538232
-538193
-538203
-538139
-538211
-538172
-538194
-538171
-538243
-538131
-538066
-538102
-538129
-538237
-538146
-538193
-538194
-538122
-538087
-538056
-538059
-537977
-537995
-538019
-537991
-538017
-537964
-537884
-537853
-537835
-537900
-537849
-537862
-537835
-537848
-537785
-537841
-537760
-537719
-537727
-537792
-537853
-537874
-537821
-537835
-537885
-537866
-537865
-537972
-537862
-537957
-538024
-537891
-537983
-538122
-538211
-538158
-538172
-538174
-538131
-538182
-538273
-538324
-538454
-538553
-538573
-538996
-538790
-538718
-538823
-538906
-538957
-538949
-539067
-539109
-539119
-539189
-539177
-539217
-539254
-539246
-539323
-539274
-539346
-539432
-539419
-539472
-539479
-539418
-539484
-539486
-539483
-539582
-539623
-539582
-539605
-539459
-539483
-539482
-539584
-539548
-539517
-539542
-539575
-539531
-539432
-539492
-539295
-539383
-539550
-539891
-539966
-539959
-540042
-540096
-540151
-540159
-540271
-540268
-540261
-540309
-540259
-540255
-540294
-540344
-540381
-540412
-540479
-540541
-540613
-540606
-540638
-540651
-540741
-540832
-540843
-540886
-540928
-540984
-540928
-541000
-540974
-541110
-541080
-541108
-541279
-541304
-541276
-541342
-541381
-541413
-541346
-541356
-541444
-541549
-541585
-541484
-541658
-541758
-541791
-541838
-541898
-541985
-541993
-542055
-542096
-542097
-542115
-542082
-542164
-542183
-542237
-542247
-542421
-542417
-542545
-542488
-542527
-542525
-542568
-542679
-542742
-542815
-542881
-542897
-542867
-542898
-542902
-542949
-542982
-543109
-543258
-543225
-543209
-543273
-543287
-543501
-543505
-543518
-543457
-543453
-543489
-543581
-543611
-543641
-543699
-543801
-543855
-543923
-543920
-543871
-543873
-543958
-544028
-544013
-544061
-544148
-544107
-544186
-544202
-544138
-544131
-544324
-544294
-544386
-544339
-544337
-544352
-544391
-544459
-544520
-544593
-544676
-544729
-544696
-544669
-544691
-544713
-544758
-544797
-544861
-544832
-544926
-544930
-544991
-544984
-545008
-545024
-544999
-545015
-545147
-545195
-545260
-545293
-545246
-545294
-545281
-545334
-545338
-545394
-545496
-545541
-545552
-545512
-545601
-545660
-545769
-545741
-545722
-545735
-545897
-545975
-546060
-546125
-546138
-546255
-546290
-546197
-546240
-546239
-546308
-546382
-546447
-546498
-546618
-546635
-546595
-546607
-546599
-546626
-546635
-546731
-546729
-546709
-546649
-546709
-546533
-546427
-546345
-546246
-546165
-546032
-545833
-545686
-545510
-545252
-545063
-544840
-544620
-544421
-544179
-543919
-543631
-543376
-543080
-542730
-542386
-542153
-541986
-541640
-541352
-541152
-540813
-540604
-540284
-540016
-539734
-539422
-539204
-538941
-538759
-538540
-538237
-538152
-537940
-537720
-537585
-537421
-537165
-537051
-536963
-536839
-536711
-536630
-536486
-536418
-536291
-536164
-536123
-536052
-536010
-535972
-535888
-535902
-535790
-535714
-535653
-535591
-535545
-535446
-535485
-535303
-535414
-535385
-535360
-535278
-535212
-535180
-535205
-535060
-535046
-535071
-535106
-535048
-535176
-535229
-535274
-535206
-535226
-535222
-535230
-535290
-535274
-535344
-535333
-535407
-535464
-535496
-535578
-535600
-535636
-535680
-535753
-535817
-535906
-535961
-535895
-536046
-536037
-536084
-536082
-536115
-536154
-536216
-536259
-536416
-536337
-536407
-536493
-536440
-536397
-536429
-536434
-536489
-536562
-536652
-536593
-536607
-536561
-536521
-536539
-536586
-536589
-536607
-536544
-536576
-536557
-536641
-536540
-536482
-536471
-536447
-536433
-536460
-536523
-536471
-536473
-536427
-536399
-536393
-536247
-536268
-536203
-536306
-536217
-536302
-536354
-536306
-536265
-536268
-536281
-536228
-536237
-536219
-536302
-536354
-536253
-536300
-536345
-536315
-536274
-536317
-536291
-536353
-536310
-536458
-536519
-536339
-536452
-536437
-536431
-536450
-536473
-536537
-536544
-536633
-536624
-536590
-536581
-536583
-536568
-536674
-536652
-536710
-536830
-536859
-536857
-536849
-536903
-537002
-536949
-537017
-537039
-537071
-537186
-537208
-537195
-537225
-537240
-537318
-537319
-537379
-537481
-537439
-537522
-537544
-537613
-537661
-537650
-537606
-537673
-537701
-537745
-537858
-537965
-537988
-538015
-538038
-538031
-538143
-538067
-538153
-538298
-538566
-538448
-538431
-538388
-538433
-538378
-538442
-538481
-538490
-538562
-538672
-538771
-538807
-538820
-538812
-538788
-538823
-538923
-539006
-539029
-539108
-539159
-539124
-539494
-539339
-539172
-539226
-539255
-539312
-539334
-539449
-539489
-539503
-539484
-539641
-539565
-539695
-539700
-539808
-539837
-539980
-539953
-539947
-539954
-540035
-540121
-540141
-540154
-540190
-540212
-540292
-540364
-540358
-540434
-540420
-540434
-540454
-540533
-540586
-540643
-540727
-540756
-540748
-540706
-540775
-540762
-540765
-540922
-540943
-540972
-540993
-541058
-541099
-541071
-541096
-541120
-541393
-541239
-541206
-541214
-541316
-541315
-541363
-541338
-541351
-541395
-541450
-541482
-541495
-541465
-541569
-541549
-541638
-541622
-541629
-541681
-541662
-541726
-541817
-541841
-541956
-541910
-541912
-541897
-541956
-541986
-542116
-542097
-542102
-542195
-542234
-542275
-542315
-542270
-542326
-542352
-542357
-542384
-542393
-542460
-542581
-542524
-542584
-542573
-542613
-542589
-542665
-542832
-543045
-542967
-542940
-542925
-542964
-542946
-542968
-543083
-543107
-543189
-543310
-543273
-543228
-543229
-543340
-543284
-543364
-543460
-543534
-543506
-543607
-543619
-543656
-543770
-543739
-543766
-543834
-544009
-544040
-544058
-544133
-544222
-544178
-544150
-544149
-544218
-544298
-544328
-544345
-544329
-544369
-544409
-544459
-544376
-544367
-544388
-544417
-544381
-544295
-544279
-544179
-544132
-544129
-544041
-543878
-543635
-543535
-543415
-543237
-543008
-542779
-542555
-542386
-542065
-541752
-541589
-541385
-541176
-540861
-540537
-540272
-539923
-539653
-539370
-539080
-538757
-538489
-538229
-537931
-537641
-537393
-537111
-536820
-536533
-536289
-536063
-535826
-535572
-535380
-535157
-535001
-534789
-534540
-534284
-534236
-534082
-533894
-533786
-533618
-533592
-533491
-533401
-533249
-533120
-533035
-532979
-532908
-532815
-532750
-532756
-532661
-532635
-532558
-532437
-532385
-532338
-532292
-532227
-532275
-532182
-532199
-532010
-532056
-532108
-532073
-531954
-531965
-531909
-531983
-531916
-531890
-531813
-531749
-531665
-531672
-531650
-531605
-531576
-531510
-531501
-531411
-531288
-531279
-531243
-531158
-531128
-531276
-531143
-531073
-531031
-530982
-530981
-530940
-530730
-530751
-530698
-530746
-530765
-530618
-530633
-530604
-530546
-530487
-530478
-530476
-530519
-530491
-530526
-530556
-530583
-530490
-530478
-530508
-530513
-530494
-530508
-530550
-530592
-530639
-530662
-530718
-530783
-530807
-530763
-530820
-530938
-531027
-531065
-531134
-531200
-531203
-531099
-531321
-531354
-531403
-531479
-531608
-531631
-531646
-531605
-531755
-531725
-531759
-531752
-531828
-531824
-531883
-531952
-531972
-531988
-531997
-532066
-532111
-531989
-531999
-532061
-532125
-532095
-532163
-532166
-532023
-532020
-532002
-531987
-531963
-531952
-531884
-531934
-531842
-531816
-531789
-531772
-531523
-531631
-531733
-531685
-531713
-531662
-531593
-531591
-531635
-531607
-531534
-531554
-531504
-531473
-531506
-531482
-531535
-531438
-531468
-531297
-531305
-531275
-531363
-531297
-531415
-531385
-531195
-531357
-531348
-531392
-531277
-531385
-531395
-531360
-531401
-531441
-531420
-531360
-531416
-531402
-531380
-531413
-531463
-531482
-531492
-531509
-531561
-531668
-531566
-531596
-531593
-531645
-531684
-531709
-531676
-531723
-531807
-531735
-531763
-531846
-531883
-531814
-531895
-531942
-532022
-532003
-532122
-532132
-532125
-532099
-532068
-532121
-532237
-532291
-532239
-532289
-532312
-532740
-532514
-532406
-532336
-532390
-532392
-532340
-532478
-532590
-532564
-532683
-532752
-532721
-532685
-532726
-532800
-532807
-532804
-532836
-532915
-533018
-532940
-532945
-533007
-533042
-533061
-533129
-533200
-533284
-533354
-533431
-533308
-533362
-533447
-533414
-533369
-533502
-533589
-533575
-533565
-533677
-533743
-533772
-533734
-533803
-533648
-533811
-533933
-533991
-533956
-534115
-534095
-534181
-534198
-534221
-534249
-534333
-534336
-534444
-534428
-534401
-534449
-534269
-534457
-534513
-534561
-534576
-534691
-534808
-534861
-534784
-534893
-534831
-534844
-534800
-534896
-534947
-534980
-535107
-535125
-535032
-535129
-535154
-535236
-535312
-535347
-535355
-535485
-535523
-535557
-535606
-535664
-535705
-535747
-535707
-535769
-535793
-535790
-535867
-535851
-535890
-535924
-535903
-535940
-535971
-536036
-536104
-536231
-536271
-536254
-536223
-536252
-536233
-536241
-536267
-536359
-536335
-536361
-536434
-536385
-536528
-536525
-536513
-536491
-536526
-536574
-536746
-536795
-536806
-536882
-536947
-536946
-537130
-537208
-537225
-537313
-537318
-537310
-537327
-537436
-537451
-537524
-537637
-537665
-537696
-537767
-537790
-537798
-537831
-537878
-537955
-538010
-538040
-538163
-538142
-538123
-538108
-538142
-538220
-538181
-538195
-538200
-538229
-538158
-538106
-537972
-537901
-537817
-537647
-537574
-537343
-537238
-537094
-536896
-536640
-536506
-536224
-536008
-535777
-535661
-535391
-535103
-534803
-534507
-534178
-533899
-533661
-533375
-533113
-532906
-532563
-532290
-531927
-531460
-531349
-531144
-530863
-530619
-530424
-530188
-529947
-529641
-529490
-529339
-529027
-528826
-528709
-528489
-528380
-528227
-528141
-527874
-527710
-527635
-527832
-527447
-527272
-527118
-527050
-526947
-526891
-526816
-526746
-526689
-526550
-526465
-526454
-526395
-526332
-526385
-526346
-526212
-526230
-526160
-526145
-526133
-525947
-525945
-525955
-526015
-525890
-525908
-525802
-525866
-525842
-525730
-525629
-525584
-525615
-525565
-525617
-525532
-525525
-525427
-525287
-525298
-525267
-525221
-525237
-525111
-525078
-525055
-525110
-524976
-524865
-524831
-524767
-524721
-524709
-524732
-524729
-524626
-524530
-524560
-524482
-524367
-524393
-524406
-524403
-524413
-524388
-524430
-524369
-524316
-524318
-524350
-524356
-524419
-524463
-524526
-524487
-524541
-524571
-524582
-524617
-524661
-524668
-524853
-524917
-525010
-525040
-525104
-525134
-525230
-525173
-525230
-525260
-525359
-525361
-525385
-525478
-525577
-525702
-525730
-525716
-525812
-525786
-525883
-525934
-525938
-525981
-526152
-526117
-526111
-526149
-526125
-526207
-526178
-526252
-526283
-526287
-526283
-526386
-526292
-526341
-526323
-526352
-526326
-526329
-526311
-526362
-526429
-526367
-526331
-526267
-526328
-526244
-526272
-526264
-526193
-526228
-526331
-526310
-526246
-526142
-526153
-526166
-526163
-526193
-526226
-526222
-526211
-526205
-526197
-526133
-526145
-526096
-526119
-526204
-526132
-526194
-526192
-526128
-526214
-526179
-526133
-526061
-526136
-526191
-526185
-526265
-526294
-526275
-526299
-526384
-526400
-526350
-526469
-526463
-526503
-526541
-526653
-526606
-526661
-526663
-526508
-526636
-526668
-526751
-526797
-526867
-526968
-526936
-526805
-526911
-526960
-527012
-527104
-527132
-527109
-527234
-527236
-527317
-527304
-527308
-527350
-527411
-527887
-527643
-527687
-527657
-527763
-527815
-527875
-527850
-527817
-527867
-527859
-527925
-528008
-528069
-528157
-528234
-528216
-528255
-528242
-528239
-528313
-528392
-528532
-528556
-528622
-528730
-528669
-528648
-528769
-528774
-528898
-528976
-529012
-529010
-529052
-529101
-529070
-529154
-529123
-529257
-529291
-529376
-529339
-529472
-529523
-529538
-529558
-529604
-529574
-529644
-529663
-529574
-529782
-529763
-529864
-529941
-529853
-529868
-529905
-530081
-530092
-530226
-530273
-530196
-530232
-530333
-530294
-530365
-530390
-530353
-530423
-530475
-530517
-530652
-530616
-530641
-530640
-530666
-530699
-530638
-530822
-530658
-530929
-531007
-531014
-531100
-531143
-530960
-531074
-531173
-531183
-531341
-531379
-531485
-531366
-531346
-531491
-531468
-531518
-531657
-531620
-531661
-531716
-531829
-531869
-531823
-531886
-531856
-531896
-531790
-531852
-531950
-532064
-532033
-532046
-532082
-532121
-532166
-532226
-532307
-532429
-532435
-532488
-532483
-532470
-532509
-532494
-532484
-532513
-532564
-532728
-532778
-532754
-532816
-532828
-532814
-532808
-532734
-532795
-532964
-532955
-533091
-533076
-533161
-533184
-533151
-533205
-533258
-533281
-533279
-533431
-533473
-533460
-533499
-533513
-533512
-533530
-533596
-533624
-533705
-533836
-533824
-533818
-533876
-533995
-533960
-533958
-534092
-534142
-534198
-534220
-534325
-534376
-534432
-534478
-534496
-534475
-534569
-534480
-534760
-534808
-534870
-534852
-534940
-534912
-534896
-534971
-535075
-535146
-535124
-535117
-535237
-535166
-535205
-535165
-535179
-535063
-534995
-535068
-535089
-535037
-535225
-534899
-534709
-534490
-534354
-533955
-533874
-533835
-533660
-533546
-533376
-533155
-532806
-532614
-532375
-532067
-531739
-531468
-531166
-530977
-530685
-530463
-530143
-529801
-529477
-529174
-528917
-528649
-528446
-528173
-527942
-527695
-527413
-527201
-526875
-526733
-526426
-526185
-526044
-525936
-525725
-525477
-525241
-525100
-524887
-524831
-524673
-524491
-524436
-524359
-524216
-524061
-524078
-523890
-523799
-523691
-523558
-523508
-523546
-523489
-523371
-523332
-523233
-523153
-523059
-523014
-523058
-522992
-522982
-522922
-522909
-522880
-522769
-522723
-522648
-522617
-522554
-522581
-522545
-522502
-522487
-522349
-522321
-522167
-522080
-522131
-522073
-521989
-522018
-521929
-521947
-521938
-521930
-521780
-521764
-521665
-521652
-521593
-521491
-521539
-521516
-521432
-521335
-521346
-521281
-521183
-521148
-521163
-521183
-521150
-521110
-521094
-521030
-521046
-520983
-520930
-521009
-521024
-521057
-521061
-521145
-521169
-521098
-521158
-521230
-521199
-521223
-521299
-521324
-521437
-521493
-521469
-521620
-521681
-521637
-521706
-521799
-521815
-521846
-521951
-521987
-522098
-522042
-522143
-522126
-522224
-522257
-522313
-522390
-522827
-522597
-522627
-522591
-522595
-522583
-522619
-522704
-522753
-522837
-522762
-522809
-522780
-522790
-522847
-522848
-522800
-522825
-522892
-522951
-522973
-522843
-522868
-522853
-522802
-522789
-522767
-522821
-522763
-522820
-522819
-522770
-522694
-522598
-522663
-522639
-522613
-522621
-522596
-522693
-522650
-522658
-522692
-522622
-522602
-522514
-522506
-522596
-522569
-522616
-522639
-522648
-522583
-522607
-522524
-522554
-522605
-522609
-522696
-522654
-522624
-522721
-522734
-522667
-522692
-522631
-522628
-522719
-522863
-522838
-522905
-522908
-522914
-523033
-523034
-523187
-523182
-523150
-523168
-523252
-523275
-523270
-523273
-523336
-523376
-523383
-523532
-523490
-523586
-523577
-523563
-523598
-523823
-523740
-523729
-523776
-523814
-523925
-523815
-523825
-523902
-524029
-524061
-524065
-524122
-524283
-524302
-524322
-524349
-524371
-524412
-524448
-524443
-524491
-524507
-524599
-524658
-524749
-524683
-524724
-524763
-524826
-524886
-524885
-524959
-525059
-525119
-525236
-525266
-525325
-525418
-525477
-525547
-525582
-525581
-525593
-525717
-525657
-525678
-525731
-525804
-525811
-525965
-526212
-526522
-526710
-526775
-526878
-527005
-527167
-527214
-527245
-527385
-527357
-527295
-527309
-527382
-527379
-527464
-527446
-527575
-527621
-527675
-527631
-527734
-527715
-527612
-527732
-527816
-527864
-527983
-528065
-528046
-528027
-528157
-528320
-528354
-528344
-528400
-528541
-528617
-528743
-528707
-528907
-529452
-529500
-529604
-529652
-529630
-529690
-529707
-529762
-529871
-529885
-529956
-529915
-530000
-530123
-530242
-530410
-530360
-530329
-530400
-530564
-530513
-530618
-530624
-530687
-530766
-530785
-530781
-530834
-530807
-530833
-530922
-530969
-530824
-531027
-531151
-531156
-531142
-531174
-531244
-531275
-531379
-531510
-531449
-531531
-531524
-531613
-531638
-531684
-531708
-531726
-531850
-531797
-531917
-531892
-531844
-531780
-531781
-531713
-531677
-531747
-531673
-531544
-531515
-531396
-531290
-531174
-531029
-530895
-530752
-530583
-530331
-530192
-529906
-529650
-529451
-529255
-528958
-528740
-528485
-528196
-527883
-527679
-527403
-527079
-526784
-526456
-526111
-525857
-525571
-525296
-525008
-524830
-524513
-524334
-523983
-523731
-523484
-523324
-522996
-522822
-522642
-522471
-522281
-522090
-521865
-521797
-521588
-521483
-521340
-521253
-521080
-520949
-521033
-520860
-520549
-520454
-520423
-520304
-520298
-520248
-520128
-519925
-519864
-519856
-519768
-519735
-519704
-519675
-519592
-519547
-519509
-519494
-519438
-519393
-519322
-519343
-519318
-519322
-519240
-519274
-519178
-519217
-519079
-519067
-519008
-519042
-518939
-518953
-518850
-518838
-518762
-518516
-518624
-518467
-518566
-518492
-518482
-518510
-518398
-518364
-518307
-518185
-518243
-518155
-518167
-518171
-518154
-518075
-518175
-518049
-518096
-518081
-518161
-518151
-518224
-518231
-518295
-518329
-518308
-518386
-518595
-518637
-518715
-518706
-518858
-518890
-519034
-519015
-519104
-519224
-519231
-519229
-519257
-519343
-519354
-519337
-519423
-519450
-519604
-519609
-519555
-519627
-519699
-519581
-519606
-519514
-519528
-519442
-519356
-519388
-519464
-519373
-519370
-519402
-519319
-519288
-519236
-519242
-519212
-519292
-519247
-519324
-519352
-519337
-519288
-519258
-519310
-519269
-519340
-519359
-519375
-519423
-519373
-519408
-519413
-519325
-519315
-519392
-519475
-519482
-519539
-519557
-519548
-519560
-519682
-519675
-519601
-519686
-519752
-519785
-519797
-519882
-519816
-519820
-519848
-519943
-519938
-520049
-520004
-520088
-520113
-520143
-520267
-520269
-520201
-520506
-520332
-520358
-520306
-520463
-520477
-520545
-520641
-520642
-520655
-520587
-520593
-520742
-520861
-520872
-520967
-521003
-520945
-520950
-520978
-521055
-521110
-521219
-521280
-521308
-521379
-521413
-521333
-521414
-521462
-521456
-521507
-521675
-521713
-521798
-521926
-521881
-521935
-521877
-521888
-521907
-521966
-522095
-522124
-522146
-522228
-522174
-522163
-522123
-522170
-522249
-522339
-522363
-522409
-522499
-522476
-522492
-522509
-522529
-522591
-522655
-522694
-522771
-522741
-522813
-522796
-522838
-522903
-522923
-522991
-523017
-523041
-523158
-523181
-523188
-523109
-523142
-523138
-523239
-523191
-523179
-523333
-523366
-523395
-523438
-523413
-523414
-523512
-523536
-523615
-523686
-523818
-523878
-523773
-523771
-523779
-523740
-523804
-523830
-523911
-523968
-523982
-524008
-524060
-524059
-524094
-524050
-524118
-524134
-524151
-524264
-524271
-524300
-524351
-524195
-524313
-524224
-524333
-524445
-524511
-524594
-524603
-524671
-524622
-524581
-524552
-524664
-524655
-524753
-524823
-524785
-524728
-524907
-524877
-524885
-524998
-525033
-525135
-525098
-525149
-525118
-525121
-525031
-525106
-525157
-525211
-525295
-525433
-525390
-525512
-525566
-525557
-525589
-525625
-525672
-525776
-525798
-525908
-525893
-525952
-525962
-525970
-525931
-525998
-526072
-526186
-526253
-526280
-526384
-526363
-526337
-526376
-526478
-526457
-526532
-526631
-526763
-526844
-526801
-526782
-526941
-526912
-526900
-526930
-527091
-527120
-527131
-527152
-527169
-527190
-527173
-527210
-527244
-527218
-527258
-527158
-527219
-527160
-527062
-526977
-526893
-526821
-526727
-526567
-526487
-526373
-526200
-526094
-525877
-525600
-525483
-525192
-524988
-524753
-524577
-524348
-524160
-523883
-523575
-523279
-522986
-522676
-522347
-522134
-521962
-521677
-521445
-521150
-520759
-520495
-520019
-519771
-519678
-519416
-519194
-518969
-518768
-518546
-518389
-518180
-517964
-517896
-517844
-517664
-517508
-517337
-517253
-517143
-516988
-516894
-516810
-516711
-516960
-516717
-516543
-516448
-516339
-516278
-516261
-516108
-516087
-516047
-516000
-516013
-516043
-516059
-515961
-515924
-515909
-515864
-515806
-515906
-515868
-515845
-515814
-515861
-515828
-515788
-515662
-515625
-515609
-515639
-515594
-515539
-515569
-515531
-515530
-515578
-515489
-515401
-515389
-515315
-515301
-515294
-515319
-515296
-515266
-515204
-515139
-515342
-515138
-515140
-514977
-515061
-515139
-515071
-515176
-515140
-515112
-515022
-515046
-515148
-515141
-515148
-515260
-515264
-515287
-515341
-515300
-515298
-515381
-515326
-515516
-515569
-515507
-515666
-515711
-515703
-515782
-515837
-515902
-515960
-516094
-516158
-516161
-516254
-516380
-516396
-516499
-516511
-516614
-516682
-516723
-516751
-516758
-516718
-516729
-516781
-516801
-516752
-516737
-516830
-516785
-516910
-516810
-516745
-516876
-516861
-516836
-516857
-516960
-516936
-516969
-516912
-516945
-516946
-516872
-516840
-516779
-516734
-516766
-516817
-516786
-516807
-516833
-516752
-516757
-516749
-516728
-516799
-516762
-516867
-516861
-516957
-516914
-516834
-516800
-516884
-516880
-516904
-516997
-517011
-517053
-517080
-517090
-517081
-517110
-516949
-517054
-517131
-517190
-517228
-517325
-517301
-517379
-517366
-517408
-517370
-517492
-517548
-517642
-517574
-517680
-517600
-517650
-517684
-517833
-517860
-517938
-517986
-517977
-518077
-518157
-518216
-518117
-518217
-518234
-518290
-518402
-518585
-518572
-518648
-518660
-518663
-518724
-518826
-518900
-518985
-518996
-519111
-519078
-519029
-519208
-519297
-519463
-519490
-519574
-519598
-519593
-519691
-519787
-519741
-519801
-519895
-519890
-519970
-519949
-520003
-519989
-520094
-520108
-520187
-520227
-520318
-520360
-520381
-520412
-520411
-520467
-520482
-520516
-520586
-520718
-520737
-520827
-520892
-520915
-520939
-520940
-520973
-520947
-521081
-521111
-521109
-521233
-521248
-521250
-521247
-521307
-521346
-521397
-521461
-521469
-521560
-521595
-522046
-521822
-521765
-521743
-521785
-521834
-521888
-521948
-522031
-522080
-522158
-522197
-522217
-522245
-522233
-522229
-522343
-522436
-522487
-522543
-522559
-522526
-522565
-522564
-522665
-522715
-522700
-522808
-522857
-522834
-522875
-522953
-523028
-523045
-523042
-523022
-523053
-523148
-523181
-523265
-523217
-523308
-523387
-523354
-523440
-523509
-523485
-523604
-523642
-523530
-523652
-523740
-523814
-523798
-524103
-524019
-524013
-524066
-524010
-524059
-524160
-524106
-524117
-524180
-524263
-524287
-524415
-524284
-524381
-524375
-524385
-524468
-524462
-524508
-524528
-524648
-524715
-524821
-524837
-524860
-524816
-524809
-524939
-524925
-524970
-525038
-525007
-525054
-525172
-525174
-525116
-525245
-525257
-525278
-525274
-525383
-525450
-525531
-525618
-525724
-525701
-525679
-525749
-525748
-525881
-526163
-526071
-526092
-526180
-526175
-526157
-526277
-526252
-526307
-526405
-526476
-526611
-526614
-526657
-526672
-526641
-526727
-526771
-526800
-526902
-526975
-527014
-527003
-526996
-526922
-526910
-526935
-526897
-526864
-526853
-526851
-526751
-526626
-526602
-526468
-526359
-526143
-526005
-525859
-525715
-525618
-525424
-525244
-524973
-524677
-524496
-524253
-524002
-523733
-523478
-523243
-522907
-522504
-522381
-522148
-521839
-521544
-521278
-521054
-520851
-520531
-520249
-520026
-519774
-519527
-519174
-518999
-518626
-518512
-518333
-518240
-517998
-517825
-517610
-517446
-517275
-517128
-516817
-516934
-516786
-516695
-516636
-516439
-516468
-516288
-516181
-516072
-516001
-515928
-515840
-515824
-515846
-515718
-515728
-515665
-515602
-515441
-515433
-515432
-515429
-515438
-515398
-515339
-515262
-515187
-515120
-515628
-515275
-515083
-515450
-515166
-514981
-514905
-515441
-515063
-514948
-514897
-514855
-514827
-514826
-514816
-514594
-514573
-514600
-514565
-514445
-514451
-514420
-514404
-514417
-514342
-514253
-514343
-514281
-514222
-514627
-514236
-514156
-514114
-514093
-514070
-514106
-514016
-513964
-513877
-513883
-513907
-513976
-513952
-514025
-514004
-514069
-514052
-514036
-514031
-514183
-514265
-514339
-514304
-514517
-514574
-514819
-514772
-514943
-514955
-515073
-515124
-515178
-515210
-515390
-515396
-515445
-515641
-515745
-515746
-515632
-515782
-515788
-515701
-515855
-516015
-516106
-516184
-516246
-516328
-516396
-516394
-516398
-516325
-516307
-516274
-516300
-516289
-516212
-516260
-516200
-516248
-516178
-516321
-518576
-518547
-518619
-518687
-518814
-518865
-518900
-518962
-519068
-519030
-519079
-519124
-519165
-519269
-519319
-519399
-519462
-519416
-519506
-519521
-519589
-519563
-519673
-519701
-519777
-519758
-519841
-519932
-519996
-520047
-520071
-520030
-520051
-520099
-520172
-520246
-520281
-520322
-520437
-520381
-520414
-520452
-520543
-520612
-520669
-520789
-520796
-520787
-520868
-520787
-520820
-520921
-520980
-521043
-521095
-521125
-521227
-521249
-521248
-521229
-521295
-521256
-521297
-521367
-521406
-521493
-521552
-521662
-521602
-521608
-521692
-521778
-521839
-521846
-521956
-522031
-522136
-522172
-522193
-522236
-522314
-522383
-522468
-522507
-522477
-522573
-522505
-522646
-522683
-522732
-522694
-522813
-522860
-522866
-522969
-522991
-523059
-523057
-523136
-523127
-523160
-523231
-523264
-523314
-523306
-523351
-523295
-523355
-523372
-523458
-523521
-523611
-523637
-523712
-523711
-523734
-523790
-523818
-523844
-523873
-523960
-524003
-524105
-524097
-524167
-524105
-524123
-524175
-524155
-524464
-524555
-524599
-524541
-524684
-524788
-524729
-524878
-524813
-524923
-525021
-525358
-525348
-525374
-525515
-525569
-525668
-525720
-525767
-525747
-526021
-526128
-526164
-526220
-526303
-526455
-526532
-527211
-527207
-527238
-527212
-527338
-527350
-527302
-527334
-527337
-527392
-527479
-527522
-527536
-527504
-527517
-527482
-527545
-527504
-527473
-527445
-527437
-527388
-527307
-527289
-527104
-526989
-526845
-526661
-526534
-526408
-526259
-526041
-525744
-525553
-525238
-525001
-524754
-524591
-524326
-524065
-523831
-523558
-523366
-523053
-522718
-522458
-522151
-521904
-521678
-521432
-521183
-520884
-520640
-520374
-520108
-519889
-519640
-519471
-519284
-519161
-518928
-518719
-518533
-518395
-518161
-518003
-517858
-517668
-517602
-517519
-517373
-517222
-517145
-517068
-516939
-516816
-516705
-516673
-516623
-516615
-516580
-516443
-516478
-516372
-516316
-516262
-516202
-516181
-516174
-516193
-516227
-516104
-516098
-516069
-516021
-515990
-515907
-515843
-515831
-515819
-515877
-515886
-515932
-515825
-515802
-515712
-515642
-515617
-515618
-515616
-515606
-515638
-515637
-515685
-515603
-515524
-515473
-515460
-515466
-515468
-515427
-515169
-515198
-515180
-515202
-515116
-515179
-515171
-515196
-515233
-515265
-515291
-515360
-515351
-515333
-515410
-515379
-515601
-515810
-515759
-515752
-515775
-515854
-515868
-515959
-516039
-516185
-516240
-516309
-516322
-516481
-516380
-516457
-516455
-516551
-516603
-516732
-516767
-516830
-516851
-516852
-516902
-516876
-516850
-517056
-517048
-517055
-517051
-517064
-517136
-517132
-517131
-517074
-517160
-517204
-517189
-517111
-517097
-517034
-516980
-516960
-516929
-516888
-516966
-517030
-516964
-516903
-516885
-516823
-516754
-516800
-516773
-516754
-516751
-516758
-516707
-516744
-516683
-516673
-516670
-516679
-516621
-516686
-516687
-516704
-516730
-516674
-516691
-516599
-516664
-516658
-516732
-516669
-516773
-516751
-516746
-516795
-516908
-516878
-516944
-516930
-516966
-517041
-517145
-517162
-517130
-517245
-517241
-517269
-517274
-517365
-517466
-517501
-517541
-517584
-517609
-517727
-517691
-517731
-517736
-517836
-517900
-517919
-518075
-518156
-518231
-518273
-518370
-518250
-518314
-518397
-518515
-518577
-518623
-518721
-518833
-518800
-518832
-518855
-518803
-518981
-518946
-519053
-519106
-519183
-519314
-519350
-519428
-519457
-519509
-519531
-519600
-519649
-519758
-519805
-519879
-519949
-519972
-519933
-519967
-519986
-520028
-520119
-520249
-520292
-520304
-520395
-520408
-520385
-520428
-520482
-520491
-520549
-520639
-520794
-520762
-520835
-520856
-520896
-520992
-520983
-521078
-521175
-521157
-521291
-521388
-521318
-521396
-521442
-521410
-521472
-521555
-521660
-521696
-521743
-521756
-521807
-521773
-521856
-521882
-521938
-521991
-521987
-522037
-522110
-522207
-522264
-522227
-522276
-522361
-522305
-522341
-522426
-522533
-522636
-522712
-522763
-522765
-522671
-522703
-522767
-522851
-522874
-522952
-523072
-523134
-523099
-523139
-523174
-523166
-523183
-523222
-523243
-523363
-523490
-523491
-523492
-523556
-523535
-523609
-523638
-523668
-523706
-523742
-523861
-523914
-523924
-523964
-523864
-523912
-524028
-524026
-524113
-524077
-524211
-524310
-524399
-524407
-524402
-524365
-524369
-524358
-524428
-524506
-524614
-524693
-524689
-524700
-524729
-524742
-524786
-524817
-524940
-524930
-524913
-524966
-525068
-525071
-525060
-525086
-525123
-525177
-525157
-525279
-525347
-525392
-525516
-525537
-525546
-525528
-525639
-525602
-525719
-525748
-525815
-525863
-525911
-525938
-525965
-526048
-526120
-526148
-526258
-526279
-526353
-526382
-526490
-526538
-526514
-526634
-526678
-526795
-526792
-526840
-526945
-526907
-526882
-526936
-527026
-527046
-527074
-527209
-527266
-527321
-527345
-527474
-527463
-527558
-527573
-527667
-527674
-527801
-527955
-527935
-527949
-527990
-528034
-528126
-528195
-528221
-528197
-528255
-528282
-528260
-528380
-528247
-528208
-528215
-528166
-528170
-528292
-528230
-528139
-528070
-528011
-527842
-527787
-527583
-527460
-527304
-527246
-527063
-526873
-526634
-526427
-526251
-525980
-525714
-525386
-525210
-525002
-524766
-524495
-524205
-523736
-523521
-523359
-523137
-522870
-522618
-522411
-522130
-521850
-521601
-521364
-521111
-520899
-520621
-520424
-520229
-520068
-519863
-519678
-519556
-519367
-519121
-518946
-518765
-518625
-518472
-518444
-518327
-518262
-518167
-518076
-517882
-517825
-517689
-517662
-517573
-517591
-517541
-517506
-517426
-517344
-517244
-517228
-517196
-517190
-517520
-517290
-517198
-517014
-517111
-516971
-516895
-516905
-516815
-516744
-516720
-516814
-516835
-516775
-516724
-516762
-516664
-516543
-516483
-516081
-515824
-515628
-515821
-515886
-515836
-515833
-515841
-515864
-517097
-517255
-517764
-517852
-517924
-517910
-517959
-517836
-517893
-517821
-517884
-517857
-517916
-517939
-517955
-517941
-517865
-517851
-517837
-517945
-517956
-518014
-518038
-518108
-518129
-518183
-518169
-518184
-518438
-518563
-518551
-518822
-518843
-518967
-518999
-518961
-519543
-519707
-519774
-519804
-519836
-519881
-519896
-519954
-519941
-520007
-520148
-520157
-520244
-520317
-520846
-520525
-520494
-520530
-520475
-520612
-520679
-520794
-520908
-520923
-520952
-520997
-521051
-521013
-521057
-521105
-521125
-521179
-521262
-521213
-521308
-521361
-521330
-521334
-521423
-521478
-521559
-521613
-521668
-521757
-521759
-521860
-521826
-521866
-521941
-522003
-522063
-522136
-522244
-522326
-522393
-522325
-522334
-522275
-522294
-522394
-522458
-522482
-522540
-522619
-522608
-522693
-522755
-522718
-522744
-522784
-522795
-523019
-523041
-523113
-523173
-523170
-523224
-523235
-523284
-523336
-523389
-523414
-523522
-523582
-523646
-523653
-523759
-523811
-523904
-523985
-523956
-523936
-524011
-524044
-524043
-524123
-524179
-524265
-524208
-524199
-524298
-524320
-524318
-524331
-524418
-524480
-524513
-524627
-524689
-524806
-524776
-524770
-524781
-524835
-524834
-524821
-524874
-525053
-525371
-525522
-525596
-526237
-526299
-526263
-526332
-526204
-526440
-526554
-526690
-526704
-526699
-526719
-526742
-526705
-526815
-526886
-527027
-527090
-527086
-527095
-527143
-527176
-527182
-527173
-527334
-527388
-527430
-527527
-527574
-527683
-527693
-527691
-527780
-527841
-527881
-527943
-528014
-528007
-528005
-528084
-528142
-528118
-528103
-527920
-527786
-527583
-527189
-526808
-526483
-526268
-526064
-525921
-525645
-525461
-525261
-524961
-523883
-523335
-523061
-522852
-522652
-522092
-521857
-521555
-520999
-520792
-520639
-520343
-520248
-520011
-519804
-519641
-519430
-518734
-518628
-518524
-518329
-518198
-518083
-517951
-517804
-517863
-517788
-517662
-517706
-517638
-517494
-517371
-517392
-517314
-517360
-517272
-517173
-517253
-517192
-517085
-517031
-516988
-516973
-516913
-516933
-516898
-516937
-516957
-516891
-516858
-516813
-516688
-516691
-516591
-516584
-516691
-516629
-516672
-516587
-516482
-516460
-516287
-516311
-516285
-516228
-516174
-516267
-516261
-516194
-516098
-516048
-516078
-516023
-515846
-515954
-515911
-515958
-515921
-515908
-515856
-515785
-515754
-515639
-515517
-515626
-515761
-515811
-515753
-515745
-516172
-515847
-515816
-515829
-515864
-515948
-515872
-515998
-516039
-516029
-515905
-516061
-516125
-516204
-516201
-516351
-516386
-516460
-516580
-516603
-516627
-516768
-516798
-516765
-516791
-516926
-517045
-517016
-517134
-517217
-517290
-517291
-517300
-517293
-517244
-517430
-517494
-517576
-517636
-517669
-517748
-517762
-517671
-517767
-517761
-517767
-517835
-517846
-517913
-517902
-517938
-517937
-517907
-517877
-517815
-517775
-517804
-517902
-517977
-517850
-517922
-517841
-517823
-517780
-517793
-517792
-517852
-517857
-517860
-517861
-517929
-517887
-517821
-517764
-517753
-517732
-517763
-517795
-517790
-517821
-517868
-517759
-517738
-517676
-517721
-517763
-517703
-517814
-517801
-517928
-517925
-517928
-517936
-517884
-517805
-517808
-517860
-517939
-517957
-517952
-518017
-518042
-518057
-518053
-518072
-518137
-518188
-518192
-518271
-518349
-518366
-518400
-518344
-518455
-518523
-518549
-518526
-518639
-518715
-518695
-518753
-518759
-518757
-518745
-518771
-518724
-518848
-518970
-519008
-519103
-519134
-519185
-519177
-519229
-519197
-519249
-519388
-519475
-519550
-519937
-519805
-519681
-519724
-519823
-519949
-520061
-520020
-520068
-520196
-520202
-520295
-520279
-520392
-520520
-520628
-520677
-520616
-520641
-520672
-520665
-520708
-520826
-520801
-520993
-521015
-521090
-521029
-521112
-521061
-521113
-521208
-521320
-521367
-521469
-521481
-521564
-521577
-521597
-521594
-521640
-521672
-521689
-521786
-521646
-521815
-521955
-521907
-521969
-521965
-522005
-521985
-522000
-522101
-522136
-522383
-522335
-522295
-522337
-522383
-522411
-522500
-522567
-522667
-522818
-522754
-522814
-522826
-522850
-522796
-522911
-522952
-523020
-523029
-523126
-523104
-523098
-523141
-523154
-523128
-523151
-523207
-523368
-523445
-523464
-523485
-523504
-523492
-523559
-523625
-523735
-523760
-523815
-523882
-523931
-523990
-523955
-524007
-523990
-524082
-524151
-524190
-524203
-524194
-524207
-524224
-524203
-524289
-524284
-524355
-524413
-524573
-524606
-524632
-524637
-524659
-524590
-524674
-524659
-524793
-524922
-524912
-525031
-525100
-525088
-525118
-525192
-525275
-525360
-525343
-525388
-525433
-525494
-525469
-525724
-525836
-526214
-526180
-526612
-526863
-526890
-526925
-526977
-527166
-527151
-527375
-524781
-524307
-524128
-523930
-523351
-523098
-522858
-522585
-522258
-522039
-521801
-521646
-521431
-521193
-520941
-520762
-520420
-520192
-520129
-519930
-519843
-519740
-519559
-519418
-519384
-519225
-519001
-519066
-518874
-518740
-518667
-518574
-518578
-518509
-518512
-518427
-518305
-518263
-518232
-518168
-518119
-518125
-518138
-518157
-518093
-518165
-518150
-518051
-518046
-518029
-518014
-517972
-518039
-518090
-518005
-518083
-518039
-518000
-518018
-517928
-518028
-518121
-518145
-518086
-518113
-518108
-517998
-518006
-517972
-517973
-517937
-517909
-517935
-517975
-517989
-517987
-517887
-517836
-517802
-517775
-517813
-517896
-517867
-517819
-517839
-517793
-517834
-517767
-517789
-517817
-517895
-517980
-517968
-517943
-518012
-518018
-518046
-518089
-518124
-518171
-518154
-518332
-518301
-518349
-518433
-518515
-518485
-518592
-518675
-518653
-518674
-518853
-518930
-518970
-519022
-518983
-518992
-519098
-519064
-519144
-519260
-519309
-519369
-519383
-519411
-519554
-519534
-519521
-519533
-519589
-519609
-519658
-519687
-519787
-519731
-519704
-519718
-519686
-519723
-519655
-519718
-519799
-519779
-519800
-519647
-519641
-519570
-519548
-519480
-519570
-519582
-519545
-519560
-519611
-519604
-519597
-519510
-519509
-519486
-519438
-519524
-519560
-519612
-519610
-519645
-519657
-519665
-519622
-519600
-519647
-519622
-519703
-519712
-519798
-519802
-519786
-519817
-519841
-519874
-519845
-519904
-520000
-520101
-520179
-520164
-520255
-520242
-520294
-520243
-520255
-520249
-520307
-520379
-520429
-520532
-520568
-520605
-520633
-520593
-520703
-520706
-520693
-520832
-520884
-520964
-521013
-520960
-520974
-521081
-521043
-521116
-521220
-521255
-521266
-521347
-521375
-521472
-521422
-521399
-521484
-521512
-521630
-521737
-521822
-521817
-521827
-521894
-521869
-521962
-522048
-522074
-522119
-522271
-522250
-522331
-522383
-522310
-522327
-522412
-522421
-522579
-522669
-522743
-522778
-522798
-522792
-522833
-522883
-522944
-522971
-523019
-523057
-523156
-523190
-523195
-523163
-523222
-523270
-523296
-523385
-523450
-523455
-523526
-523646
-523728
-524046
-523785
-523741
-523813
-523810
-523829
-523934
-524069
-524059
-524151
-524076
-524114
-524139
-524106
-524279
-524287
-524424
-524489
-524488
-524553
-524522
-524505
-524606
-524666
-524726
-524842
-524932
-524934
-525031
-525069
-525135
-525100
-525098
-525036
-525207
-525240
-525317
-525398
-525403
-525411
-525435
-525461
-525465
-525449
-525491
-525505
-525602
-525633
-525636
-525713
-525758
-525757
-525752
-525751
-525768
-525853
-525944
-526037
-526092
-526053
-526081
-526038
-526099
-526095
-526140
-526282
-526288
-526320
-526344
-526465
-526434
-526400
-526451
-526440
-526524
-526532
-526660
-526730
-526779
-526742
-526698
-526792
-526756
-526844
-526976
-527079
-527019
-527070
-527176
-527103
-527192
-527314
-527290
-527352
-527408
-527501
-527603
-527623
-527671
-527711
-527684
-527718
-527780
-527910
-527820
-528012
-528055
-528179
-528214
-528155
-528196
-528323
-528379
-528393
-528401
-528557
-528611
-528658
-528736
-528767
-528784
-528832
-528820
-528907
-529002
-529083
-529156
-529146
-529210
-529191
-529241
-529520
-529321
-529331
-529381
-529440
-529412
-529393
-529368
-529375
-529342
-529312
-529291
-529333
-529205
-529143
-529049
-528954
-528753
-528581
-528559
-528403
-528252
-528050
-527879
-527737
-527560
-527294
-527040
-526790
-526485
-526098
-525888
-525628
-525315
-525085
-524829
-524495
-524247
-524029
-523768
-523606
-523346
-523148
-522891
-522766
-522483
-522278
-522019
-521913
-521661
-521490
-521467
-521276
-521085
-521003
-520881
-520631
-520479
-520365
-520328
-520202
-520171
-520176
-520089
-519943
-519902
-519800
-519835
-519738
-519674
-519619
-519615
-519592
-519635
-519506
-519508
-519430
-519446
-519344
-519335
-519298
-519421
-519455
-519374
-519333
-519309
-519285
-519093
-519168
-519239
-519271
-519237
-519277
-519216
-519254
-519200
-519154
-519199
-519135
-519183
-519088
-519048
-519045
-519013
-518980
-518898
-518924
-518923
-518845
-518851
-518916
-518944
-518889
-518843
-518785
-518746
-518675
-518663
-518686
-518778
-518774
-518780
-518743
-518756
-518745
-518680
-518695
-518669
-518703
-518778
-518858
-518896
-518996
-519063
-519015
-519076
-519087
-518991
-519139
-519268
-519404
-519467
-519609
-519638
-519621
-519664
-519715
-519752
-519841
-519912
-519928
-520003
-519938
-520144
-520139
-520288
-520340
-520408
-520440
-520521
-520604
-520629
-520722
-520803
-520808
-520764
-520806
-520818
-520846
-520954
-521014
-521058
-521003
-520994
-520906
-520946
-520919
-520905
-520927
-520994
-521061
-521123
-521015
-521055
-521059
-521021
-520989
-521042
-520986
-521105
-521124
-521091
-520983
-521046
-520976
-521018
-520948
-521006
-521043
-521003
-521097
-521101
-521094
-521120
-521089
-521050
-520960
-520972
-521063
-521137
-521225
-521229
-521260
-521216
-521120
-521110
-521152
-521271
-521300
-521390
-521445
-521532
-521471
-521459
-521570
-521595
-521468
-521545
-521613
-521533
-521644
-521658
-521542
-521665
-521778
-521848
-521873
-521880
-522000
-522048
-522087
-522161
-522217
-522321
-522270
-522317
-522278
-522407
-522444
-522580
-522586
-522645
-522652
-522648
-522800
-522755
-522809
-522819
-522881
-522996
-523134
-523116
-523238
-523149
-523276
-523311
-523396
-523428
-523570
-523618
-523625
-523725
-523814
-523821
-524119
-523959
-523902
-524016
-524069
-524067
-524114
-524222
-524256
-524327
-524418
-524451
-524457
-524527
-524538
-524647
-524726
-524812
-524847
-524836
-524830
-524913
-524952
-525038
-525104
-525137
-525204
-525219
-525264
-525355
-525332
-525368
-525396
-525492
-525550
-525241
-525508
-525564
-525806
-525764
-525767
-525910
-525903
-525942
-525993
-526102
-526120
-526168
-526194
-526231
-526277
-526310
-526366
-526401
-526458
-526551
-526693
-526640
-526733
-526736
-526758
-526839
-526819
-526792
-526855
-526976
-527067
-527198
-527207
-527188
-527328
-527274
-527249
-527303
-527374
-527522
-527575
-527599
-527618
-527719
-527652
-527657
-527697
-527758
-527876
-527857
-528001
-527954
-528031
-528035
-528156
-528122
-528188
-528138
-528190
-528301
-528410
-528448
-528418
-528324
-528429
-528590
-528619
-528626
-528662
-528805
-528866
-528887
-528927
-528913
-528982
-528945
-529046
-529056
-529117
-529115
-529159
-529259
-529661
-529474
-529371
-529383
-529342
-529395
-529489
-529553
-529612
-529682
-529698
-529693
-529763
-529685
-529767
-529813
-529850
-530003
-529971
-530080
-530058
-530091
-530131
-530208
-530262
-530321
-530346
-530446
-530542
-530546
-530640
-530651
-530802
-530956
-530976
-531006
-531075
-531206
-531150
-531212
-531296
-531317
-531441
-531460
-531565
-531608
-531640
-531625
-532117
-531915
-531846
-531925
-531912
-531988
-531987
-532081
-532214
-532224
-532257
-532247
-532328
-532333
-532339
-532392
-532481
-532460
-532511
-532499
-532436
-532370
-532378
-532259
-532185
-532136
-532052
-532103
-531957
-531870
-531640
-531496
-531316
-531198
-531008
-530890
-530671
-530394
-530210
-529675
-529467
-529148
-528901
-528655
-528392
-528092
-527866
-527591
-527347
-527103
-526831
-526680
-526405
-526145
-525918
-525714
-525457
-525278
-525021
-524792
-524603
-524388
-524239
-524111
-523942
-523756
-523640
-523495
-523389
-523279
-523167
-522990
-522892
-522808
-522732
-522639
-522553
-522544
-522400
-522318
-522220
-522163
-522199
-522081
-522053
-522013
-522049
-521914
-521934
-521733
-521782
-521760
-521764
-521847
-521771
-521754
-521759
-521697
-521721
-521656
-521628
-521576
-521564
-521530
-521478
-521489
-521458
-521455
-521465
-521353
-521285
-521267
-521306
-521229
-521287
-520925
-520804
-520601
-520603
-520532
-520560
-520673
-520742
-520818
-520869
-520894
-520832
-520895
-521018
-521149
-521136
-521210
-521269
-521302
-521339
-521359
-521358
-521555
-521675
-521729
-521794
-521854
-521953
-522007
-522068
-522114
-522222
-522232
-522400
-522379
-522344
-522376
-522457
-522513
-522544
-522643
-522723
-522851
-522966
-523129
-522975
-522888
-522978
-523006
-523003
-523017
-523055
-523026
-523054
-522999
-522975
-522949
-522974
-522989
-523081
-523023
-523009
-523053
-523355
-523114
-523024
-522991
-522900
-523020
-523012
-523075
-523007
-523057
-522973
-522957
-522982
-523054
-523081
-522940
-523023
-523058
-523090
-523163
-523292
-523248
-523246
-523146
-523109
-523052
-522946
-522991
-522933
-523042
-523068
-523232
-523392
-523333
-523439
-523485
-523507
-523547
-523505
-523629
-523751
-523777
-523809
-523892
-523922
-523917
-523847
-523841
-523824
-523786
-523882
-523909
-523917
-524048
-524094
-524137
-524222
-524311
-524328
-524461
-524468
-524462
-524561
-524611
-524711
-524761
-524822
-524876
-524932
-525049
-524912
-525010
-525075
-525050
-525053
-525177
-525305
-525322
-525425
-525470
-525553
-525565
-525602
-525692
-525786
-525842
-525874
-525920
-526009
-526064
-526083
-526113
-526129
-526166
-526230
-526296
-526302
-526405
-526687
-526524
-526451
-526465
-526596
-526705
-526830
-526846
-526858
-526915
-526970
-527071
-527124
-527128
-527167
-527246
-527317
-527335
-527399
-527462
-527538
-527580
-527564
-527565
-527642
-527752
-527741
-527798
-527794
-527891
-527966
-527964
-527968
-528047
-528123
-528165
-528225
-528276
-528327
-528208
-528331
-528318
-528400
-528464
-528495
-528616
-528603
-528644
-528779
-528819
-528781
-528790
-528793
-528923
-528913
-528948
-528980
-529068
-529079
-529165
-529302
-529246
-529381
-529449
-529428
-529536
-529569
-529617
-529611
-529597
-529691
-529783
-529855
-530090
-530039
-530054
-530088
-530137
-530116
-530180
-530290
-530333
-530365
-530454
-530409
-530462
-530516
-530525
-530587
-530656
-530740
-530801
-530804
-530933
-530896
-530905
-530990
-531094
-531047
-531009
-531147
-531228
-531292
-531341
-531337
-531405
-531438
-531421
-531566
-531520
-531535
-531635
-531643
-531709
-531741
-531716
-531737
-531840
-531919
-531958
-532120
-532188
-532226
-532333
-532221
-532320
-532512
-532539
-532626
-532654
-532679
-532685
-532664
-532698
-532773
-532861
-532672
-532873
-532919
-533025
-533037
-533138
-533137
-533131
-533231
-533553
-533424
-533410
-533465
-533491
-533568
-533615
-533654
-533651
-533655
-533769
-533834
-533934
-533921
-534026
-534025
-534043
-534107
-534155
-534253
-534309
-534372
-534360
-534486
-534513
-534572
-534600
-534731
-534660
-534816
-534824
-534969
-534927
-535013
-535088
-535124
-535397
-535216
-535257
-535229
-535279
-535346
-535361
-535327
-535398
-535362
-535333
-535359
-535389
-535293
-535353
-535323
-535229
-535186
-535121
-535021
-534920
-534773
-534640
-534487
-534329
-534195
-533992
-533815
-533643
-533455
-533164
-532893
-532679
-532298
-532173
-531995
-531699
-531494
-531168
-530851
-530615
-530331
-530106
-529809
-529543
-529364
-529111
-528779
-528627
-528225
-528071
-527936
-527740
-527524
-527385
-527207
-526083
-525661
-525378
-525372
-525391
-525241
-525198
-525194
-525179
-525260
-525255
-525229
-525225
-525183
-525162
-525180
-525203
-525187
-525121
-525098
-525123
-525176
-525167
-525180
-525082
-525076
-525111
-525040
-524937
-525016
-525037
-524970
-524997
-524916
-524886
-524868
-524863
-524888
-524928
-524861
-524882
-524778
-524798
-524776
-524715
-524659
-524718
-524699
-524669
-524733
-524657
-524682
-524697
-524627
-524650
-524693
-524678
-524672
-524754
-524779
-524811
-524794
-524842
-524918
-524964
-524963
-525091
-525197
-525206
-525261
-525280
-525799
-525534
-525502
-525486
-525574
-525638
-525681
-525738
-525802
-525936
-525919
-525961
-526038
-526017
-526081
-526167
-526267
-526318
-526391
-526383
-526480
-526524
-526560
-526469
-526567
-526551
-526548
-526655
-526674
-526731
-526777
-526664
-526708
-526709
-526759
-526732
-526787
-526808
-526753
-526709
-526713
-526689
-526708
-526747
-526706
-526637
-526659
-526641
-526660
-526686
-526740
-526727
-526612
-526646
-526588
-526567
-526653
-526622
-526678
-526618
-526620
-526590
-526552
-526587
-526549
-526563
-526578
-526603
-526681
-526597
-526687
-526645
-526657
-526678
-526685
-526699
-526787
-526690
-526886
-526883
-526881
-526864
-526925
-526993
-527111
-527138
-527112
-527189
-527236
-527257
-527170
-527296
-527384
-527406
-527457
-527491
-527543
-527556
-527528
-527519
-527550
-527607
-527705
-527790
-527879
-527903
-527914
-528016
-528053
-528041
-528065
-528096
-528194
-528246
-528294
-528379
-528411
-528432
-528501
-528471
-528852
-528710
-528695
-528670
-528738
-528835
-528831
-528866
-528939
-528989
-528961
-528922
-529036
-528889
-529085
-529159
-529321
-529288
-529382
-529456
-529409
-529478
-529576
-529597
-529668
-529727
-529792
-529753
-529787
-529879
-529987
-529927
-530069
-530009
-530085
-530076
-530172
-530230
-530291
-530329
-530383
-530355
-530433
-530464
-530541
-530606
-530691
-530685
-530755
-530789
-530876
-530888
-530958
-530924
-530979
-530997
-531041
-531123
-531173
-531197
-531159
-531193
-531189
-531377
-531374
-531405
-531441
-531463
-531553
-531567
-531640
-531568
-531715
-531763
-531736
-531816
-531926
-531946
-531954
-531943
-531951
-532017
-532095
-532224
-532211
-532162
-532236
-532304
-532321
-532312
-532305
-532316
-532377
-532520
-532608
-532650
-532710
-532768
-532701
-532590
-532712
-532844
-533187
-533059
-532962
-533017
-533042
-533054
-533046
-533069
-533090
-533188
-533244
-533249
-533344
-533405
-533400
-533405
-533460
-533494
-533574
-533494
-533584
-533683
-533670
-533687
-533788
-533851
-533794
-533789
-533861
-533932
-533949
-533972
-534080
-534059
-534099
-534091
-534111
-534196
-534253
-534229
-534339
-534337
-534388
-534449
-534512
-534545
-534574
-534492
-534549
-534621
-534675
-534743
-534796
-534808
-534821
-534868
-534951
-534979
-534974
-535043
-535029
-535121
-535175
-535236
-535244
-535259
-535323
-535339
-535380
-535500
-535503
-535560
-535680
-535647
-535753
-535809
-536110
-535906
-535911
-535926
-536348
-536116
-536175
-536200
-536087
-536261
-536231
-536332
-536429
-536550
-536519
-536562
-536547
-536683
-536709
-536733
-536805
-536886
-536960
-536932
-536942
-536883
-536975
-537070
-537129
-537146
-537192
-537127
-537184
-537208
-537257
-537184
-537220
-537168
-537152
-537099
-536983
-536858
-536726
-536591
-536433
-536275
-536180
-535978
-535809
-535579
-535428
-535227
-535067
-534808
-534516
-534243
-533936
-533757
-533532
-533340
-533020
-532722
-532508
-532209
-531942
-531715
-531440
-531276
-531056
-530719
-530533
-530320
-530086
-529873
-529667
-529589
-529338
-529219
-528977
-528847
-528658
-528491
-528360
-528261
-528114
-528013
-527972
-527873
-527721
-527647
-527487
-527443
-527331
-527294
-527254
-527224
-527180
-527140
-527067
-527036
-527043
-527022
-526901
-526932
-526895
-526947
-526858
-526831
-526755
-526850
-526754
-526773
-526739
-526776
-526800
-526713
-526781
-526755
-526703
-526693
-526707
-526657
-526575
-526570
-526465
-526563
-526593
-526601
-526577
-526557
-526429
-526401
-526375
-526317
-526303
-526352
-526365
-526357
-526320
-526224
-526222
-526270
-526432
-526488
-526246
-526208
-526148
-526133
-526084
-525992
-525960
-525993
-526034
-526030
-526031
-525978
-526038
-526133
-526139
-526149
-526157
-526136
-526252
-526250
-526284
-526285
-526368
-526404
-526477
-526849
-526697
-526641
-526741
-526788
-526897
-526989
-527015
-527037
-527099
-527153
-527297
-527273
-527392
-527405
-527381
-527535
-527475
-527526
-527609
-527667
-527714
-527676
-527682
-527761
-527754
-527807
-527858
-527813
-527762
-527886
-527882
-527828
-527862
-527868
-527940
-527914
-527902
-527914
-527926
-527870
-527834
-527805
-527887
-527865
-527851
-527843
-527779
-527795
-527831
-527834
-527807
-527847
-527846
-527836
-527885
-527735
-527684
-527733
-527736
-527666
-527825
-527795
-527721
-527832
-527791
-527842
-527798
-527849
-527862
-527843
-527880
-527830
-527907
-527950
-527944
-527964
-527951
-527936
-527966
-528058
-528070
-528162
-528114
-528191
-528178
-528214
-528209
-528200
-528244
-528328
-528396
-528414
-528524
-528478
-528563
-528543
-528536
-528566
-528607
-528684
-528744
-528798
-528930
-528959
-528883
-529008
-528977
-529011
-529079
-529115
-529088
-529188
-529231
-529273
-529342
-529372
-529456
-529514
-529477
-529555
-529594
-529615
-529641
-529614
-529666
-529778
-529824
-529848
-529842
-529921
-529979
-530023
-530123
-529979
-530169
-530187
-530188
-530299
-530289
-530359
-530439
-530509
-530593
-530632
-530609
-530596
-530601
-530561
-530701
-530875
-531322
-531043
-531054
-531091
-531143
-531162
-531180
-531199
-531267
-531266
-531381
-531468
-531535
-531561
-531619
-531603
-531617
-531659
-531733
-531764
-531845
-531919
-531881
-531978
-532065
-532038
-532054
-532201
-532119
-532184
-532334
-532317
-532320
-532453
-532467
-532504
-532576
-532607
-532616
-532668
-532743
-532727
-532813
-532900
-532909
-532921
-532881
-533004
-533107
-533078
-533128
-533241
-533256
-533294
-533340
-533393
-533471
-533418
-533506
-533566
-533575
-533545
-533665
-533739
-533659
-533653
-533738
-533875
-533860
-534003
-534031
-534016
-534041
-534009
-534042
-534194
-534261
-534302
-534313
-534395
-534445
-534508
-534477
-534451
-534484
-534605
-534564
-534642
-534671
-534809
-534873
-534847
-534828
-534910
-534948
-534967
-535009
-535498
-535269
-535277
-535193
-535243
-535246
-535362
-535346
-535358
-535319
-535325
-535438
-535563
-535546
-535582
-535641
-535640
-535654
-535691
-535755
-535823
-535847
-535887
-535951
-535979
-535965
-536059
-536010
-536092
-536175
-536229
-536197
-536270
-536286
-536335
-536400
-536386
-536404
-536526
-536472
-536589
-536606
-536673
-536684
-536792
-536754
-536793
-536839
-536856
-536928
-536968
-537055
-537080
-537120
-537119
-537147
-537237
-537249
-537686
-537410
-537396
-537411
-537574
-537540
-537666
-537688
-537619
-537724
-537788
-537873
-537879
-538001
-537988
-538026
-538106
-538101
-538166
-538163
-538216
-538276
-538325
-538360
-538486
-538516
-538514
-538549
-538540
-538588
-538616
-538669
-538702
-538691
-538796
-538772
-538762
-538704
-538707
-538642
-538665
-538671
-538596
-538502
-537384
-536349
-535406
-534054
-533436
-532691
-531841
-531463
-531096
-530698
-530421
-530255
-530075
-528976
-528803
-528708
-528593
-528444
-528353
-528314
-528145
-528120
-527961
-527857
-527851
-527765
-527674
-527657
-527623
-527666
-527583
-527492
-527453
-527424
-527356
-527290
-527297
-527293
-527244
-527120
-527077
-527045
-527084
-526966
-526983
-526934
-526727
-526900
-526884
-526809
-526824
-526733
-526681
-526675
-526674
-526611
-526562
-526537
-526534
-526490
-526406
-526346
-526327
-526249
-526188
-526130
-526183
-526169
-526108
-526027
-526037
-525952
-525945
-525808
-525774
-525770
-525675
-525505
-525642
-525674
-525630
-525599
-525544
-525492
-525512
-525518
-525469
-525623
-525551
-525546
-525549
-525528
-525607
-525565
-525567
-525682
-525752
-525720
-525778
-525790
-525868
-525885
-525849
-525870
-525951
-525999
-526071
-526132
-526171
-526253
-526280
-526281
-526371
-526416
-526487
-526585
-526575
-526609
-526703
-526807
-526899
-526851
-526936
-526835
-526909
-526936
-526956
-527041
-527102
-527137
-527115
-527119
-527109
-527080
-527091
-527135
-527137
-527194
-527206
-527183
-527205
-527226
-527204
-527273
-527258
-527020
-527194
-527263
-527291
-527189
-527143
-527165
-527178
-527155
-527183
-527200
-527137
-527176
-527199
-527207
-527170
-527255
-527185
-527164
-527148
-527192
-527263
-527156
-527300
-527275
-527189
-527192
-527221
-527288
-527243
-527232
-527287
-527276
-527352
-527344
-527466
-527327
-527333
-527337
-527404
-527444
-527462
-527327
-527510
-527514
-527492
-527484
-527545
-527602
-527626
-527621
-527593
-527647
-527699
-527817
-527795
-527777
-527900
-527942
-527938
-527960
-527962
-528029
-528164
-528176
-528481
-528269
-528272
-528308
-528327
-528368
-528443
-528326
-528425
-528473
-528482
-528568
-528609
-528647
-528671
-528769
-528839
-528832
-528895
-528957
-528976
-528958
-529002
-529083
-529128
-529198
-529214
-529261
-529281
-529318
-529424
-529429
-529507
-529549
-529554
-529585
-529671
-529679
-529833
-529768
-529801
-529804
-529870
-529905
-529883
-529981
-530025
-530094
-530153
-530264
-530296
-530277
-530300
-530310
-530436
-530431
-530428
-530497
-530627
-530561
-530617
-530741
-530701
-530742
-530748
-530801
-530872
-530885
-530929
-531041
-530985
-531008
-531110
-531185
-531163
-531258
-531265
-531301
-531311
-531335
-531453
-531435
-531474
-531593
-531578
-531613
-531572
-531628
-531723
-531824
-531760
-531801
-531855
-531933
-531987
-532009
-532064
-532072
-532211
-532166
-532203
-532233
-532199
-532316
-532388
-532407
-532459
-532497
-532569
-532635
-532578
-532572
-532683
-532703
-532782
-532810
-532839
-532950
-532866
-532984
-532985
-533011
-533090
-533129
-533173
-533186
-533238
-533305
-533379
-533360
-533393
-533405
-533460
-533539
-533527
-533534
-533609
-533668
-533739
-533694
-533716
-533734
-533769
-533792
-533933
-533747
-533882
-534056
-534065
-534056
-534073
-534141
-534160
-534229
-534262
-534307
-534353
-534381
-534441
-534378
-534400
-534470
-534510
-534557
-534604
-534662
-534689
-534670
-534790
-534826
-534814
-534863
-534758
-534953
-535034
-535032
-535098
-535066
-535135
-535163
-535241
-535172
-535261
-535330
-535402
-535468
-535530
-535582
-535636
-535661
-535723
-535748
-535777
-535792
-535911
-535910
-536029
-536107
-536081
-536086
-536091
-536163
-536232
-536293
-536333
-536399
-536456
-536571
-536584
-536654
-536675
-536686
-536712
-536748
-536850
-536897
-536903
-536976
-537057
-537386
-537189
-537156
-537247
-537246
-537233
-537332
-537380
-537358
-537425
-537396
-537414
-537538
-537459
-537426
-537368
-537324
-537332
-537350
-537304
-537141
-537034
-536966
-536884
-536683
-536581
-536480
-536305
-536082
-535885
-535707
-535515
-535310
-535136
-534862
-534604
-534340
-534185
-533896
-533627
-533384
-533105
-532803
-532554
-532392
-532066
-531846
-531588
-531360
-531122
-530843
-530539
-530317
-530099
-529889
-529623
-529460
-529293
-529060
-528964
-528788
-528577
-528350
-528255
-528143
-528014
-527833
-527706
-527662
-527513
-527457
-527358
-527270
-527122
-527073
-527054
-526809
-526920
-526783
-526743
-526654
-526532
-526553
-526528
-526475
-526482
-526366
-526350
-526250
-526270
-526249
-526222
-526157
-526148
-526154
-526101
-526130
-526039
-526026
-525952
-525951
-525873
-525940
-525902
-525839
-525738
-525776
-525700
-525699
-525656
-525553
-525540
-525517
-525403
-525433
-525364
-525284
-525313
-525229
-525091
-525122
-525093
-525053
-525000
-525015
-524959
-524997
-524955
-524914
-524837
-524806
-524747
-524721
-524694
-524691
-524697
-524744
-524672
-524719
-524766
-524716
-524793
-524883
-524803
-524792
-524828
-524949
-524959
-524802
-525001
-525059
-525068
-525157
-525214
-525358
-525341
-525373
-525481
-525531
-525534
-525530
-525651
-525727
-525708
-525759
-525851
-525958
-525979
-526024
-526039
-526114
-526088
-526116
-526247
-526235
-526236
-526345
-526366
-526363
-526354
-526452
-526430
-526417
-526500
-526583
-526533
-526592
-526632
-526641
-526550
-526664
-526660
-526646
-526609
-526608
-526623
-526676
-526640
-526661
-526553
-526522
-526508
-526489
-526472
-526434
-526430
-526474
-526508
-526481
-526430
-526363
-526373
-526422
-526436
-526280
-526307
-526211
-526290
-526255
-526260
-526256
-526288
-526318
-526341
-526330
-526367
-526354
-526397
-526435
-526443
-526412
-526275
-526424
-526480
-526511
-526557
-526529
-526601
-526545
-526597
-526580
-526688
-526776
-526712
-526831
-526778
-526870
-526867
-526873
-526869
-526902
-526984
-527006
-526993
-527117
-527236
-527173
-527234
-527226
-527302
-527386
-527342
-527712
-527501
-527535
-527476
-527570
-527645
-527603
-527692
-527724
-527854
-528062
-527875
-527931
-527896
-527875
-528025
-527993
-528019
-528113
-528230
-528200
-528275
-528307
-528593
-528436
-528415
-528460
-528510
-528543
-528551
-528644
-528730
-528764
-528934
-528876
-528915
-528904
-529037
-529076
-529079
-529128
-529173
-529204
-529240
-529276
-529365
-529404
-529408
-529489
-529579
-529524
-529623
-529701
-529661
-529752
-529790
-529787
-530097
-529917
-529922
-529875
-529940
-530015
-530000
-530118
-530095
-529979
-530042
-530136
-530274
-530213
-530256
-530326
-530351
-530378
-530408
-530484
-530471
-530476
-530511
-530580
-530631
-530513
-530683
-530648
-530716
-530739
-530825
-530788
-530914
-531020
-531026
-531038
-531007
-531079
-531096
-531089
-531231
-531224
-531306
-531129
-531268
-531383
-531435
-531437
-531460
-531494
-531516
-531480
-531571
-531569
-531609
-531664
-531680
-531716
-531783
-531867
-531819
-531896
-531846
-531934
-531886
-531983
-531961
-532055
-532088
-532049
-532139
-532077
-532186
-532198
-532238
-532214
-532317
-532251
-532321
-532342
-532355
-532403
-532425
-532429
-532556
-532548
-532618
-532535
-532644
-532592
-532670
-532739
-532801
-532794
-532796
-532898
-533032
-532996
-533083
-533029
-533043
-533184
-533131
-533195
-533477
-533415
-533428
-533410
-533417
-533399
-533374
-533519
-533591
-533663
-533752
-533808
-533785
-533843
-533914
-533974
-534007
-534080
-534093
-534165
-534342
-534353
-534350
-534407
-534415
-534501
-534534
-534660
-534697
-534694
-534761
-534795
-534814
-534782
-534865
-534844
-534880
-534979
-535014
-535023
-535060
-535138
-535175
-535179
-535228
-535209
-535200
-535216
-535208
-535307
-535301
-535197
-535186
-534972
-535035
-534991
-534907
-534819
-534810
-534625
-534559
-534398
-534240
-534114
-533940
-533783
-533622
-533315
-533161
-532882
-532388
-532289
-531986
-531738
-531475
-531218
-531015
-530758
-530515
-530266
-530099
-529736
-529569
-529279
-529035
-528867
-528692
-528425
-528143
-528043
-527803
-527654
-527460
-527323
-527151
-527056
-526920
-526808
-526664
-526466
-526363
-526253
-526126
-525985
-525989
-525840
-525818
-525813
-525743
-525729
-525661
-525678
-525596
-525525
-525518
-525430
-525390
-525403
-525385
-525418
-525361
-525392
-525366
-525320
-525392
-525294
-525275
-525276
-525334
-525288
-525341
-525290
-525247
-525245
-525307
-525358
-525354
-525283
-525235
-525271
-525290
-525770
-525423
-525311
-525284
-525304
-525324
-525256
-525212
-525130
-525168
-525186
-525149
-525128
-525154
-525119
-525167
-525137
-525183
-525108
-525099
-525159
-525177
-525166
-525253
-525144
-525257
-525303
-525298
-525397
-525390
-525414
-525515
-525535
-525381
-525545
-525682
-525679
-525834
-525807
-525919
-525918
-526007
-526039
-526112
-526146
-526247
-526269
-526335
-526409
-526493
-526525
-526489
-526519
-526584
-526937
-526738
-526764
-526808
-526881
-526856
-526960
-526876
-526912
-526904
-526881
-527007
-527035
-526987
-526949
-526921
-526948
-526921
-526865
-526898
-526847
-526789
-526814
-526829
-526847
-526849
-526817
-526774
-526768
-526599
-526610
-526688
-526665
-526628
-526681
-526609
-526622
-526548
-526508
-526518
-526503
-526522
-526515
-526452
-526512
-526480
-526497
-526392
-526407
-526405
-526524
-526407
-526483
-526488
-526521
-526518
-526501
-526541
-526524
-526542
-526522
-526605
-526572
-526639
-526613
-526647
-526669
-526617
-526646
-526549
-526677
-526721
-526743
-526783
-526799
-526896
-526890
-526886
-526978
-526972
-527018
-527060
-527088
-527079
-527131
-527173
-527210
-527300
-527429
-527351
-527420
-527455
-527541
-527600
-527548
-527612
-527627
-527676
-527655
-527600
-527772
-527869
-527867
-527882
-527947
-528011
-528057
-528042
-528053
-528101
-528164
-528221
-528279
-528321
-528330
-528374
-528451
-528446
-528543
-528587
-528603
-528568
-528739
-528704
-528716
-528703
-528681
-528737
-528837
-528952
-528971
-528998
-528988
-529054
-529113
-529122
-529084
-529196
-529289
-529318
-529299
-529388
-529472
-529440
-529566
-529522
-529596
-529677
-529771
-529761
-529817
-529811
-529899
-529866
-529975
-529962
-530005
-530035
-530070
-530171
-530173
-530181
-530243
-530264
-530324
-530319
-530363
-530470
-530414
-530462
-530567
-530539
-530554
-530552
-530599
-530643
-530601
-530635
-530669
-530666
-531185
-530931
-530819
-530809
-530903
-530902
-530876
-530974
-530950
-530906
-531030
-531077
-531050
-531033
-530997
-531084
-531051
-531082
-531085
-531141
-531200
-531273
-531247
-531252
-531197
-531306
-531303
-531381
-531420
-531405
-531395
-531429
-531446
-531559
-531479
-531482
-531480
-531617
-531555
-531561
-531636
-531651
-531630
-531673
-531708
-531796
-531848
-531911
-531864
-532014
-532026
-532060
-532116
-532146
-532165
-532215
-532241
-532287
-532292
-532386
-532453
-532456
-532512
-532540
-532614
-532671
-532709
-532770
-532816
-532819
-532827
-532962
-532976
-533015
-533093
-533113
-533209
-533140
-533275
-533277
-533332
-533272
-533310
-533359
-533417
-533485
-533430
-533505
-533522
-533533
-533571
-533510
-533484
-533539
-533457
-533373
-533342
-533347
-533310
-533232
-533120
-532998
-532870
-532726
-532646
-532414
-532286
-532138
-531952
-531767
-531582
-531360
-531141
-530854
-530589
-530350
-530174
-529932
-529700
-529389
-529173
-528908
-528644
-528354
-528170
-527900
-527696
-527359
-527183
-526916
-526661
-526399
-526231
-525997
-525750
-525680
-525460
-525257
-525116
-525059
-524821
-524573
-524450
-524316
-524228
-524077
-524054
-523889
-523791
-523761
-523596
-523515
-523404
-523356
-523275
-523179
-523131
-523040
-523054
-523001
-522888
-522878
-522823
-522799
-522723
-522778
-522715
-522664
-522711
-522663
-522679
-522621
-522587
-522509
-522549
-523000
-522608
-522484
-522422
-522479
-522448
-522243
-522339
-522261
-522211
-522224
-522220
-522134
-522112
-522035
-522015
-521965
-521954
-521883
-521881
-521837
-521811
-521749
-521726
-521712
-521692
-521658
-521586
-521528
-521568
-521536
-521570
-521494
-521472
-521423
-521481
-521433
-521404
-521452
-521408
-521459
-521423
-521471
-521518
-521725
-522034
-522500
-522482
-522732
-522777
-522943
-522912
-522987
-523016
-523034
-523155
-523184
-523233
-523144
-523159
-523177
-523181
-523184
-523202
-523164
-523115
-523060
-523104
-523072
-523045
-522996
-523041
-523022
-523014
-523002
-522958
-522945
-522916
-522940
-522932
-522955
-522923
-522884
-522959
-522978
-522965
-522846
-523102
-522921
-522821
-522851
-522903
-522982
-522939
-522865
-522856
-522886
-522849
-522812
-522885
-522872
-522923
-522973
-522931
-522976
-523018
-523050
-523042
-523022
-522958
-522984
-523039
-523134
-523159
-523174
-523240
-523134
-523226
-523284
-523286
-523347
-523372
-523355
-523452
-523471
-523384
-523434
-523475
-523607
-523673
-523707
-523725
-523772
-523723
-523804
-523845
-523899
-523844
-523943
-524019
-523979
-524093
-524096
-524126
-524223
-524260
-524216
-524358
-524345
-524440
-524502
-524494
-524583
-524564
-524633
-524640
-524720
-524699
-524800
-524839
-524856
-524932
-524996
-525055
-525159
-525195
-525189
-525152
-525179
-525214
-525300
-525374
-525445
-525419
-525452
-525511
-525515
-525625
-525636
-525708
-525697
-525727
-525849
-525854
-525879
-525948
-525931
-525979
-526034
-526115
-526440
-526300
-526287
-526294
-526309
-526272
-526347
-526397
-526437
-526473
-526505
-526582
-526490
-526553
-526649
-526587
-526672
-526737
-526798
-526838
-526802
-526866
-526920
-527028
-527045
-527134
-527077
-527082
-527245
-527482
-527322
-527342
-527346
-527343
-527318
-527329
-527454
-527458
-527424
-527525
-527553
-527625
-527640
-527678
-527765
-527746
-527819
-527857
-527885
-527969
-528050
-528047
-528077
-528153
-528114
-528136
-528517
-528615
-528384
-528298
-528264
-528364
-528377
-528318
-528384
-528417
-528433
-528532
-528591
-528641
-528655
-528650
-528734
-528750
-528805
-528816
-528917
-528913
-529046
-529060
-529045
-529093
-529070
-529123
-529173
-529285
-529275
-529306
-529429
-529373
-529375
-529467
-529510
-529552
-529607
-529617
-529952
-529780
-529833
-529839
-529984
-530063
-530019
-530158
-530184
-530276
-530317
-530405
-530463
-530469
-530444
-530481
-530513
-530548
-530560
-530714
-530665
-530726
-530738
-530765
-530832
-530890
-530866
-530836
-530870
-530837
-530767
-530736
-530800
-530748
-530637
-530587
-530518
-530407
-530277
-530181
-530103
-529963
-529833
-529660
-529470
-529246
-529098
-528881
-528670
-528406
-528116
-527922
-527681
-527331
-527080
-526815
-526525
-526216
-525936
-525726
-525475
-525164
-524963
-524615
-524344
-524085
-523809
-523591
-523344
-523109
-522853
-522599
-522439
-522202
-522020
-521891
-521579
-521367
-521218
-521032
-520963
-520813
-520639
-520518
-520386
-520312
-520164
-520043
-519872
-519892
-519784
-519665
-519585
-519528
-519488
-519377
-519362
-519273
-519162
-519121
-519130
-519045
-519030
-518969
-518943
-518913
-518864
-518738
-518680
-518642
-518684
-518567
-518509
-518428
-518466
-518405
-518341
-518274
-518249
-518232
-518163
-518098
-518082
-518353
-518093
-518021
-517857
-517769
-517827
-517722
-517681
-517604
-517596
-517500
-517461
-517469
-517380
-517297
-517283
-517167
-517110
-516990
-516976
-516989
-516870
-516850
-516769
-516792
-516759
-516707
-516765
-516731
-516696
-516661
-516623
-516757
-516730
-516764
-516748
-516808
-516754
-516843
-516817
-516942
-516912
-516986
-517001
-517003
-517071
-517228
-517206
-517358
-517394
-517380
-517499
-517501
-517466
-517649
-517825
-517885
-517906
-517950
-518060
-518105
-518227
-518271
-518299
-518442
-518467
-518591
-518629
-518644
-518724
-518752
-518837
-518855
-518804
-518935
-519050
-519055
-518985
-519097
-519027
-518978
-518961
-519028
-519005
-519008
-518938
-518984
-518960
-518925
-518948
-518924
-518895
-518872
-518898
-518870
-518902
-518901
-518875
-518863
-518754
-518831
-518758
-518799
-518715
-518786
-518765
-518840
-518806
-518804
-518737
-518739
-518743
-518706
-518746
-518749
-518757
-518759
-518688
-518773
-518757
-518804
-518865
-518792
-518872
-518916
-518933
-519344
-519130
-518993
-519052
-519061
-519053
-519054
-519461
-519190
-519146
-519207
-519242
-519324
-519259
-519361
-519367
-519402
-519384
-519460
-519550
-519618
-519606
-519659
-519724
-519799
-519721
-519849
-519891
-520025
-520043
-520151
-520024
-520057
-520158
-520247
-520296
-520356
-520418
-520421
-520514
-520520
-520551
-520577
-520604
-520676
-520720
-520714
-520728
-520911
-520990
-521006
-521089
-521126
-521177
-521260
-521211
-521332
-521333
-521340
-521472
-521534
-521529
-521584
-521611
-521625
-521675
-521777
-521760
-521793
-521831
-521942
-522002
-522078
-522010
-522133
-522190
-522178
-522229
-522266
-522351
-522433
-522447
-522399
-522428
-522543
-522634
-522622
-522696
-522712
-522777
-522802
-522788
-522902
-522880
-522954
-522993
-523006
-523081
-523071
-523103
-523190
-523156
-523182
-523246
-523306
-523330
-523400
-523439
-523477
-523521
-523636
-523679
-523756
-523809
-523916
-523871
-523935
-524038
-524071
-524091
-524034
-524132
-524140
-524236
-524217
-524285
-524343
-524369
-524471
-524482
-524624
-524639
-524646
-524697
-524669
-524796
-524854
-524894
-524971
-524976
-525035
-524865
-525040
-525139
-525091
-525345
-525257
-525209
-525271
-525308
-525340
-525306
-525343
-525414
-525466
-525474
-525538
-525867
-525695
-525636
-525656
-525718
-525746
-525812
-525836
-525872
-525925
-525878
-525960
-526008
-526337
-526098
-526099
-526088
-526150
-526208
-526212
-526272
-526269
-526247
-526238
-526315
-526338
-526347
-526484
-526455
-526507
-526532
-526509
-526579
-526604
-526753
-526767
-526800
-526827
-526830
-526870
-526885
-526910
-526936
-527039
-527078
-527079
-527234
-527206
-527224
-527204
-527296
-527385
-527456
-527432
-527451
-527538
-527579
-527615
-527625
-527619
-527676
-527694
-527714
-527730
-527832
-527859
-527903
-527807
-527852
-527819
-527889
-527933
-527870
-527816
-527788
-527741
-527689
-527517
-527441
-527416
-527224
-527113
-527001
-526913
-526767
-526585
-526409
-526110
-526031
-525739
-525501
-525290
-525072
-524755
-524481
-524201
-523995
-523532
-523328
-523140
-522815
-522587
-522330
-521985
-521757
-521441
-521152
-520816
-520675
-520330
-520077
-519865
-519713
-519426
-519167
-518965
-518785
-518554
-518330
-518109
-517985
-517884
-517719
-517476
-517373
-517283
-517157
-517007
-516830
-516746
-516631
-516462
-516453
-516373
-516272
-516252
-516063
-515962
-515979
-515958
-515795
-515808
-515761
-515711
-515674
-515527
-515522
-515526
-515519
-515382
-515349
-515328
-515280
-515238
-515141
-515151
-515100
-515043
-514875
-514863
-514633
-514648
-514649
-514590
-514491
-514392
-514375
-514267
-514257
-514181
-514192
-514089
-513986
-513933
-513881
-513817
-513686
-513642
-513561
-513457
-513518
-513344
-513328
-513289
-513262
-513127
-513083
-512977
-512999
-512938
-512873
-512879
-512867
-512834
-512767
-512728
-512706
-512766
-512705
-512701
-512708
-512747
-512783
-512841
-512782
-512825
-512844
-512862
-512938
-512976
-513070
-513083
-513169
-513220
-513211
-513277
-513300
-513404
-513405
-513451
-513606
-513556
-513640
-513797
-513787
-513892
-513862
-513949
-514078
-514141
-514164
-514243
-514231
-514375
-514442
-514414
-514503
-514498
-514669
-514628
-514666
-514720
-514709
-514699
-514822
-514754
-514737
-514649
-514686
-514780
-514806
-514725
-514813
-514834
-514874
-514881
-514889
-514853
-514782
-514835
-514782
-514860
-514890
-514856
-514783
-514727
-514773
-514848
-514754
-514798
-514865
-514917
-514871
-514847
-514839
-514858
-514815
-514930
-514899
-514862
-514879
-514940
-514984
-515020
-515008
-515027
-514896
-515063
-515052
-515091
-515183
-515137
-515168
-515271
-515282
-515347
-515294
-515347
-515373
-515431
-515912
-515490
-515533
-515598
-515616
-515598
-515568
-515646
-515660
-515794
-515818
-515881
-515967
-515988
-515954
-516102
-516064
-516151
-516157
-516222
-516246
-516272
-516370
-516433
-516468
-516538
-516547
-516628
-516647
-516794
-516815
-516942
-516927
-517064
-517088
-517054
-517058
-517148
-517175
-517262
-517365
-517384
-517440
-517431
-517558
-517543
-517546
-517579
-517687
-517820
-517830
-517882
-517991
-518108
-518115
-518147
-518094
-518179
-518214
-518095
-518338
-518415
-518471
-518521
-518599
-518657
-518663
-518771
-519041
-518911
-518963
-518987
-519053
-519019
-519022
-519055
-518980
-519135
-519233
-519229
-519326
-519366
-519387
-519425
-519526
-519534
-519607
-519627
-519607
-519622
-519731
-519734
-519789
-519896
-519914
-519882
-519869
-519986
-519970
-520033
-520069
-520088
-520169
-520281
-520289
-520315
-520408
-520433
-520457
-520508
-520571
-520653
-520700
-520788
-520705
-520809
-520846
-520879
-520957
-520971
-520935
-521004
-521091
-521143
-521195
-521170
-521203
-521293
-521271
-521264
-521338
-521473
-521522
-521585
-521636
-521592
-521679
-521683
-521802
-521817
-521854
-521973
-522000
-522078
-522004
-522068
-522104
-522186
-522190
-522204
-522313
-522397
-522416
-522479
-522437
-522536
-522535
-522603
-522644
-522639
-522709
-522832
-522849
-522906
-522859
-522899
-522924
-522895
-522951
-523009
-523006
-523089
-523113
-523241
-523256
-523285
-523300
-523320
-523380
-523375
-523439
-523891
-523629
-523656
-523670
-523699
-523769
-523797
-523676
-523822
-523836
-523953
-523913
-523940
-523999
-524069
-524100
-524126
-524163
-524239
-524350
-524361
-524441
-524480
-524495
-524516
-524597
-524600
-524589
-524697
-524718
-524837
-524883
-524974
-525007
-525013
-525061
-525096
-525184
-525139
-525282
-525318
-525414
-525418
-525444
-525532
-525552
-525671
-525732
-525750
-525891
-525872
-525980
-526044
-526047
-526091
-526173
-526217
-526252
-526266
-526392
-526435
-526499
-526554
-526548
-526630
-526670
-526678
-526707
-526732
-526749
-526656
-526722
-526745
-526663
-526601
-526460
-526538
-526484
-526460
-526348
-526188
-526040
-525965
-525764
-525589
-525443
-525238
-524971
-524839
-524634
-524348
-524217
-523948
-523639
-523397
-523115
-522851
-522476
-522178
-521958
-521641
-521348
-521164
-520775
-520540
-520212
-519939
-519698
-519422
-519155
-518905
-518697
-518409
-518119
-517964
-517679
-517489
-517220
-517040
-516840
-516679
-516536
-516421
-516192
-516050
-515889
-515810
-515596
-515557
-515397
-515350
-515223
-515174
-515168
-515073
-514933
-514865
-514793
-514684
-514636
-514608
-514555
-514573
-514538
-514443
-514461
-514414
-514227
-514231
-514224
-514175
-514193
-514128
-514094
-514083
-514019
-514027
-513935
-513851
-513823
-513794
-513770
-513712
-513647
-513624
-513503
-513458
-513461
-513391
-513376
-513250
-513178
-513189
-513132
-513139
-512979
-512973
-512940
-512888
-512787
-512807
-512711
-512750
-512657
-512579
-512462
-512440
-512432
-512383
-512378
-512345
-512344
-512311
-512301
-512326
-512281
-512213
-512223
-512214
-512213
-512296
-512340
-512355
-512359
-512362
-512395
-512425
-512411
-512512
-512574
-512648
-512730
-512776
-512789
-512847
-512904
-512928
-513030
-512936
-513178
-513286
-513294
-513436
-513498
-513543
-513626
-513591
-513663
-513736
-513851
-513867
-513861
-513970
-514032
-514098
-514151
-514216
-514247
-514275
-514302
-514273
-514356
-514405
-514419
-514439
-514441
-514391
-514459
-514499
-514455
-514590
-514610
-514480
-514540
-514515
-514456
-514481
-514466
-514423
-514343
-514438
-514375
-514414
-514415
-514430
-514418
-514359
-514372
-514369
-514297
-514378
-514395
-514430
-514419
-514417
-514375
-514334
-514369
-514345
-514417
-514424
-514512
-514429
-514407
-514505
-514545
-514500
-514533
-514490
-514566
-514589
-514562
-514622
-514666
-514721
-514770
-514728
-514776
-514823
-514897
-514948
-514944
-514972
-514953
-514959
-515043
-515071
-515106
-515114
-515187
-515247
-515240
-515256
-515296
-515386
-515442
-515462
-515546
-515649
-515722
-515660
-515665
-515802
-515792
-515873
-515960
-515954
-516027
-516081
-516143
-516165
-516203
-516299
-516279
-516345
-516405
-516586
-516505
-516546
-516604
-516597
-516716
-516749
-516765
-516783
-516858
-517010
-517033
-517050
-517543
-517883
-517905
-517874
-517996
-517974
-518095
-518137
-518220
-518243
-518348
-518483
-518491
-518576
-518669
-518711
-518800
-518813
-518988
-519068
-519114
-519182
-519186
-519304
-519359
-519390
-519405
-519455
-519494
-519621
-519664
-519747
-519812
-519793
-519763
-519792
-519922
-519983
-519999
-520024
-520052
-520133
-520131
-520175
-520238
-520322
-520349
-520345
-520421
-520455
-520515
-520620
-520635
-520709
-520720
-520672
-520782
-520835
-520933
-520950
-521016
-521109
-521175
-521170
-521218
-521249
-521284
-521302
-521402
-521526
-521572
-521640
-521603
-521682
-521723
-521791
-521845
-521793
-521905
-521972
-522048
-522081
-522164
-522182
-522139
-522171
-522187
-522271
-522395
-522372
-522459
-522668
-522565
-522620
-522668
-522637
-522673
-522739
-522851
-522867
-522924
-522944
-522999
-523027
-523107
-523202
-523165
-523263
-523302
-523341
-523439
-523338
-523435
-523499
-523436
-523451
-523586
-523594
-523656
-523712
-523784
-523726
-523890
-523850
-523908
-524036
-524071
-524104
-524155
-524211
-524275
-524323
-524320
-524342
-524436
-524433
-524542
-524537
-524628
-524669
-524703
-524799
-524849
-524826
-524768
-524947
-524952
-525044
-525088
-525163
-525183
-525332
-525313
-525459
-525522
-525572
-525639
-525666
-525743
-525794
-525867
-525879
-526026
-526102
-526171
-526168
-526260
-526339
-526346
-526363
-526483
-526500
-526621
-526602
-526623
-526676
-526758
-526885
-526911
-526939
-526988
-526969
-527030
-526928
-526966
-526984
-527100
-527063
-527010
-527033
-526954
-526894
-526852
-526772
-526740
-526671
-526586
-526525
-526385
-526229
-526133
-525930
-525805
-525636
-525393
-525266
-525013
-524774
-524537
-524324
-524136
-523790
-523509
-523243
-523052
-522819
-522575
-522267
-522002
-521807
-521555
-521249
-520932
-520738
-520313
-520180
-520047
-519757
-519602
-519404
-519160
-518899
-518640
-518483
-518364
-518193
-518017
-517924
-517739
-517725
-517495
-517411
-517295
-517173
-517041
-517010
-517065
-516983
-516937
-516889
-516802
-516782
-516743
-516660
-516619
-516616
-516694
-516689
-516690
-516607
-516574
-516445
-516522
-516623
-516611
-516571
-516596
-516573
-516615
-516619
-516628
-516686
-516739
-516670
-516758
-516755
-516764
-516704
-516752
-516688
-516671
-516756
-516755
-516688
-516694
-516756
-516667
-516739
-516809
-516717
-516678
-516696
-516676
-516756
-516723
-516688
-516730
-516796
-516827
-516754
-516826
-516813
-516801
-516782
-516961
-516863
-516962
-517016
-517130
-517014
-517031
-517118
-517114
-517189
-517269
-517190
-517371
-517496
-517567
-517626
-517603
-517690
-517722
-517861
-517907
-517977
-518047
-518178
-518247
-518228
-518288
-518364
-518373
-518464
-518590
-518583
-518689
-518764
-518876
-518897
-518872
-518949
-518958
-519003
-519122
-519160
-519127
-519160
-519184
-519198
-519265
-519226
-519203
-519177
-519178
-519248
-519233
-519314
-519289
-519212
-519182
-519258
-519299
-519257
-519253
-519195
-519204
-519148
-519220
-519111
-519102
-519076
-519066
-519079
-519060
-519011
-519068
-519043
-519056
-519059
-519027
-519039
-519076
-518990
-518993
-519017
-518966
-518956
-518917
-518979
-518918
-518931
-518917
-519020
-519090
-519100
-519082
-519055
-519033
-519109
-519067
-519161
-519677
-519293
-519239
-519320
-519293
-519366
-519342
-519374
-519455
-519437
-519481
-519536
-519601
-519734
-519729
-519749
-519780
-519817
-519787
-519854
-519886
-519970
-520074
-520110
-520119
-520129
-520093
-520204
-520263
-520271
-520328
-520360
-520418
-520554
-520582
-520659
-520687
-520759
-520698
-520786
-520830
-520873
-520925
-520988
-521091
-521061
-521033
-521092
-521143
-521259
-521381
-521386
-521471
-521568
-521636
-521689
-521685
-521706
-521762
-521850
-521930
-521904
-521924
-522015
-522078
-522153
-522143
-522294
-522325
-522349
-522373
-522389
-522495
-522552
-522650
-522716
-522719
-522813
-522849
-522875
-522906
-522922
-522948
-523097
-523125
-523146
-523210
-523251
-523284
-523289
-523417
-523445
-523397
-523513
-523572
-523621
-523653
-523720
-523803
-523727
-523726
-523803
-524002
-523966
-524030
-523986
-523993
-524080
-524168
-524174
-524195
-524256
-524314
-524327
-524382
-524496
-524467
-524453
-524501
-524532
-524643
-524721
-524650
-524703
-524683
-524733
-524714
-524746
-524771
-524842
-524928
-524883
-525010
-525049
-525056
-525035
-525069
-525152
-525184
-525181
-525256
-525274
-525349
-525425
-525507
-525531
-525497
-525567
-525676
-525639
-525657
-525740
-525764
-525760
-525795
-525883
-525887
-525999
-525929
-525962
-526020
-526076
-526081
-526162
-526244
-526147
-526211
-526242
-526265
-526335
-526469
-526507
-526554
-526489
-526634
-526746
-526672
-526782
-526823
-526944
-526921
-526943
-527080
-527132
-527155
-527188
-527226
-527269
-527342
-527318
-527505
-527494
-527564
-527631
-527604
-527709
-527609
-527750
-527821
-527831
-527855
-527959
-528046
-528104
-528171
-528234
-528281
-528279
-528333
-528391
-528333
-528341
-528483
-528555
-528535
-528460
-528500
-528435
-528486
-528460
-528444
-528392
-528366
-528348
-528199
-528127
-528020
-527913
-527716
-527532
-527498
-527385
-527218
-527096
-526821
-526610
-526422
-526129
-525934
-525785
-525493
-525289
-525049
-524752
-524575
-524304
-523948
-523765
-523504
-523244
-522984
-522703
-522489
-522310
-522130
-521885
-521621
-521407
-521225
-520999
-520792
-520632
-520487
-520349
-520220
-520100
-519889
-519823
-519428
-519269
-519214
-519222
-519163
-519014
-518927
-518939
-518877
-518763
-518811
-518695
-518752
-518781
-518712
-518689
-518728
-518725
-518693
-518636
-518752
-518713
-518724
-518696
-518673
-518682
-518672
-518719
-518756
-518807
-518739
-518744
-518754
-518832
-518783
-518753
-518736
-518768
-518819
-518810
-518915
-518839
-518821
-518870
-518836
-518843
-518853
-518829
-518843
-518847
-518880
-518839
-518864
-518924
-518820
-518848
-518863
-518943
-518928
-518935
-518951
-519048
-519077
-519120
-519127
-519086
-519097
-519254
-519112
-519253
-519361
-519431
-519468
-519543
-519590
-519574
-519616
-519707
-519877
-519925
-519965
-520031
-520101
-520155
-520232
-520348
-520400
-520454
-520517
-520550
-520623
-520675
-520731
-520741
-520800
-520859
-520936
-520948
-520976
-521023
-521124
-521216
-521233
-521272
-521240
-521331
-521355
-521354
-521350
-521451
-521490
-521401
-521369
-521421
-521389
-521410
-521482
-521525
-521523
-521520
-521462
-521458
-521423
-521374
-521369
-521328
-521449
-521339
-521432
-521597
-521498
-521511
-521448
-521378
-521449
-521363
-521422
-521419
-521398
-521412
-521445
-521450
-521449
-521471
-521468
-521442
-521472
-521483
-521542
-521591
-521689
-521630
-521625
-521603
-521638
-521774
-521812
-521914
-521882
-521912
-521901
-521954
-522007
-522012
-522049
-522101
-522222
-522235
-522185
-522317
-522366
-522473
-522444
-522510
-522549
-522562
-522695
-522689
-522758
-522839
-522856
-522923
-522989
-523042
-523150
-523164
-523217
-523233
-523275
-523362
-523415
-523441
-523546
-523488
-523611
-523650
-523716
-523784
-523776
-523923
-523963
-524011
-524026
-524094
-524150
-524266
-524209
-524303
-524436
-524423
-524453
-524495
-524515
-524596
-524623
-524658
-524747
-524819
-524860
-525024
-525090
-525056
-525090
-525134
-525252
-525236
-525258
-525362
-525416
-525464
-525448
-525903
-525681
-525656
-525649
-525712
-525822
-525881
-525896
-526038
-526071
-526090
-526113
-526100
-526214
-526326
-526294
-526331
-526400
-526442
-526529
-526575
-526512
-526577
-526640
-526710
-526770
-526797
-526879
-526955
-526941
-526963
-526965
-527039
-527085
-527164
-527216
-527243
-527283
-527406
-527416
-527415
-527396
-527513
-527506
-527578
-527580
-527620
-527671
-527714
-527848
-527842
-527899
-527876
-527886
-527960
-527988
-528013
-528144
-528257
-528239
-528209
-528210
-528275
-528331
-528360
-528307
-528473
-528488
-528604
-528633
-528671
-528639
-528735
-528829
-528801
-528871
-528842
-528924
-528867
-528914
-528943
-528990
-528983
-529096
-529148
-529118
-529236
-529229
-529250
-529357
-529327
-529358
-529445
-529486
-529588
-529731
-529682
-529663
-529812
-529818
-529733
-529854
-529998
-529982
-530103
-530032
-530183
-530206
-530312
-530331
-530356
-530421
-530333
-530454
-530570
-530543
-530656
-530678
-530782
-530791
-530784
-530837
-530874
-530892
-530973
-531040
-531089
-531138
-531212
-531193
-531215
-531229
-531318
-531300
-531278
-531249
-531313
-531189
-531220
-531141
-531108
-530971
-530841
-530798
-530692
-530788
-530510
-530331
-530112
-529945
-530219
-529718
-529391
-529193
-528942
-528725
-528504
-528178
-527902
-527620
-527377
-527112
-526937
-526744
-526432
-526188
-525982
-525589
-525281
-525036
-524726
-524555
-524365
-524130
-523901
-523658
-523427
-523225
-523018
-522783
-522648
-522507
-522297
-522194
-521863
-521907
-521863
-521721
-521520
-521782
-521410
-521282
-521184
-521211
-521084
-521025
-520961
-520937
-520880
-520825
-520849
-520761
-520717
-520743
-520749
-520565
-520761
-520728
-520742
-520671
-520696
-520718
-520654
-520656
-520591
-520650
-520605
-520630
-520569
-520600
-520556
-520564
-520555
-520572
-520389
-520522
-520512
-520595
-520526
-520536
-520469
-520462
-520481
-520431
-520361
-520440
-520442
-520359
-520335
-520365
-520340
-520318
-520261
-520240
-520281
-520284
-520164
-520188
-520101
-520145
-520196
-520211
-520209
-520252
-520286
-520264
-520209
-520278
-520327
-520253
-520387
-520418
-520491
-520502
-520604
-520707
-520719
-520685
-520779
-520820
-520973
-521033
-521153
-521249
-521238
-521397
-521400
-521454
-521457
-521580
-521579
-521713
-521858
-521878
-521905
-521901
-521966
-522130
-522175
-522203
-522223
-522273
-522292
-522327
-522426
-522345
-522488
-522474
-522550
-522542
-522636
-522651
-522660
-522656
-522695
-522676
-522783
-522768
-522749
-522755
-522696
-522567
-522756
-522775
-522802
-522815
-522756
-522720
-522755
-522762
-522750
-522722
-522775
-522662
-522743
-522735
-522719
-522770
-522806
-522809
-522783
-522746
-522850
-522826
-522848
-522840
-522842
-522907
-522867
-522925
-522966
-522932
-522980
-522977
-522945
-523013
-523005
-523001
-523063
-523211
-523242
-523222
-523132
-523332
-523348
-523366
-523436
-523509
-523491
-523566
-523559
-523684
-523751
-523761
-523744
-523657
-523794
-523974
-524035
-524103
-524126
-524170
-524106
-524254
-524258
-524248
-524320
-524394
-524407
-524437
-524520
-524625
-524812
-524630
-524700
-524738
-524801
-524751
-524873
-524944
-524994
-525083
-525223
-525279
-525229
-525281
-525299
-525379
-525468
-525940
-525775
-525688
-525733
-525786
-525783
-525787
-525788
-525956
-525949
-526086
-526167
-526176
-526233
-526276
-526307
-526388
-526468
-526458
-526511
-526520
-526678
-526728
-526696
-526746
-526830
-526838
-526870
-526977
-527046
-527013
-527130
-527013
-527156
-527188
-527278
-527302
-527381
-527351
-527457
-527549
-527651
-527743
-527716
-527751
-527747
-527805
-527869
-527892
-527922
-528031
-528102
-528121
-528147
-528183
-528284
-528324
-528371
-528484
-528551
-528593
-528588
-528619
-528654
-528719
-528693
-528730
-528833
-528818
-528934
-528943
-529444
-529191
-529153
-529191
-529526
-529320
-529256
-529366
-529333
-529280
-529439
-529540
-529473
-529455
-529585
-529628
-529663
-529739
-529768
-529800
-529856
-529817
-529895
-529944
-529908
-530019
-530020
-530139
-530192
-530212
-530180
-530334
-530350
-530705
-530470
-530462
-530513
-530527
-530632
-530734
-530767
-530717
-530829
-530809
-530890
-531029
-531085
-531113
-531083
-531084
-531129
-531182
-531248
-531298
-531335
-531450
-531500
-531466
-531551
-531673
-531619
-531675
-531748
-531725
-531834
-531863
-531959
-531949
-532028
-531853
-532044
-532103
-532150
-532241
-532323
-532329
-532441
-532558
-532596
-532662
-532776
-532740
-532795
-532822
-532840
-532939
-533023
-532924
-532973
-532988
-533021
-533068
-533077
-533018
-533017
-532954
-532992
-532897
-529515
-529322
-529081
-528701
-528426
-528188
-527387
-527078
-526620
-526302
-526063
-525806
-525604
-525335
-525074
-524948
-524804
-524565
-524357
-524269
-524038
-523790
-523658
-523504
-523392
-523281
-523130
-523034
-522923
-522814
-522621
-522706
-522540
-522541
-522527
-522462
-522398
-522287
-522341
-522280
-522191
-522102
-521987
-522091
-522029
-522091
-522013
-522007
-521913
-521984
-521954
-521934
-521918
-521844
-521847
-521831
-521792
-521762
-521747
-521745
-521782
-521776
-521830
-521714
-521695
-521705
-521712
-521715
-521714
-521764
-521623
-521686
-521606
-521592
-521591
-521572
-521552
-521521
-521419
-521473
-521434
-521399
-521290
-521341
-521279
-521217
-521264
-521279
-521271
-521264
-521175
-521146
-521225
-521213
-521250
-521271
-521259
-521272
-521348
-521346
-521319
-521284
-521331
-521430
-521451
-521308
-521496
-521618
-521685
-521675
-521799
-521841
-521904
-522023
-522097
-522129
-522170
-522249
-522295
-522389
-522347
-522405
-522529
-522616
-522754
-522690
-522795
-522804
-522918
-523008
-523064
-523012
-523044
-523182
-523281
-523215
-523409
-523468
-523388
-523492
-523570
-523579
-523614
-523657
-523704
-523686
-523747
-523760
-523748
-523827
-523728
-523699
-523758
-523747
-524063
-523853
-523904
-523837
-523821
-523682
-523665
-523735
-523707
-523724
-523723
-524066
-523862
-523794
-523784
-523763
-523735
-523701
-523677
-523710
-523746
-523712
-523696
-523758
-523729
-523721
-523633
-523636
-523629
-523593
-523687
-523714
-523992
-523824
-523710
-523683
-523663
-523763
-523773
-523718
-523756
-523828
-523845
-523900
-523847
-523891
-523784
-523909
-523897
-523918
-523972
-524023
-524102
-524152
-524109
-524182
-524132
-524179
-524200
-524275
-524276
-524335
-524418
-524469
-524497
-524446
-524495
-524558
-524505
-524615
-524606
-524656
-524692
-524814
-524746
-524880
-524915
-524947
-525102
-524979
-525047
-525071
-525164
-525170
-525286
-525325
-525333
-525358
-525354
-525468
-525568
-525610
-525706
-525697
-525710
-525741
-525748
-525861
-525824
-525915
-525983
-525923
-525985
-526066
-526111
-526174
-526227
-526280
-526334
-526301
-526472
-526418
-526430
-526488
-526618
-526709
-526728
-526798
-526760
-526751
-526851
-526875
-526966
-527018
-527113
-527152
-527142
-527222
-527227
-527301
-527426
-527336
-527418
-527459
-527507
-527608
-527637
-527662
-527794
-527768
-527726
-527857
-527900
-527909
-527979
-528037
-528069
-528088
-528192
-528252
-528352
-528409
-528440
-528893
-528660
-528656
-528624
-528602
-528722
-528675
-528777
-528816
-528875
-528887
-528890
-528964
-529066
-529123
-529066
-529157
-529204
-529180
-529258
-529347
-529372
-529457
-529451
-529484
-529545
-529537
-529611
-529600
-529682
-529695
-529804
-529810
-529837
-529817
-529921
-529979
-529993
-530030
-530091
-530132
-530221
-530176
-530144
-530170
-530294
-530303
-530408
-530416
-530380
-530429
-530514
-530496
-530517
-530538
-530668
-530605
-530684
-530772
-530910
-530907
-530950
-530975
-531028
-531030
-531075
-531179
-531249
-531235
-531330
-531458
-531482
-531541
-531479
-531568
-531616
-531630
-531628
-531733
-531746
-531883
-531901
-531936
-531927
-531947
-532012
-532125
-532239
-532277
-532135
-532268
-532304
-532238
-532275
-532303
-532339
-532237
-532234
-532154
-532168
-532113
-532033
-531994
-531907
-531719
-531596
-531521
-531351
-531244
-531083
-530860
-530755
-530448
-530171
-529957
-529669
-529495
-529303
-529060
-528830
-528535
-528280
-527842
-527682
-527410
-527089
-526849
-526583
-526402
-526159
-525952
-525669
-525385
-524901
-524660
-524421
-524272
-524043
-523929
-523788
-523590
-523140
-523059
-522924
-522766
-522763
-522618
-522556
-522447
-522398
-522267
-522180
-522141
-522050
-522014
-521961
-521933
-521949
-521887
-521873
-521815
-521744
-521801
-521716
-521780
-521724
-521657
-521720
-521662
-521645
-521634
-521595
-521620
-521687
-521602
-521680
-521640
-521532
-521661
-521592
-521601
-521569
-521554
-521491
-521513
-521549
-521517
-521544
-521584
-521575
-521457
-521517
-521401
-521481
-521432
-521491
-521485
-521449
-521434
-521347
-521184
-521257
-521291
-521299
-521281
-521211
-521249
-521210
-521206
-521153
-521127
-520992
-521168
-521193
-521166
-521239
-521234
-521231
-521248
-521300
-521333
-521358
-521441
-521244
-521479
-521476
-521454
-521627
-521708
-521809
-521779
-521862
-521943
-522007
-522016
-522129
-522171
-522246
-522262
-522329
-522390
-522421
-522874
-522679
-522619
-522656
-522716
-522754
-522833
-522895
-522950
-523004
-523005
-523025
-523145
-523155
-523279
-523280
-523346
-523312
-523828
-523466
-523428
-523444
-523363
-523412
-523439
-523351
-523433
-523397
-523428
-523405
-523407
-523436
-523470
-523491
-523394
-523511
-523430
-523427
-523481
-523402
-523395
-523432
-523440
-523378
