PPG
-882016
-882071
-882226
-882259
-882354
-882440
-882444
-882528
-882672
-882741
-882722
-882816
-882954
-883065
-883067
-883311
-883262
-883372
-883562
-883698
-883881
-884045
-884131
-884207
-884325
-884395
-884431
-884435
-884512
-884610
-884722
-884760
-884733
-884777
-884929
-884897
-884967
-884883
-884895
-885076
-885207
-885191
-885270
-885282
-885411
-885346
-885331
-885497
-885639
-885595
-885512
-885410
-885453
-885293
-885245
-884918
-884835
-884634
-884521
-884200
-883890
-883576
-883272
-883004
-882553
-882071
-881675
-881142
-880689
-880252
-879768
-879224
-878561
-878066
-877479
-876895
-876417
-875888
-875259
-874694
-874140
-873625
-873085
-872577
-872144
-871595
-871120
-870824
-865065
-865007
-865001
-864922
-864933
-864778
-864711
-864305
-864260
-864243
-864158
-864145
-863977
-863974
-863922
-863879
-863798
-863749
-863663
-863522
-863560
-863470
-863448
-863392
-863348
-863282
-863072
-862961
-862839
-862811
-862831
-862892
-862738
-862642
-862691
-862550
-862442
-862404
-862462
-862475
-862579
-862490
-862556
-862977
-862580
-862445
-862425
-862426
-862497
-862439
-862421
-862487
-862479
-862539
-862516
-862526
-862463
-862590
-862531
-862543
-862792
-862978
-862924
-863041
-863198
-863116
-863215
-863273
-863357
-863454
-863568
-863705
-863814
-863840
-863837
-863901
-863808
-863758
-863606
-863247
-863744
-863823
-863937
-863977
-864032
-864033
-863953
-863977
-863997
-864094
-864025
-864068
-864122
-864120
-864145
-864046
-864010
-864142
-864136
-864130
-864118
-864070
-864107
-864175
-864107
-864086
-863946
-863959
-863903
-864072
-864130
-864165
-864140
-864143
-864117
-864066
-864011
-864050
-864151
-864131
-864212
-864497
-864341
-864252
-864245
-864264
-864192
-864159
-864260
-864160
-864249
-864272
-864195
-864176
-864137
-864150
-864192
-864210
-864205
-864289
-864400
-864513
-864507
-864513
-864490
-864485
-864392
-864479
-864500
-864671
-864633
-864779
-864769
-864800
-864952
-864974
-864983
-865015
-865182
-865212
-865253
-865406
-865481
-865558
-865612
-865731
-865763
-865757
-865898
-865934
-866047
-866103
-866084
-866185
-866184
-866048
-866276
-866447
-866462
-866497
-866606
-866655
-866701
-866770
-866902
-866834
-866940
-867026
-867109
-867087
-867059
-867305
-867454
-867433
-867513
-867518
-867672
-867637
-867750
-867937
-867911
-867843
-867997
-867972
-868109
-868181
-868196
-868186
-868286
-868415
-868540
-868672
-868628
-868714
-868679
-868708
-868878
-868913
-868900
-869008
-869154
-869242
-869273
-869824
-869511
-869490
-869511
-869496
-869558
-869643
-869774
-869814
-869905
-870027
-870004
-870038
-870089
-870127
-870276
-870296
-870417
-870487
-870580
-870757
-870719
-870856
-870840
-870921
-871051
-871084
-871138
-871160
-871304
-871288
-871120
-871311
-871310
-871532
-871620
-871730
-871795
-871806
-871804
-871900
-871964
-872005
-872028
-872007
-872145
-872245
-872306
-872432
-872425
-872534
-872621
-872686
-872729
-872805
-872792
-873055
-873072
-873173
-873139
-873179
-873390
-873446
-873434
-873519
-873554
-873671
-873709
-873757
-873899
-873943
-874114
-874149
-874106
-874252
-874326
-874579
-874471
-874544
-875383
-874885
-874884
-874815
-874778
-874942
-874960
-875127
-875099
-875214
-875349
-875382
-875232
-875395
-875507
-875584
-875683
-875701
-875730
-875905
-875976
-876075
-876060
-876151
-876236
-876255
-876517
-876589
-876764
-876712
-876793
-876944
-876975
-877035
-877036
-877270
-877381
-877256
-877404
-877600
-877754
-877724
-877748
-877834
-877921
-877938
-878133
-878202
-878221
-878184
-878268
-878304
-878421
-878485
-878507
-878578
-878671
-878761
-878759
-878796
-878789
-878773
-878747
-878932
-879008
-879098
-879071
-879150
-879334
-879317
-879479
-879491
-879443
-879599
-879773
-879739
-879857
-879899
-880108
-880005
-880085
-880647
-880760
-880821
-880919
-880890
-881019
-881183
-881524
-881472
-881646
-881708
-881719
-881699
-881691
-881731
-881756
-881678
-881472
-881338
-880963
-880772
-880513
-880344
-880034
-879703
-879338
-878845
-878400
-877976
-877464
-877043
-876569
-875954
-875431
-874854
-874270
-873652
-873009
-872459
-871898
-871370
-870819
-870196
-869679
-869046
-868495
-868049
-867398
-867052
-866565
-866139
-865768
-865348
-865013
-864657
-864283
-863893
-863627
-863309
-863222
-862929
-862724
-862361
-863041
-862232
-861919
-861596
-861418
-861185
-861157
-860916
-860855
-860765
-860620
-860339
-860215
-860080
-859997
-859960
-859895
-859828
-859790
-859635
-859617
-859587
-859372
-859289
-859234
-859305
-859252
-859294
-859248
-859309
-859197
-859230
-859205
-859032
-859008
-859041
-858886
-858772
-858397
-858189
-858203
-858215
-858102
-857982
-857847
-857796
-857736
-857717
-857589
-857465
-857320
-857110
-856921
-856895
-856757
-856709
-856651
-856349
-856352
-856194
-856078
-856006
-855671
-855578
-855639
-855511
-855401
-855375
-855390
-855312
-855352
-855201
-855146
-855166
-855107
-855172
-855213
-855175
-854829
-855051
-855012
-854939
-854944
-854941
-854926
-854993
-855039
-855025
-855197
-855204
-855272
-855247
-855388
-855720
-855406
-855470
-855490
-855633
-855614
-855652
-855710
-855601
-855670
-855606
-855674
-855691
-855708
-855784
-855743
-855703
-855786
-855863
-855818
-855921
-855781
-855966
-855899
-855963
-856027
-856079
-856138
-856035
-855974
-855978
-855932
-855946
-855936
-855910
-855822
-855834
-855781
-855792
-855831
-855911
-855867
-855792
-855878
-855976
-855934
-856035
-855996
-855971
-855988
-856077
-856053
-856147
-856123
-856089
-856159
-856255
-856228
-856022
-856523
-856234
-856051
-856089
-856051
-856076
-856046
-856066
-855996
-855945
-855841
-855827
-855858
-855894
-855893
-855987
-855948
-855967
-855764
-855917
-855948
-855945
-855986
-856185
-856569
-856299
-856250
-856283
-856216
-856244
-856255
-856189
-856256
-856450
-856551
-856547
-856695
-856742
-856942
-856873
-856973
-857118
-857188
-857340
-857429
-857464
-857501
-857690
-857570
-857654
-857745
-857763
-857938
-857996
-858007
-858116
-858069
-858121
-858127
-858196
-858233
-858283
-858307
-858358
-858387
-858359
-858469
-858497
-858480
-858598
-858606
-858698
-858723
-858698
-858761
-858789
-858731
-858841
-858808
-858923
-858998
-859011
-859200
-859237
-859411
-859486
-859392
-859708
-859732
-859892
-859960
-860027
-860178
-860190
-860303
-860389
-860583
-860642
-860689
-860746
-860776
-860824
-860948
-860979
-861132
-861231
-861240
-861410
-861492
-861483
-861505
-861583
-861601
-861718
-861792
-861907
-861880
-862066
-862090
-862084
-862111
-862302
-862390
-862520
-862667
-862752
-862853
-863041
-863145
-863087
-863285
-863360
-863506
-863551
-863597
-863529
-863521
-863631
-863703
-863676
-863703
-863804
-864012
-864042
-864116
-864209
-864249
-864444
-864454
-864599
-864670
-864802
-864850
-865019
-865087
-865140
-865262
-865287
-865406
-865387
-865312
-865461
-865667
-865620
-865745
-865857
-865940
-866012
-866117
-866329
-866278
-866154
-866456
-866507
-866650
-866631
-866814
-866847
-866962
-866986
-867058
-867070
-867162
-867287
-867314
-867361
-867419
-867550
-867553
-867628
-867721
-867804
-867887
-867871
-867959
-868018
-868096
-868233
-868342
-868511
-868580
-868730
-868820
-869001
-869023
-869080
-869206
-869207
-869286
-869407
-869592
-869696
-869715
-869758
-869950
-869980
-870068
-870206
-870162
-870176
-870198
-870330
-870333
-870371
-870448
-870383
-870504
-870558
-870633
-870838
-870862
-871048
-870982
-870965
-870997
-871166
-871282
-871412
-871446
-871405
-871470
-871532
-871595
-871697
-871854
-871810
-871895
-872010
-872007
-872006
-872238
-872304
-872418
-872412
-872493
-872599
-872671
-872742
-872785
-872919
-872885
-873099
-873103
-873273
-873267
-873381
-873461
-873442
-873608
-873590
-873700
-873800
-873857
-873969
-873918
-874033
-873975
-874060
-874131
-874334
-874333
-874476
-874614
-874668
-874684
-874670
-874688
-874743
-874856
-874923
-874814
-874942
-874717
-874720
-874645
-874464
-874347
-874262
-874011
-873813
-873646
-873387
-873082
-872691
-872363
-871937
-871548
-871121
-870700
-870234
-869836
-869357
-868783
-868202
-867664
-867035
-866455
-865945
-865300
-864734
-864190
-863656
-863063
-862597
-862060
-861489
-861059
-860575
-860202
-859859
-859815
-859035
-858587
-858252
-857877
-857505
-857197
-857049
-856734
-856453
-856153
-855978
-855838
-855657
-855374
-855238
-855053
-854807
-854726
-854695
-854627
-854461
-854341
-854158
-854065
-853989
-853928
-853813
-853828
-853852
-853834
-853773
-853717
-853656
-853615
-853590
-853622
-853641
-853614
-853561
-853611
-853474
-853524
-853381
-853337
-853266
-853223
-853173
-853080
-852990
-852721
-852947
-852940
-852849
-852785
-852630
-852547
-852541
-852462
-852345
-852214
-852104
-852109
-851995
-851879
-851560
-851551
-851461
-851389
-851177
-851054
-851780
-851150
-850856
-850758
-850697
-850618
-850607
-850705
-850524
-850493
-850567
-850616
-850593
-850623
-850705
-850639
-850745
-850767
-850996
-850943
-851039
-851133
-851180
-851269
-851255
-851206
-851562
-851686
-851711
-851826
-851876
-851880
-851851
-851856
-851921
-852150
-852166
-852204
-852455
-852409
-852640
-852701
-852676
-852664
-852753
-852426
-852486
-852618
-852784
-852751
-852892
-852791
-852842
-852972
-853076
-853093
-853131
-853177
-853398
-853211
-853378
-853480
-853692
-853693
-853866
-853907
-854065
-854036
-853985
-854071
-854182
-854252
-854296
-854431
-854419
-854483
-854593
-854743
-854661
-854803
-855087
-855214
-855223
-855229
-856046
-855608
-855596
-855552
-855654
-855839
-855881
-856085
-856216
-856223
-856330
-856492
-856508
-856644
-856624
-856756
-856839
-857002
-857156
-857092
-857205
-857267
-857333
-857387
-857522
-857644
-857652
-857621
-857697
-857708
-857805
-857786
-857892
-857905
-857924
-858019
-858067
-858076
-858184
-858281
-858288
-858313
-858351
-858459
-858440
-858536
-858596
-858621
-858644
-858689
-858712
-858819
-858853
-858860
-858960
-859016
-859087
-859110
-859086
-859187
-859287
-859324
-859390
-859452
-859509
-859535
-859459
-859503
-859608
-859774
-859741
-859827
-859872
-859823
-859987
-859958
-860057
-860107
-860262
-860320
-860362
-860452
-860509
-860387
-860407
-860481
-860609
-860645
-860775
-860718
-860856
-860841
-860823
-860929
-860997
-861191
-861312
-861392
-861423
-861618
-861690
-861907
-861899
-861986
-862080
-862224
-862363
-862430
-862560
-862599
-862703
-862675
-862731
-862685
-862795
-863337
-863158
-863124
-863251
-863200
-863297
-863250
-863445
-863473
-863470
-863499
-863485
-863586
-863631
-863800
-863803
-863876
-863885
-863914
-863893
-863988
-864091
-864209
-864370
-864367
-864343
-864427
-864512
-864550
-864655
-864761
-864797
-864878
-865037
-865089
-865159
-865233
-865320
-865071
-865480
-865599
-865661
-865774
-865853
-865895
-865978
-866000
-866069
-866061
-866096
-866174
-866281
-866434
-866439
-866551
-866609
-866599
-866636
-866719
-866727
-866802
-866913
-867045
-867102
-867242
-867328
-867429
-867555
-867605
-867636
-867756
-867912
-867913
-867946
-867942
-868131
-868146
-868221
-868242
-868305
-868426
-868593
-868562
-868707
-868768
-868959
-868877
-868943
-868960
-868979
-869054
-869132
-869121
-869273
-869237
-869272
-869318
-869342
-869444
-869500
-869570
-869574
-869709
-869787
-869819
-869949
-869972
-869966
-869982
-870107
-870162
-870221
-870375
-870395
-870418
-870410
-870496
-870660
-870649
-870822
-870895
-871088
-871046
-871055
-871225
-871343
-871271
-871356
-871434
-871479
-871556
-871710
-871780
-871849
-871828
-871882
-872031
-872066
-872096
-872141
-872186
-872064
-872031
-872028
-871804
-871715
-871508
-871291
-871084
-870872
-870619
-870396
-870025
-869668
-869174
-868716
-868286
-867697
-867196
-866657
-866261
-865813
-865236
-864684
-863965
-863492
-862904
-862295
-861733
-861178
-860724
-860115
-859684
-859166
-858690
-858136
-857654
-857240
-856849
-856415
-855965
-855594
-855221
-854733
-854395
-854114
-853740
-853405
-853066
-852828
-852626
-852360
-851927
-851794
-851527
-851375
-851278
-851135
-851092
-851052
-850948
-850779
-850739
-850690
-850720
-850638
-850652
-850661
-850608
-850501
-850433
-850423
-850346
-850400
-850379
-850221
-850144
-850290
-849878
-849875
-849941
-849862
-849772
-849885
-849705
-849423
-849420
-849225
-849008
-848936
-848525
-848472
-848377
-848282
-848063
-848096
-847842
-847632
-847638
-847627
-847443
-847401
-847242
-847311
-847256
-847025
-847128
-847103
-847183
-847273
-847251
-847312
-847279
-847354
-847471
-847412
-847550
-847508
-847511
-847385
-847636
-847733
-847717
-847765
-847690
-847705
-847628
-847647
-847738
-847796
-847803
-847798
-847781
-847819
-847735
-847860
-847680
-847671
-847753
-847713
-847779
-847690
-847652
-847674
-847591
-847662
-847549
-847532
-847621
-847530
-847490
-847543
-847563
-847534
-847553
-847462
-847586
-847564
-847550
-847660
-847631
-847643
-847635
-847637
-847376
-847412
-847343
-850023
-850060
-850162
-850262
-850238
-850407
-850435
-850517
-850622
-850696
-850741
-850872
-850982
-850980
-851170
-851177
-851306
-851331
-851381
-851454
-851481
-851414
-851522
-851587
-851748
-851725
-851804
-851720
-851783
-851975
-851914
-851962
-852085
-852038
-852088
-852102
-852294
-852358
-852354
-852956
-852682
-852667
-852671
-852689
-852767
-852875
-852981
-852887
-852750
-853085
-853224
-853157
-853097
-853280
-853298
-853297
-853340
-853427
-853520
-853426
-853572
-853625
-853580
-853726
-853649
-853650
-853769
-853864
-853901
-854006
-853939
-854063
-854006
-854076
-854166
-854204
-854300
-854381
-854502
-854546
-854690
-854781
-854850
-854771
-854860
-854992
-854806
-855129
-855156
-855277
-855319
-855443
-855473
-855522
-855536
-855576
-855610
-855830
-855800
-855878
-855965
-856101
-856010
-856048
-856172
-856222
-856224
-856391
-856395
-856464
-856665
-856701
-856646
-856794
-856708
-856810
-856886
-856942
-857036
-857137
-857179
-857252
-857278
-857351
-857347
-857395
-857519
-857511
-857561
-857724
-857709
-857906
-857897
-858013
-858028
-858137
-858195
-858246
-858356
-858554
-858441
-858658
-858714
-858718
-858705
-858715
-858838
-858842
-859042
-859092
-859214
-859242
-859302
-859207
-859341
-859455
-859500
-859593
-859632
-859743
-859776
-859832
-859807
-859786
-859814
-859935
-860028
-859919
-859979
-859975
-860094
-860251
-860315
-860343
-860388
-860449
-860667
-860705
-860855
-861014
-860967
-860995
-860942
-861144
-861157
-861352
-861406
-861532
-861628
-861662
-861773
-861770
-861934
-861963
-862093
-862191
-862270
-862884
-862745
-862726
-862801
-862877
-862953
-862978
-863018
-863008
-863160
-863119
-863109
-864058
-863625
-863441
-863457
-863629
-863595
-863735
-863700
-863846
-863829
-863881
-864013
-863961
-863997
-864139
-864106
-864119
-864171
-864216
-864148
-864091
-864084
-863885
-863666
-863657
-863455
-863155
-863045
-862861
-862581
-862200
-861876
-861645
-861260
-860780
-860446
-860074
-859616
-858966
-858876
-858080
-857486
-856944
-856360
-855914
-855339
-854817
-854289
-853742
-853324
-852655
-852187
-851618
-851078
-850714
-850126
-849790
-849423
-848884
-848613
-848097
-847639
-847307
-846983
-846745
-846487
-846233
-845972
-845709
-845563
-845339
-845250
-845178
-845076
-844939
-845015
-844881
-844863
-844569
-844459
-844292
-844237
-844068
-844136
-844117
-844047
-844038
-843941
-843853
-843875
-843904
-843983
-843966
-843928
-843969
-843857
-843954
-843836
-843817
-843839
-843816
-843788
-843627
-843679
-843531
-843497
-843457
-843369
-843315
-843095
-842982
-842928
-842815
-842821
-842781
-842771
-842667
-842654
-842563
-842540
-842502
-842343
-842412
-842453
-842434
-842412
-842390
-842359
-842227
-842244
-842108
-842018
-842061
-842102
-842123
-842059
-842073
-842125
-842209
-842347
-842370
-842383
-842449
-842526
-842631
-842639
-842792
-842833
-842811
-842711
-842753
-842725
-842879
-842829
-843350
-843127
-843060
-843032
-843097
-842999
-843127
-843185
-843288
-843258
-843162
-843309
-843354
-843462
-843486
-843526
-843559
-843652
-843645
-843652
-843590
-843680
-843658
-843702
-843742
-843735
-843709
-843721
-843837
-843892
-843828
-843780
-843907
-843911
-843955
-843826
-843888
-843904
-843916
-844385
-844147
-843966
-843947
-843952
-843963
-843943
-843973
-844015
-844026
-844011
-843935
-843939
-843892
-844011
-844086
-843996
-843942
-843970
-843972
-844054
-843972
-844027
-844026
-844038
-843984
-844054
-844078
-844093
-844082
-844136
-844306
-844298
-844269
-844383
-844429
-844447
-844577
-844565
-844620
-844798
-844785
-844845
-844892
-844840
-844867
-844984
-845055
-845084
-845174
-845146
-845443
-845592
-845613
-845712
-846513
-848774
-849177
-849303
-849447
-849439
-849572
-849744
-849760
-849754
-849877
-849955
-850093
-850162
-850169
-850348
-850448
-850535
-850660
-850620
-850628
-850796
-850806
-850921
-851012
-851043
-851145
-851192
-851330
-851415
-851489
-851620
-851816
-851800
-851871
-851952
-852054
-852154
-852142
-852144
-852170
-852310
-852432
-852525
-852587
-852582
-852631
-852708
-852752
-852812
-852897
-852982
-853263
-853358
-853432
-853444
-853556
-853695
-853740
-853800
-853826
-853903
-854025
-854175
-854143
-854173
-854243
-854320
-854407
-854507
-854677
-854759
-854989
-854987
-855678
-855728
-855877
-856196
-856278
-856381
-856425
-856463
-856439
-856539
-856600
-856609
-856615
-856922
-857077
-857066
-857210
-857273
-857320
-857395
-857444
-857602
-857574
-857698
-857729
-857840
-858107
-858127
-858143
-858495
-858535
-858779
-858935
-859076
-859238
-859323
-859279
-859491
-859540
-859644
-859739
-859681
-859771
-859808
-859997
-860065
-859995
-860141
-860125
-860286
-860351
-860369
-860487
-860558
-860571
-860714
-860726
-860884
-861002
-861155
-861260
-861338
-861436
-861882
-861790
-861815
-861920
-861966
-862000
-862075
-862124
-862266
-862381
-862468
-862413
-862528
-862602
-862714
-862906
-863113
-863228
-863397
-863632
-863574
-863799
-863650
-863933
-864068
-864107
-864189
-864239
-864460
-864364
-864515
-864729
-864907
-864847
-864926
-865110
-865286
-865431
-865541
-865609
-865690
-865811
-865914
-866087
-865996
-866226
-866342
-866401
-866423
-866494
-866607
-866597
-866529
-866493
-866386
-866271
-866207
-866115
-866112
-865985
-865859
-865653
-865418
-865133
-864860
-864554
-864252
-863930
-863530
-863119
-862655
-862650
-862179
-861696
-861556
-860835
-860289
-859678
-859083
-858557
-857949
-857364
-856900
-856274
-855738
-855181
-854798
-854325
-853881
-853358
-852985
-852524
-851983
-851636
-851433
-851035
-850624
-850409
-849807
-849703
-849618
-849398
-849240
-849085
-848869
-848747
-848655
-848629
-848598
-848335
-848283
-848117
-847948
-847875
-847758
-847640
-847597
-847587
-847504
-847437
-847553
-847548
-847562
-847439
-847418
-847337
-847366
-847912
-847606
-847468
-847464
-847417
-847472
-847436
-847297
-847376
-847361
-847384
-847303
-847226
-847385
-847321
-847376
-847363
-847294
-847252
-847366
-847319
-847369
-847308
-847360
-847378
-847692
-847272
-847177
-847132
-847217
-847112
-847011
-847009
-846934
-846854
-846802
-846893
-846884
-846661
-846762
-846712
-846784
-846732
-846792
-846842
-846729
-846744
-846720
-846856
-846898
-846868
-846929
-846969
-847150
-847113
-847127
-847176
-847227
-847306
-847341
-847478
-847594
-847726
-847799
-847798
-847989
-847876
-847989
-848071
-848075
-848173
-848305
-848217
-848325
-848186
-848342
-848287
-848366
-848424
-848390
-848491
-848493
-848593
-848726
-848677
-848661
-848673
-848494
-848516
-848548
-848612
-848688
-848554
-848556
-848595
-848677
-848593
-848570
-848609
-848502
-848543
-848540
-848522
-848647
-848666
-848501
-848553
-848560
-848527
-848541
-848686
-848701
-848784
-848739
-848660
-848668
-848743
-848633
-848744
-848719
-848793
-848750
-848726
-848746
-848823
-848740
-848907
-848895
-848921
-848904
-848979
-849047
-849094
-849026
-848997
-849109
-849174
-849108
-849021
-849139
-849350
-849478
-849602
-849542
-849525
-849613
-849691
-849769
-849884
-849941
-849990
-850054
-850081
-850135
-850293
-850337
-850395
-850483
-849685
-850314
-850594
-850715
-850880
-850989
-851094
-851197
-851271
-851361
-851380
-851546
-851610
-851774
-851749
-851825
-851857
-851957
-851961
-852157
-852301
-852288
-852376
-852417
-852626
-852613
-852759
-852794
-852863
-852871
-852921
-853007
-853201
-853204
-853351
-853380
-853507
-853637
-853787
-853751
-853870
-854049
-854054
-854199
-854299
-854328
-854459
-854527
-854626
-854709
-854803
-854913
-855060
-855026
-855095
-855204
-855234
-855396
-855477
-855627
-855610
-855688
-855920
-855999
-856093
-856128
-856220
-856272
-856383
-856381
-856560
-856480
-856416
-856317
-856295
-856419
-856601
-856736
-856889
-856823
-856876
-857064
-857055
-857141
-857181
-857295
-857444
-857409
-857450
-857521
-857278
-857481
-857585
-857767
-857770
-857818
-857971
-857984
-857926
-857946
-858134
-858202
-858326
-858275
-858457
-858564
-858704
-858751
-858843
-858850
-858951
-859106
-859054
-859187
-859212
-859192
-859250
-859356
-859348
-859502
-859551
-859587
-859681
-859900
-859839
-860044
-860154
-860199
-860327
-860377
-860595
-860727
-860693
-860635
-860780
-860900
-861054
-861091
-861025
-861037
-861156
-861363
-861437
-861506
-861602
-861741
-861865
-861800
-861815
-861983
-861994
-861961
-862177
-862183
-862250
-862302
-862291
-862345
-862433
-862590
-862651
-862732
-862909
-862948
-863008
-862932
-862946
-863048
-863274
-863352
-863212
-863373
-863615
-863666
-863846
-863799
-863790
-864037
-864030
-864130
-864240
-864281
-864357
-864451
-864546
-864651
-864574
-864647
-864650
-864676
-864787
-864875
-864916
-864997
-865044
-865169
-865191
-865245
-865315
-865414
-865441
-865487
-865532
-865715
-865782
-865859
-865915
-865928
-866623
-866299
-866300
-866410
-866583
-866668
-866695
-866767
-866824
-867024
-867019
-867201
-867300
-867403
-867479
-867470
-867690
-867650
-867697
-867818
-867861
-868014
-868143
-868221
-868339
-868406
-868578
-868618
-868696
-868716
-868816
-868914
-868845
-868812
-868800
-868754
-868603
-868392
-868340
-868155
-868063
-867984
-867836
-867706
-867415
-867186
-866887
-866457
-866102
-865480
-864977
-864622
-864173
-863680
-863267
-862637
-862088
-861648
-861016
-860366
-859890
-859309
-858813
-858227
-857727
-857340
-856869
-856289
-855758
-855297
-854875
-854495
-854068
-853609
-853356
-852994
-852597
-852290
-851924
-851734
-851464
-851172
-851019
-850913
-850633
-850627
-850511
-850321
-850108
-850048
-850040
-850004
-849924
-850023
-849960
-849853
-849915
-849914
-849872
-849873
-849824
-849920
-849965
-850025
-849954
-849903
-850061
-850045
-850058
-850071
-850143
-850173
-850104
-850076
-850100
-850074
-850024
-849974
-850090
-850057
-849990
-850022
-850027
-849924
-849966
-849818
-849758
-849619
-849659
-849560
-849491
-849460
-849511
-849551
-849587
-849576
-849471
-849398
-849362
-849376
-849468
-849422
-849452
-849475
-849351
-849474
-849527
-849569
-849444
-849399
-849568
-849595
-849654
-849703
-849736
-849733
-849757
-849835
-849971
-849975
-850045
-850137
-850128
-850166
-850178
-850083
-850235
-850258
-850351
-850478
-850442
-850498
-850550
-850588
-850628
-850642
-850691
-850674
-850628
-850651
-850781
-850783
-850838
-850842
-850883
-850913
-850946
-851035
-851022
-851074
-851054
-851083
-851071
-850953
-851102
-851225
-851107
-851117
-851079
-851125
-851038
-851019
-850992
-851072
-851041
-851190
-851124
-851146
-851045
-851069
-850992
-850934
-850894
-850838
-850822
-850805
-850692
-850707
-850658
-850665
-850721
-850737
-850794
-850810
-850767
-850844
-850848
-850921
-850636
-850767
-850921
-851000
-850953
-851004
-850993
-851001
-850995
-851051
-851130
-851137
-851182
-851378
-851387
-851509
-851541
-851711
-851746
-851630
-851643
-851751
-851925
-852007
-851970
-852106
-852250
-852306
-852445
-853146
-852703
-852485
-852466
-852667
-852735
-852755
-852823
-852923
-852976
-853058
-853088
-853256
-853257
-853496
-853590
-853678
-853725
-853723
-853807
-853862
-853889
-853967
-854071
-854159
-854247
-854263
-854394
-854497
-854481
-854491
-854695
-854657
-854709
-854771
-854967
-854948
-855076
-855237
-855316
-855353
-855368
-855245
-855350
-855607
-855652
-855736
-855727
-855794
-855863
-855720
-855948
-855908
-856009
-856222
-856218
-856302
-856534
-856588
-856664
-856695
-856868
-856854
-857027
-857274
-857228
-857337
-857357
-857524
-857626
-857700
-857760
-857743
-857936
-857987
-858093
-858067
-858245
-858386
-858382
-858518
-858610
-858645
-858753
-858820
-858957
-859121
-859087
-859137
-859341
-859383
-859355
-859391
-859629
-859774
-859853
-859839
-859740
-860001
-859942
-860071
-860040
-860089
-860213
-860393
-860404
-860466
-860688
-860756
-860868
-860776
-860817
-860917
-861030
-861104
-861111
-861156
-861347
-861287
-861356
-861346
-861520
-861611
-861557
-861601
-861751
-861491
-861951
-862093
-862124
-862157
-862199
-862404
-862856
-862739
-862662
-862864
-862931
-862973
-863075
-863125
-863074
-863183
-863193
-863387
-863408
-863428
-863612
-863607
-863705
-863786
-863813
-863875
-863935
-864094
-864228
-864295
-864305
-864448
-864498
-864480
-864492
-864582
-864654
-864798
-864820
-864804
-864937
-864957
-864990
-864998
-865036
-865097
-864932
-865198
-865406
-865570
-865584
-865625
-865703
-865844
-865864
-865953
-865994
-866126
-866197
-866291
-866420
-866478
-866486
-866622
-866685
-866837
-866854
-866941
-867096
-867207
-867321
-867455
-867493
-867608
-867597
-867696
-867833
-867984
-867990
-868130
-868183
-868204
-868323
-868357
-868310
-868414
-868617
-868834
-868757
-868856
-868881
-868988
-869183
-869198
-869290
-869377
-869563
-869697
-869731
-869782
-869837
-869867
-870030
-870052
-870064
-870133
-870311
-870382
-870417
-870404
-870625
-870456
-870603
-870498
-870402
-870291
-870247
-870173
-869971
-869671
-869576
-869274
-869085
-868688
-868328
-867905
-867559
-867221
-866759
-866351
-865834
-865270
-864643
-864175
-863584
-863119
-862509
-861933
-861386
-860906
-860348
-859944
-859358
-858794
-858288
-857851
-857428
-856952
-856628
-856320
-855902
-855462
-855049
-854741
-854432
-854134
-853928
-853718
-853462
-853253
-853053
-852895
-852761
-852417
-852284
-852251
-852124
-852079
-851952
-851882
-851898
-851714
-851506
-851329
-851321
-851209
-851191
-851022
-851032
-850923
-851038
-851082
-850988
-851062
-850967
-850924
-850913
-850868
-850816
-850863
-850785
-850821
-850664
-850661
-850629
-850434
-850422
-850367
-850405
-850333
-850099
-850096
-850040
-850021
-849808
-849828
-849527
-849617
-849674
-849687
-849611
-849702
-849618
-849450
-849364
-849399
-849384
-849366
-849400
-849484
-849396
-849463
-849335
-849135
-849062
-849083
-849193
-849432
-849509
-849542
-849397
-849515
-849596
-849806
-849755
-849812
-849957
-849954
-850025
-850051
-850066
-850195
-850229
-850321
-850389
-850356
-850420
-850937
-850586
-850481
-850499
-850492
-850587
-850624
-850583
-850685
-850670
-850645
-850716
-850723
-850634
-850809
-850880
-850874
-850846
-850912
-850868
-850848
-850926
-850895
-850898
-850881
-851449
-851206
-851162
-851072
-851015
-851166
-851130
-851106
-851328
-851206
-851224
-851340
-851285
-851300
-851276
-851356
-851363
-851321
-851289
-851303
-851514
-851438
-851534
-851602
-851664
-851702
-851645
-851698
-851609
-851648
-851757
-851833
-851879
-851917
-851983
-852028
-852007
-852082
-852146
-852313
-852309
-852575
-852584
-852674
-852839
-852886
-852958
-852986
-853074
-853176
-853248
-853381
-853433
-853504
-853641
-853749
-853767
-853777
-853866
-853926
-854036
-854189
-854302
-854330
-854444
-854556
-854613
-854655
-854720
-854767
-854890
-855009
-855038
-855187
-855174
-855197
-855228
-855382
-855354
-855445
-855582
-855739
-855820
-855869
-855940
-856042
-856086
-856052
-856269
-856318
-856466
-856560
-856702
-856779
-856859
-856976
-856972
-857034
-857143
-857269
-857955
-857598
-857573
-857612
-857802
-857790
-857907
-857997
-858614
-858354
-858255
-858199
-858296
-858478
-858531
-858649
-858638
-858743
-858859
-858896
-859031
-859109
-859216
-859331
-859501
-859514
-859475
-859521
-859586
-859582
-859747
-859733
-859840
-859868
-860077
-860075
-860169
-860159
-860038
-860279
-860507
-860588
-860762
-860751
-860943
-860976
-861018
-861173
-861163
-861303
-861383
-861480
-861603
-861673
-861862
-862004
-862091
-862046
-862021
-862139
-862243
-862255
-862609
-862611
-862642
-862639
-862562
-862861
-862742
-862950
-863056
-863220
-863271
-863241
-863281
-863336
-863442
-863508
-863684
-863678
-863750
-864042
-864090
-864121
-864040
-864216
-864341
-864279
-864251
-864312
-864447
-864548
-864678
-864655
-864635
-864883
-864838
-864938
-864943
-865106
-865290
-865256
-865395
-865440
-865627
-865707
-865798
-865843
-865838
-865948
-866029
-866174
-866283
-866369
-866553
-866577
-866570
-866641
-866627
-866761
-866765
-866919
-867016
-867070
-867061
-867122
-867214
-867290
-867474
-867471
-867486
-867571
-867596
-867830
-867494
-867789
-868017
-867993
-868084
-868092
-868176
-868237
-868390
-868400
-868552
-868677
-868713
-868674
-868876
-869020
-869050
-869207
-869065
-869910
-869683
-869587
-869617
-869586
-869766
-869829
-869902
-870068
-870153
-870325
-870778
-870588
-870525
-870662
-870761
-870932
-871008
-871152
-871368
-871518
-871523
-871588
-871692
-871713
-871686
-871838
-871881
-871958
-871970
-872010
-872116
-872163
-872094
-872189
-872118
-872090
-872168
-872181
-872267
-872185
-872203
-872092
-871881
-871821
-871593
-871453
-871018
-870768
-870472
-870243
-869710
-869247
-868812
-868361
-867619
-867261
-866878
-866350
-865881
-865280
-864606
-864181
-863656
-863161
-862657
-862165
-861634
-861197
-860753
-860177
-859733
-859235
-858716
-858372
-857915
-857585
-857283
-856897
-856601
-856244
-855914
-855590
-855380
-855143
-854902
-854824
-854669
-854517
-854324
-854282
-854175
-854102
-853955
-853792
-853762
-853743
-853674
-853673
-853585
-853502
-853527
-853394
-853322
-853276
-853334
-853205
-853214
-853217
-853305
-853293
-853263
-853205
-853069
-853053
-852916
-852969
-852904
-852862
-852943
-852908
-852883
-852703
-852704
-852652
-852639
-852522
-852481
-852476
-852467
-852362
-852335
-852332
-852260
-852099
-852017
-852063
-852072
-851993
-851882
-851893
-851835
-851740
-851684
-851577
-851442
-851455
-851458
-851369
-851285
-851250
-851176
-851129
-851184
-851140
-851007
-851031
-851019
-851115
-851121
-851234
-851226
-851299
-851252
-851314
-851252
-851463
-851404
-851514
-851506
-851699
-851801
-851771
-851803
-851767
-851863
-851970
-851979
-852182
-852310
-852315
-852382
-852416
-852444
-852607
-852606
-852610
-852749
-852786
-852807
-852875
-853042
-853088
-853075
-853088
-853024
-853105
-853177
-853190
-853219
-853232
-853276
-853262
-853295
-853251
-853172
-853166
-853113
-853203
-853164
-853210
-853252
-853156
-853104
-853189
-853098
-853099
-853196
-853219
-853172
-853228
-853148
-853058
-853162
-853108
-853122
-853195
-853056
-853152
-853117
-853079
-853025
-853062
-852982
-852968
-853059
-853006
-853050
-853092
-853083
-853144
-853075
-853059
-853148
-853109
-853040
-853129
-853218
-853196
-853268
-853320
-853336
-853463
-853434
-853449
-853559
-853734
-853741
-853837
-853836
-853905
-853980
-854046
-854117
-854082
-854195
-854264
-854302
-854426
-854634
-854672
-854791
-854768
-854821
-854768
-854891
-854981
-855065
-855216
-855332
-855345
-855348
-855537
-855648
-855568
-855606
-855582
-855330
-855378
-855462
-855669
-855782
-855868
-855885
-855834
-855876
-855817
-855976
-856083
-856077
-856239
-856287
-856185
-856249
-856218
-856234
-856346
-856444
-856507
-856573
-856528
-856726
-856713
-856634
-856689
-856681
-856751
-856816
-856935
-856909
-857043
-857042
-856975
-857068
-857073
-857194
-857256
-857263
-857351
-857358
-857392
-857544
-857521
-857625
-857656
-857603
-857714
-857694
-857877
-857896
-857890
-857977
-858040
-858085
-858152
-858097
-858203
-858217
-858301
-858354
-858483
-858500
-858457
-858474
-858563
-858653
-858682
-858725
-859591
-859042
-858974
-858948
-858977
-859046
-859115
-859152
-859250
-859259
-859344
-859406
-859517
-859600
-859638
-859689
-859784
-859919
-860064
-860149
-860320
-860308
-860483
-860595
-860575
-860676
-860692
-860738
-860893
-860690
-861098
-861169
-861322
-861445
-861582
-861605
-861794
-861874
-862018
-862050
-862217
-862279
-862435
-862482
-862591
-862768
-862757
-862885
-863072
-863235
-863279
-863283
-863211
-863231
-863284
-863363
-863462
-863527
-863592
-863568
-863716
-863754
-863875
-863915
-864006
-864045
-864097
-864122
-864141
-864333
-864515
-864479
-864500
-864556
-864614
-864727
-864850
-864871
-864890
-864894
-865000
-865180
-865270
-865293
-865277
-865292
-865326
-865329
-865483
-865624
-865656
-865796
-865779
-865870
-865907
-865975
-865891
-866017
-866062
-866216
-866201
-866211
-866179
-866257
-866408
-866526
-866522
-866590
-866635
-866695
-866736
-866843
-866915
-867062
-867034
-867150
-867214
-867250
-867366
-867392
-867511
-867570
-867680
-867840
-867958
-867961
-868149
-868229
-868282
-868414
-868524
-868655
-868786
-868832
-868811
-868757
-868850
-868881
-869067
-869170
-869247
-869255
-869362
-869432
-869408
-869484
-869563
-869720
-869758
-869841
-869992
-870060
-870054
-870119
-870125
-870162
-870246
-870329
-870341
-870386
-870307
-870029
-870193
-870253
-870138
-869993
-869921
-869677
-869363
-869254
-869255
-868972
-868639
-868342
-867925
-867452
-867122
-866764
-866343
-865740
-865401
-864917
-864262
-863786
-863233
-862846
-862326
-861805
-861189
-860779
-860301
-859784
-859354
-858811
-858416
-857835
-857445
-857019
-856619
-856170
-855772
-855389
-855076
-854784
-854477
-853966
-853712
-853477
-853170
-853019
-852870
-852726
-852508
-852288
-852212
-852062
-851764
-851750
-851619
-851497
-851439
-851352
-851346
-851296
-851253
-851167
-851051
-850988
-851026
-850908
-850917
-850755
-850763
-850862
-850689
-850692
-850599
-850472
-850562
-850504
-850561
-850533
-850498
-850491
-850523
-850487
-850409
-850389
-850364
-850338
-850343
-850335
-850198
-850098
-850056
-849987
-849769
-849638
-849621
-849596
-849448
-849312
-849212
-849210
-849060
-848868
-848784
-848584
-848523
-848516
-848416
-848316
-848325
-848317
-848264
-848077
-847991
-847900
-847992
-847901
-847948
-847884
-847895
-847863
-847792
-847795
-847841
-847899
-847901
-848015
-848146
-848212
-848198
-848356
-848286
-848332
-848443
-848507
-848649
-848770
-848748
-848845
-848907
-849000
-849035
-848876
-848972
-849047
-849166
-849164
-849231
-849305
-849411
-849464
-849413
-849177
-849385
-849535
-849649
-849680
-849809
-849837
-849835
-849890
-849954
-849968
-849849
-849844
-849836
-849898
-849980
-849870
-849805
-849850
-849804
-849737
-849783
-849704
-849693
-849650
-849553
-849615
-849568
-849599
-849632
-849948
-849658
-849533
-849616
-849381
-849512
-849647
-850170
-849817
-849664
-849672
-849652
-849628
-849612
-849685
-849754
-849744
-849816
-849880
-849492
-849602
-849769
-849872
-849957
-850152
-850281
-850326
-850431
-850676
-850681
-850587
-850460
-850494
-850473
-850423
-850541
-850510
-850636
-850707
-850766
-850845
-850946
-850969
-850914
-850993
-851032
-851034
-851120
-851311
-851337
-851370
-851556
-851665
-851704
-851737
-851892
-851850
-851875
-851958
-852028
-852060
-852225
-852387
-852346
-852462
-852481
-852631
-852709
-852654
-852652
-852758
-852899
-852926
-853111
-853125
-853342
-853433
-853510
-853542
-853666
-853675
-853698
-853697
-853733
-853837
-853971
-854002
-854149
-854315
-854235
-854297
-854427
-854418
-854538
-854641
-854570
-854626
-854654
-854696
-854905
-855010
-855141
-855245
-855346
-855319
-855317
-855459
-855464
-855506
-855633
-855698
-855915
-855873
-856034
-856115
-856216
-856351
-856378
-856402
-856508
-856590
-856639
-856744
-856714
-856872
-856960
-856949
-857109
-857140
-857100
-857139
-857256
-857416
-857407
-857507
-858155
-857819
-857846
-857784
-857852
-857866
-857648
-857963
-858171
-858221
-858335
-858405
-858556
-858571
-858621
-858622
-858663
-858740
-858780
-858878
-858889
-858934
-858936
-859045
-859100
-859246
-859958
-859653
-859697
-859509
-859400
-859757
-859929
-859935
-860030
-860086
-860156
-860151
-860278
-860361
-860441
-860424
-860478
-860369
-860461
-860526
-860698
-860876
-860892
-860906
-860960
-860976
-861071
-861138
-861165
-861243
-861439
-861462
-861509
-861596
-861698
-861682
-861771
-861858
-862410
-862177
-862128
-862161
-862174
-862281
-862394
-862384
-862472
-862646
-862577
-862717
-862824
-862935
-862901
-863017
-863032
-863162
-863134
-863143
-863218
-863305
-863358
-863588
-863494
-863517
-863704
-863781
-863836
-863809
-863906
-863996
-864084
-864183
-864178
-864211
-864323
-864418
-864483
-864482
-864645
-864699
-864881
-865007
-865046
-865249
-865359
-865414
-865473
-865493
-865524
-865575
-865650
-865627
-865644
-865673
-865686
-865708
-865824
-865912
-865880
-865967
-866136
-866283
-866429
-866576
-866747
-866854
-866883
-866998
-867109
-867187
-867232
-867228
-867323
-867374
-867270
-867379
-867333
-867498
-867555
-867680
-867775
-867930
-867944
-867974
-868117
-868263
-868331
-868409
-868461
-868632
-868729
-868866
-869006
-869070
-868985
-869039
-869653
-869237
-868936
-869072
-869050
-868986
-868978
-868867
-868771
-868566
-868374
-868184
-868046
-867842
-867472
-867240
-867016
-866607
-866069
-865605
-865277
-864835
-864386
-863854
-863465
-862956
-862622
-862107
-861443
-860913
-860395
-859930
-859342
-858731
-858326
-857744
-857168
-856666
-856179
-855777
-855416
-855322
-855232
-854979
-854656
-854220
-853932
-853573
-853303
-853027
-852727
-852556
-852383
-852206
-851969
-851854
-851636
-851462
-851279
-850937
-850766
-850772
-850685
-850560
-850789
-850753
-850856
-850969
-850993
-850997
-851021
-850992
-850948
-850734
-850738
-850524
-850486
-850281
-850239
-850063
-849994
-849799
-849761
-849625
-849566
-849468
-849451
-849327
-849308
-849135
-849048
-848825
-848776
-848743
-848750
-848765
-848750
-848763
-848778
-848829
-848783
-848930
-848874
-848864
-848832
-848812
-848920
-848880
-848982
-848973
-849189
-849149
-849228
-849231
-849663
-849595
-849578
-849444
-849550
-849541
-849386
-849499
-849332
-849674
-849594
-849680
-849725
-849719
-849790
-849866
-849998
-850144
-850178
-850221
-850245
-850254
-850358
-850424
-850531
-850626
-850721
-850819
-850883
-850911
-851061
-851094
-851139
-851282
-851331
-851367
-851484
-851501
-851689
-851618
-851705
-851477
-851770
-851855
-851828
-851869
-851910
-851999
-852045
-852078
-852107
-852087
-852030
-852196
-852248
-852363
-852369
-852447
-852601
-852708
-852750
-852779
-852906
-852963
-853105
-853102
-853228
-853354
-853538
-853631
-853654
-853801
-853819
-853793
-853953
-853913
-854086
-854179
-854385
-854533
-854531
-854496
-854634
-854695
-854689
-854797
-854975
-855026
-855098
-855170
-855237
-855191
-855110
-855126
-855191
-855125
-855248
-855347
-855309
-855385
-855526
-855585
-855606
-855669
-855727
-856508
-856250
-856150
-856123
-856311
-856300
-856298
-856471
-856483
-856575
-856633
-856797
-856905
-857002
-857045
-857159
-857221
-857274
-857327
-857536
-857784
-857723
-857958
-858062
-858156
-858237
-858175
-858314
-858264
-858401
-858373
-858544
-858648
-858674
-858781
-858911
-858954
-858934
-859021
-859073
-859180
-859227
-859306
-859314
-859425
-859533
-859551
-859630
-859703
-859813
-859736
-859803
-859977
-859969
-860030
-860095
-860146
-860329
-860332
-860284
-860385
-860425
-860608
-860713
-860812
-860838
-860897
-860948
-861105
-861084
-861071
-861261
-861325
-861323
-861153
-861435
-861539
-861597
-861557
-861696
-861871
-861907
-861984
-862037
-862018
-862131
-862242
-862294
-862415
-862551
-862959
-862940
-862959
-862992
-863038
-863176
-863257
-863450
-863427
-863689
-863740
-863815
-863894
-864051
-864191
-864345
-864313
-864398
-864429
-864454
-864629
-864522
-864574
-864649
-864750
-864820
-864851
-864974
-865057
-865123
-865268
-865285
-865334
-865305
-865371
-865475
-865675
-865650
-866699
-867250
-867294
-867385
-867517
-867538
-867612
-867615
-867812
-868120
-868424
-868614
-868708
-868870
-868944
-869104
-869127
-869049
-868935
-868723
-868652
-866970
-865091
-858103
-857179
-856730
-856330
-855852
-855275
-854834
-854378
-854018
-853644
-853404
-852898
-852744
-852572
-852336
-852153
-851933
-851796
-851614
-851553
-851457
-851301
-851248
-851306
-851233
-851170
-851015
-851024
-851022
-851041
-850948
-850947
-851023
-851064
-850955
-850977
-850988
-851113
-850997
-850914
-850918
-850908
-850805
-850901
-850978
-850863
-850891
-850788
-850825
-850808
-850716
-850668
-850571
-850477
-850430
-850444
-850474
-850347
-850356
-850256
-850045
-850153
-849989
-850054
-850110
-850043
-850113
-850010
-849960
-850078
-850042
-850070
-849966
-849964
-850091
-850170
-850212
-850179
-850222
-850211
-850279
-850352
-850382
-850237
-850435
-850502
-850572
-850597
-850776
-850788
-850742
-850776
-850850
-850918
-850949
-851078
-851146
-851207
-851268
-851225
-851280
-851228
-851226
-851248
-851358
-851309
-851418
-851403
-851457
-851341
-851363
-851343
-851329
-851340
-851437
-851381
-851462
-851388
-851456
-851449
-851490
-851418
-851507
-851435
-851443
-851564
-851437
-851586
-851557
-851629
-851536
-851542
-851459
-851441
-851553
-851541
-851457
-851445
-851463
-851535
-851551
-851562
-851389
-851324
-851365
-851310
-851352
-851374
-851314
-851236
-851179
-851246
-851147
-851185
-851190
-851238
-851141
-851166
-851266
-851224
-851304
-851276
-851404
-851360
-851306
-851360
-851234
-851365
-851474
-851465
-851363
-851426
-851476
-851557
-851666
-851685
-851723
-851833
-851854
-851855
-852000
-852103
-852132
-852286
-852274
-852276
-852395
-852552
-852588
-852609
-852383
-852660
-852783
-852838
-852716
-852808
-852982
-852989
-853076
-853187
-853307
-853406
-853510
-853508
-853510
-853649
-853678
-853764
-853833
-853868
-853962
-854182
-854271
-854074
-854213
-854208
-854333
-854332
-854309
-854447
-854531
-854490
-854439
-854573
-854708
-854795
-854800
-854778
-854944
-854978
-855185
-855292
-855639
-855452
-855465
-855540
-855555
-855591
-855605
-855590
-855729
-855778
-855705
-855660
-855750
-855825
-855775
-856121
-856378
-856499
-856629
-856679
-856811
-856886
-856899
-857036
-857183
-857159
-857221
-857267
-857214
-857274
-857361
-857386
-857333
-857489
-857537
-857646
-857664
-857723
-857872
-857847
-857963
-857998
-858130
-858180
-858300
-858388
-858426
-858425
-858514
-858468
-858577
-858713
-858785
-858858
-858853
-858936
-858956
-859058
-859117
-859175
-859212
-859379
-859302
-859496
-859674
-860372
-860523
-860884
-861286
-861371
-861550
-861651
-861692
-861768
-861912
-862006
-861946
-861921
-862076
-862103
-862176
-862396
-862506
-862367
-862498
-862497
-862604
-862664
-862915
-862957
-863107
-863098
-862894
-862995
-863353
-863396
-863561
-863653
-863683
-863818
-863854
-863982
-863960
-864122
-864101
-864068
-864280
-864449
-864478
-864579
-864801
-864433
-864759
-864905
-864964
-865036
-865125
-865226
-865312
-865358
-865844
-865602
-865543
-865538
-865550
-865691
-865693
-865765
-865848
-865836
-866055
-866065
-866212
-866267
-866363
-866343
-866352
-866407
-866593
-866738
-866801
-866956
-866986
-866976
-867140
-867271
-867284
-867419
-867526
-867622
-867657
-867546
-867873
-867894
-868008
-868143
-868178
-868257
-868415
-868196
-868439
-868598
-868673
-868635
-868738
-868636
-868414
-868519
-868583
-868456
-868420
-868228
-868109
-867952
-867704
-867498
-867206
-866798
-866472
-866175
-865805
-865356
-865008
-864472
-863925
-863406
-862919
-862522
-861937
-861426
-860984
-860395
-859902
-859326
-858970
-858480
-857973
-857444
-856901
-856558
-856132
-855648
-855340
-854916
-854527
-854118
-853858
-853399
-853137
-852824
-852674
-852310
-852121
-851909
-851727
-851560
-851384
-851299
-851035
-850987
-850779
-850645
-850588
-850467
-850321
-850292
-850235
-850151
-850040
-849946
-849930
-849957
-849966
-849917
-849811
-849856
-849744
-849771
-849683
-849562
-849580
-849689
-849676
-849502
-849515
-849444
-849269
-849362
-849397
-849211
-849217
-849134
-849079
-849052
-848915
-848954
-848847
-848696
-848785
-848757
-848650
-848635
-848676
-848610
-848384
-848416
-848236
-848185
-848165
-848127
-848055
-848018
-847931
-847921
-847869
-847753
-847858
-847584
-847640
-847693
-847721
-847847
-847669
-847626
-847621
-847599
-847680
-847773
-847739
-847733
-847876
-847911
-847896
-847818
-847871
-847951
-848067
-848094
-848145
-848149
-848289
-848330
-848429
-848502
-848527
-848494
-848552
-848642
-848827
-848891
-848889
-848934
-848972
-849022
-849139
-849176
-849265
-849377
-849410
-849496
-849517
-849547
-849467
-849469
-849580
-849579
-849602
-849684
-849602
-849633
-849700
-849741
-849714
-849652
-849703
-849600
-849648
-849552
-849498
-849548
-849497
-849502
-849458
-849498
-849398
-849345
-849311
-849335
-849366
-849342
-849360
-849402
-849280
-849282
-849334
-849305
-849211
-849346
-849322
-849289
-849334
-849524
-849471
-849534
-849624
-849640
-849687
-849790
-849731
-849758
-849832
-849861
-849911
-849820
-849786
-849949
-849989
-849944
-850114
-850111
-850195
-850294
-850353
-850372
-850380
-850454
-850548
-850700
-850706
-850696
-850691
-850692
-850695
-850721
-850925
-850934
-851102
-851197
-851339
-851410
-851509
-851575
-851542
-851593
-851544
-851664
-851731
-851719
-851851
-851887
-851863
-852010
-852153
-852256
-852324
-852491
-852466
-852633
-852783
-852621
-852749
-852813
-852900
-852905
-852952
-853040
-853126
-853170
-853164
-853197
-853334
-853332
-853490
-853418
-853512
-853534
-853576
-853729
-853776
-853822
-853879
-853880
-853921
-853957
-854018
-854016
-854029
-854146
-854214
-854211
-854372
-854256
-854307
-854322
-854699
-854718
-854802
-855200
-855402
-855465
-855442
-855507
-855639
-855716
-855682
-855826
-855889
-855843
-855959
-855936
-855978
-856108
-856159
-856256
-856302
-856397
-856531
-856582
-856513
-856635
-856753
-856511
-856849
-857057
-857017
-857289
-857345
-857340
-857388
-857610
-857734
-857830
-857840
-858050
-858092
-858227
-858233
-858327
-858397
-858560
-858656
-858721
-858821
-858894
-858963
-859177
-859178
-859081
-859291
-859404
-859440
-859570
-859620
-859788
-859757
-859896
-859939
-859997
-860098
-860228
-860177
-860437
-860554
-860600
-860686
-860677
-860747
-860847
-860808
-861171
-861024
-861163
-861286
-861440
-861466
-861540
-861589
-861724
-861759
-861838
-862190
-862234
-862211
-862271
-862504
-862531
-862611
-862697
-862673
-862641
-862790
-862819
-862865
-863028
-863102
-863123
-863137
-863351
-863538
-863579
-863725
-863774
-863911
-863980
-864055
-864258
-864300
-864339
-864531
-864588
-864625
-864695
-864820
-864832
-864899
-865026
-865128
-865158
-865196
-865275
-865410
-865432
-865526
-865696
-865721
-865879
-865882
-865971
-865910
-866004
-866044
-866175
-866251
-866331
-866471
-866503
-866639
-866658
-866700
-866697
-866740
-866930
-867044
-867135
-867215
-867278
-867315
-867401
-867460
-867468
-867501
-867565
-867588
-867646
-867694
-867674
-867638
-867683
-867732
-867597
-867594
-867578
-867476
-867159
-867088
-866935
-866873
-866644
-866322
-866033
-865641
-865336
-865000
-864534
-864134
-863760
-863196
-862655
-862152
-861629
-861078
-860588
-860130
-859589
-859038
-858539
-857951
-857493
-856988
-856456
-855860
-855499
-854965
-854450
-854174
-853663
-853263
-852969
-852386
-852155
-851685
-851443
-851156
-850875
-851066
-850599
-850321
-850113
-849953
-849629
-849545
-849344
-849327
-849226
-849390
-849015
-848861
-848752
-848800
-848765
-848616
-848651
-848524
-848537
-848506
-848425
-848494
-848336
-848362
-848228
-848296
-848190
-848060
-848094
-848105
-848027
-847906
-847827
-847676
-847738
-847615
-847546
-847552
-847483
-847352
-847258
-847194
-847133
-847094
-846880
-846828
-846751
-846565
-846575
-846513
-846484
-846385
-846269
-846163
-846239
-846101
-846000
-845933
-846013
-845930
-845864
-845778
-845636
-845611
-845587
-845518
-845596
-845463
-845527
-845570
-845424
-845455
-845389
-845368
-845424
-845392
-845418
-845470
-845550
-845560
-845544
-845441
-845561
-845564
-845702
-845755
-845715
-845916
-845909
-845960
-846044
-846092
-846085
-846215
-846325
-846351
-846410
-846593
-846698
-846656
-846625
-846745
-846648
-846841
-846850
-846917
-846842
-846970
-846812
-847005
-847018
-846983
-846988
-847068
-847138
-847105
-847230
-847170
-847124
-847115
-847188
-847127
-847331
-847210
-847073
-847070
-847069
-847099
-846978
-847087
-847040
-846959
-846955
-846909
-846873
-846915
-847076
-847060
-847088
-847191
-847238
-847270
-847297
-847302
-847398
-847299
-847323
-847505
-847351
-847375
-847386
-847357
-847423
-847407
-847501
-847565
-847581
-847666
-847658
-847765
-847684
-847725
-847844
-847900
-848021
-848035
-848082
-848097
-848078
-848172
-848118
-848184
-848214
-848270
-848229
-848257
-848260
-848297
-848349
-848425
-848344
-848463
-848455
-848507
-848473
-848682
-848821
-848864
-848874
-848986
-849037
-849032
-849151
-849365
-849410
-849520
-849625
-849541
-849646
-849751
-849920
-849894
-850023
-850098
-850222
-850369
-850506
-850579
-850645
-850585
-850630
-850780
-850948
-851105
-851200
-851225
-851346
-851498
-851518
-851528
-851662
-851901
-851957
-852012
-852020
-852300
-852262
-852316
-852517
-852453
-852752
-852906
-853017
-852999
-853246
-853262
-853318
-853374
-853508
-853575
-853600
-853667
-853762
-853722
-853748
-853919
-853990
-854022
-854060
-854123
-854312
-854332
-854313
-854371
-854389
-854483
-854669
-854629
-854730
-854882
-854911
-854972
-854969
-855039
-855212
-855274
-855345
-855351
-855496
-855667
-855715
-855736
-855756
-855851
-855914
-856601
-856264
-856259
-856449
-856460
-856489
-856495
-856563
-856594
-856686
-856769
-856903
-856992
-857134
-857088
-857177
-857243
-857337
-857313
-857459
-857529
-857705
-857698
-857749
-858261
-858018
-857886
-857933
-857922
-858117
-858078
-858137
-858300
-858246
-858387
-858421
-858397
-858468
-858648
-858651
-858782
-858792
-858924
-859086
-859100
-859050
-859126
-859246
-859289
-859409
-859451
-859439
-859584
-859745
-859813
-859935
-859951
-859952
-859984
-860057
-860339
-860345
-860444
-860504
-860603
-860637
-860602
-860804
-860794
-860914
-860958
-860928
-860859
-861013
-861195
-861191
-861282
-861255
-861095
-861402
-861646
-861644
-861666
-861793
-861865
-861846
-861872
-861882
-862002
-861820
-862069
-862205
-862413
-862387
-862482
-862568
-862630
-862667
-862757
-862858
-862924
-863093
-863241
-863290
-863575
-863639
-863724
-863689
-863741
-863760
-863838
-863990
-864068
-864135
-864958
-865175
-865423
-865645
-865727
-866016
-866336
-866440
-866627
-866724
-866960
-867048
-867120
-867231
-867363
-867640
-867607
-867765
-867984
-868109
-868250
-868641
-851858
-849453
-849323
-849383
-849350
-849236
-849153
-848956
-848967
-849021
-848961
-848952
-848966
-848907
-848901
-848855
-848726
-848697
-848589
-848569
-848533
-848502
-848374
-848364
-848187
-848222
-848096
-847923
-847782
-847812
-847814
-847720
-847602
-847604
-847436
-847427
-847272
-847179
-847065
-847085
-847038
-846903
-846828
-846736
-846738
-846603
-846403
-846307
-846304
-846322
-846088
-845996
-845973
-845926
-845951
-845818
-845791
-845627
-845580
-845615
-845592
-845657
-845641
-845607
-845675
-845601
-845583
-845563
-845491
-845495
-845664
-845611
-845554
-845549
-845595
-845526
-845653
-845713
-845762
-845852
-845842
-845934
-845936
-845971
-845975
-846072
-846125
-846308
-846332
-846420
-846371
-846398
-846386
-846417
-846443
-846429
-846609
-846658
-846698
-846660
-846795
-846665
-846608
-846826
-846764
-846732
-846737
-846651
-846604
-846702
-846726
-846670
-846647
-846555
-846458
-846502
-846598
-846457
-846528
-846485
-846511
-846474
-846481
-846594
-846555
-846592
-846582
-846569
-846649
-846673
-846587
-846617
-846686
-846746
-846821
-846990
-846883
-846971
-847010
-846997
-847231
-847357
-848096
-848285
-848745
-848792
-848595
-848511
-848601
-848876
-848964
-848911
-848931
-849062
-849045
-849053
-849204
-849338
-849431
-849498
-849515
-849485
-849508
-849680
-849650
-849771
-849928
-849972
-849978
-850107
-850185
-850209
-850333
-850424
-850427
-850579
-850635
-850624
-850700
-850835
-850887
-851007
-851130
-851116
-851229
-851299
-851433
-851528
-851553
-851592
-851729
-851860
-851966
-852023
-852035
-852103
-852197
-852862
-852553
-852643
-852624
-852694
-852653
-852713
-852806
-852968
-852988
-853076
-853201
-853399
-853400
-853462
-853642
-853592
-853735
-853868
-853944
-854064
-854122
-854240
-854326
-854509
-854441
-854498
-854554
-854673
-854879
-854921
-855023
-855039
-855174
-855333
-855413
-855383
-855291
-855223
-855206
-855293
-855420
-855591
-855573
-855722
-855684
-855689
-855730
-855815
-855936
-856091
-856145
-856157
-856306
-856423
-856376
-856471
-856552
-856614
-856583
-856682
-856876
-856858
-856940
-857047
-857122
-857125
-857198
-857257
-857377
-857506
-857503
-857518
-857724
-857846
-857890
-857807
-857920
-857993
-858194
-858319
-858374
-858429
-858254
-858420
-858393
-858399
-858445
-858605
-858632
-858706
-858877
-858941
-858986
-858988
-859121
-859148
-859110
-859261
-859329
-859223
-859345
-859318
-859468
-859489
-859477
-859463
-859611
-859595
-859674
-859689
-859756
-859893
-859973
-859838
-859828
-859810
-859767
-859944
-859868
-859828
-859935
-860071
-860025
-860140
-860265
-861037
-860430
-860315
-860465
-860411
-860549
-860685
-860797
-860735
-860804
-860926
-860890
-861047
-861159
-861215
-861230
-861277
-861340
-861407
-861448
-861568
-861624
-861546
-861734
-861719
-861711
-861817
-861950
-861971
-862003
-862112
-862068
-862082
-862206
-862257
-862340
-862425
-862520
-862594
-862592
-862612
-862846
-862792
-862863
-863038
-863081
-863100
-863202
-863265
-863365
-863336
-863479
-863512
-863679
-863660
-863708
-863834
-863952
-863900
-864088
-864185
-864255
-864153
-864340
-864460
-864525
-864744
-864751
-864781
-864836
-864881
-864958
-865064
-865179
-865262
-865356
-865431
-865540
-865669
-865686
-865753
-866401
-866020
-865988
-865907
-865894
-865844
-865641
-865715
-865735
-865673
-865484
-865462
-865112
-864646
-864566
-864784
-864189
-863646
-863290
-862876
-862340
-861976
-861573
-861060
-860555
-860109
-859655
-859136
-858537
-858087
-857507
-857036
-856583
-856098
-855653
-855075
-854703
-854209
-853786
-853320
-852785
-852290
-851993
-851574
-851191
-850866
-850214
-849919
-848406
-847798
-847253
-847300
-847222
-847159
-847170
-847081
-847116
-847121
-846989
-847017
-846971
-846892
-846825
-846812
-846739
-846682
-846485
-846497
-846342
-846254
-846227
-846246
-846153
-846041
-845814
-845709
-845634
-845611
-845651
-845513
-845459
-845397
-845317
-845219
-845118
-845067
-844946
-844919
-844787
-844705
-844681
-844701
-844582
-844584
-844561
-844526
-844384
-844324
-844573
-844571
-844632
-844664
-844788
-844727
-844749
-844812
-844887
-844891
-844997
-845098
-845180
-845252
-845272
-845327
-845396
-845541
-845626
-845659
-845958
-845924
-846024
-846049
-846130
-846149
-846158
-846193
-846206
-846295
-846349
-846273
-846254
-846187
-846115
-845965
-845913
-846019
-845985
-846010
-846061
-845986
-846005
-845979
-845815
-845819
-845836
-845844
-845829
-845837
-845986
-845857
-845878
-845849
-845831
-845820
-846007
-845846
-845796
-845583
-845597
-845719
-845739
-845675
-845746
-845696
-845754
-845742
-845734
-845689
-845788
-845694
-845691
-845767
-845852
-845848
-845834
-845879
-846016
-845962
-846047
-846099
-846059
-846206
-846256
-846327
-846339
-846361
-846315
-846364
-846214
-846137
-846254
-846249
-846286
-846383
-846482
-846550
-846558
-846546
-846598
-846593
-846689
-846802
-846977
-847102
-847173
-847193
-847329
-847276
-847366
-847534
-847611
-847735
-847901
-848176
-848289
-848498
-848567
-848498
-848384
-848393
-848457
-848648
-848838
-848995
-848973
-849053
-849012
-849025
-849062
-849186
-849140
-849270
-849315
-849413
-849462
-849601
-849731
-849702
-849794
-849823
-850012
-850005
-850041
-850090
-850336
-850472
-850527
-850534
-850653
-850673
-850895
-850853
-850935
-851102
-851066
-851148
-851269
-851249
-851269
-851412
-851504
-851477
-851630
-851711
-851709
-851715
-851775
-851800
-851849
-851978
-852115
-852107
-852243
-852290
-852637
-852606
-852670
-852913
-852959
-853109
-853068
-853093
-853207
-853142
-853267
-853413
-853492
-853536
-853590
-853773
-853909
-854005
-854100
-854196
-854482
-855303
-855500
-855562
-855385
-855377
-855680
-855743
-855934
-855976
-856141
-856442
-856742
-856864
-856966
-857202
-857336
-857339
-857435
-857533
-857712
-857791
-857879
-857821
-857786
-857750
-857968
-858030
-858036
-858057
-858142
-858176
-858239
-858134
-858156
-858313
-858223
-858277
-858404
-858376
-858513
-858550
-858540
-858528
-858633
-858640
-858833
-858948
-859015
-859074
-859093
-859224
-859194
-859243
-859230
-859388
-859417
-859474
-859503
-859672
-859660
-859793
-859709
-860368
-860148
-860028
-860240
-860280
-860373
-860486
-860570
-860773
-860848
-860935
-861046
-861154
-861255
-861249
-861375
-861268
-861383
-861404
-861357
-861421
-861481
-861669
-861776
-861891
-862049
-862274
-862402
-862393
-862473
-862478
-862548
-862700
-862744
-862856
-862893
-862928
-863084
-863177
-863234
-863264
-863465
-863580
-863643
-863823
-863987
-864090
-864165
-864361
-864477
-864537
-864756
-864927
-864887
-865070
-865096
-865087
-865123
-865273
-865367
-865304
-865319
-865403
-865453
-865388
-865297
-865155
-865167
-864963
-864799
-864605
-864471
-864147
-863801
-863490
-863052
-862495
-862175
-861688
-861178
-860696
-860283
-859660
-859104
-858752
-858213
-857602
-857063
-856471
-855969
-855457
-854786
-854448
-854619
-853858
-853301
-852845
-852393
-852002
-851569
-851165
-850934
-850739
-850386
-850159
-849763
-849665
-849415
-849193
-849186
-849035
-848879
-848751
-848668
-848553
-848581
-848468
-848309
-848206
-848133
-848074
-847985
-847930
-847911
-847819
-847884
-847826
-847706
-847699
-847727
-847790
-847447
-847575
-847638
-847667
-847626
-847650
-847628
-847551
-847392
-847498
-847494
-847497
-847359
-847357
-847312
-847251
-847147
-847123
-847172
-847107
-847105
-846954
-846889
-846982
-846995
-846989
-846937
-846781
-846754
-846755
-846791
-846728
-846693
-846783
-846732
-846576
-846506
-846597
-846494
-846581
-846555
-846501
-846555
-846449
-846505
-846363
-846348
-846326
-846356
-846349
-846378
-846337
-846358
-846368
-846433
-846429
-846334
-846328
-846459
-846414
-846532
-846496
-846505
-846507
-846556
-846542
-846584
-846560
-846669
-846673
-846770
-846816
-846804
-846850
-846857
-846795
-846889
-846849
-846911
-846882
-846985
-847006
-847097
-846960
-847004
-846978
-846943
-846971
-846850
-847063
-847092
-847019
-847085
-847123
-847111
-846921
-846915
-846946
-846988
-847081
-847039
-847044
-847009
-846977
-847046
-847018
-846962
-846822
-846904
-846892
-846969
-846975
-846882
-846972
-846957
-846849
-846751
-846772
-846698
-846750
-846751
-846705
-846740
-846789
-846824
-846816
-846716
-846846
-846852
-846884
-846983
-846938
-847042
-847046
-847048
-847112
-847081
-847072
-847075
-847173
-847215
-847077
-847558
-847801
-847897
-847939
-849243
-850194
-852262
-852397
-852503
-852520
-852600
-855491
-855605
-855821
-855637
-855639
-855674
-855599
-855499
-855514
-855568
-855532
-855553
-855699
-855766
-855861
-856035
-856158
-856260
-856408
-856535
-856543
-856794
-857047
-857086
-857084
-857284
-857392
-857540
-857565
-857581
-857686
-857915
-858002
-858124
-858136
-858264
-858300
-858460
-858653
-858814
-858998
-859036
-859252
-859275
-859405
-859482
-859468
-859459
-859432
-859499
-859366
-859525
-859475
-859417
-859497
-859526
-859491
-859501
-859417
-859613
-859700
-859769
-859737
-859920
-859946
-860043
-860094
-860288
-860363
-860378
-860463
-860444
-860533
-860555
-860623
-860675
-860691
-860820
-860868
-861038
-861196
-861367
-861442
-861634
-861754
-861846
-862020
-861949
-862106
-862307
-862274
-862361
-862358
-862492
-862596
-862595
-862646
-862536
-862541
-862648
-862693
-862812
-862827
-862753
-862889
-862959
-862925
-862822
-862886
-862943
-863012
-863015
-863005
-863029
-862877
-862922
-862905
-862924
-862896
-862912
-863018
-863044
-863026
-863145
-863244
-863842
-863427
-863362
-863417
-863473
-863585
-863732
-863820
-864030
-864118
-864292
-864342
-864372
-864423
-864539
-864697
-864693
-864695
-864867
-864809
-864972
-865034
-865039
-865161
-865133
-865172
-865244
-865211
-865359
-865513
-865482
-865558
-865514
-865617
-865631
-865914
-866434
-866560
-866667
-866513
-866431
-866636
-866757
-866798
-866802
-866631
-866644
-866567
-866573
-866454
-866225
-866042
-865831
-865540
-865326
-865059
-864422
-864046
-863623
-863133
-862702
-862188
-861710
-861235
-860620
-860213
-859586
-859098
-858504
-857943
-857405
-856922
-856398
-855935
-855535
-855094
-854734
-854195
-853843
-853322
-853000
-852652
-852249
-851802
-851433
-851119
-850931
-850648
-850282
-849981
-849815
-849851
-849766
-849784
-849553
-849412
-849272
-849177
-849048
-849010
-848901
-848915
-848855
-848905
-848972
-848951
-848927
-848972
-848956
-848946
-848911
-848840
-848750
-848714
-848733
-848789
-848676
-848697
-848788
-848629
-848747
-848578
-848443
-848541
-848493
-848382
-848344
-848658
-848873
-849032
-848910
-848784
-848564
-848597
-848522
-848591
-848587
-848556
-848573
-848553
-848499
-848445
-848446
-848450
-848458
-848440
-848446
-848445
-848369
-848409
-848327
-848317
-848357
-848285
-848303
-848311
-848456
-848383
-848485
-848366
-848492
-848479
-848539
-848579
-848547
-848690
-848805
-848831
-848762
-848834
-848839
-848923
-849751
-849240
-849235
-849149
-849061
-849075
-849106
-848997
-848987
-848953
-848874
-848991
-849005
-848900
-848833
-848941
-848933
-848970
-849111
-849257
-849325
-849328
-849406
-849451
-849499
-849713
-849569
-849214
-849330
-849487
-849461
-849487
-849476
-849502
-849437
-849477
-849422
-849407
-849484
-849528
-849457
-849427
-849525
-849544
-849652
-849581
-849545
-849528
-849571
-849687
-849736
-849695
-849747
-849662
-849727
-849713
-849632
-849586
-849521
-849596
-849645
-849607
-849624
-849743
-849718
-849598
-849580
-849691
-849663
-849720
-849815
-849887
-849941
-850046
-850147
-850092
-850088
-850157
-850109
-850222
-850368
-850460
-850456
-850546
-850606
-850612
-850768
-850813
-850925
-850867
-851624
-851427
-851338
-851446
-851482
-851648
-851713
-851930
-851988
-851969
-852108
-852169
-852154
-852122
-852085
-852122
-852175
-852054
-852115
-852225
-852268
-852233
-852302
-852453
-852615
-852542
-852649
-852750
-852635
-852835
-852929
-853134
-853166
-853292
-853390
-853544
-853579
-853607
-853695
-853795
-853862
-853909
-853894
-853837
-853828
-853884
-853927
-853973
-854142
-854283
-854532
-854580
-854789
-854921
-854943
-855160
-855119
-855210
-855305
-855386
-855344
-855310
-855435
-855326
-855439
-855412
-855451
-855484
-855483
-855414
-855490
-855568
-855671
-855748
-855867
-855932
-855966
-856103
-856262
-856558
-856736
-856987
-857205
-857343
-857500
-857612
-857725
-857600
-857593
-857715
-857673
-857589
-857614
-857670
-857674
-857735
-857830
-857862
-857992
-858137
-858403
-858567
-858714
-858886
-859002
-859167
-859171
-859183
-859156
-859238
-859204
-859142
-859222
-859154
-859220
-859180
-859103
-859079
-859209
-859204
-859322
-859398
-859606
-859737
-859785
-859833
-859995
-860046
-860610
-860439
-860405
-860463
-860573
-860650
-860633
-860764
-860748
-860781
-860893
-860994
-861157
-861190
-861453
-861548
-861648
-861784
-861969
-862044
-862148
-862352
-862479
-862668
-862800
-862816
-862996
-862970
-863011
-863123
-863172
-863078
-863084
-862796
-862910
-863181
-863167
-863137
-863012
-863065
-863102
-863229
-863265
-863420
-863403
-863471
-863514
-863586
-863750
-863864
-863711
-863851
-863980
-863901
-864172
-864337
-864472
-864459
-864573
-864784
-864595
-864926
-865137
-865301
-865256
-865572
-865637
-865864
-865970
-865866
-866064
-866268
-866478
-866417
-866457
-866605
-866640
-866718
-866813
-866837
-866740
-866704
-867014
-867653
-867364
-867122
-867121
-867454
-867179
-867308
-867445
-867521
-868305
-867953
-867874
-867602
-868203
-868016
-868010
-868171
-868157
-868342
-868432
-868422
-868300
-868445
-868316
-868578
-868581
-868607
-868662
-868675
-868541
-868460
-868401
-868836
-868324
-868008
-867562
-867461
-866904
-866565
-866372
-866039
-865717
-865273
-864796
-864336
-863846
-863864
-862711
-862222
-861820
-861233
-860540
-859986
-859550
-858907
-858385
-857788
-857398
-857559
-856676
-855984
-855537
-855038
-854602
-854195
-853746
-853449
-852853
-852752
-852529
-852113
-851925
-851770
-851377
-851284
-851073
-850883
-850647
-850470
-850457
-850301
-850628
-850245
-849755
-849886
-849790
-849829
-849810
-849517
-849558
-849581
-849589
-849598
-849344
-849357
-849355
-849326
-849164
-849286
-849374
-849286
-849222
-849068
-849066
-848806
-848771
-848957
-848962
-848783
-848853
-848948
-848890
-848827
-848806
-848679
-848654
-848571
-848526
-848530
-848486
-848337
-848411
-848341
-848178
-848147
-848000
-847983
-847906
-847825
-847760
-847733
-847820
-847712
-847609
-847473
-847484
-847464
-847400
-847375
-847445
-847352
-847418
-847366
-847327
-847299
-847200
-847320
-847401
-847450
-847433
-847440
-847554
-847487
-847545
-847583
-847652
-847660
-847667
-847775
-847765
-847887
-847906
-847935
-848075
-848096
-848123
-848207
-848279
-848410
-848484
-848532
-848627
-848665
-848759
-848830
-848857
-849026
-848968
-849022
-849109
-849193
-849243
-849230
-849264
-849217
-849245
-849271
-849265
-849375
-849366
-849389
-849355
-849362
-849299
-849253
-848847
-848924
-849161
-849210
-849253
-849350
-849357
-849269
-849205
-849260
-849143
-849105
-849164
-849158
-849230
-849122
-849126
-849150
-849209
-849118
-849107
-849083
-849013
-849136
-848992
-849042
-849129
-849169
-849044
-849057
-849171
-849212
-849320
-849412
-849358
-849437
-849486
-849542
-849534
-849582
-849546
-849526
-849675
-849783
-849886
-849913
-850013
-850038
-850113
-850118
-850215
-850307
-850429
-850541
-850528
-850705
-850669
-850797
-850766
-850857
-851017
-850937
-851111
-851126
-851278
-851348
-851420
-851454
-851446
-851543
-851667
-851756
-851675
-851851
-851962
-851899
-851961
-851964
-852044
-852184
-852330
-852433
-852530
-852639
-852562
-852717
-852783
-852823
-852940
-852892
-853182
-853151
-853224
-853369
-853551
-853664
-853724
-853811
-853855
-854055
-854123
-854169
-854150
-854280
-854278
-854268
-854411
-854446
-854510
-854553
-854607
-854640
-854705
-854697
-854719
-854852
-854856
-855006
-855039
-855208
-855194
-855405
-855521
-855503
-855634
-855805
-855959
-856095
-856306
-856671
-856914
-856970
-857149
-857118
-857217
-857403
-857340
-857371
-857533
-857582
-857583
-857711
-857624
-857702
-857746
-857908
-857852
-858013
-858070
-858154
-858306
-858284
-858270
-858482
-858452
-858499
-858537
-858648
-858752
-858855
-858887
-858999
-859062
-859111
-859244
-859436
-859580
-859633
-859816
-859824
-859820
-859992
-860024
-860129
-860449
-860451
-860487
-860522
-860588
-860633
-860726
-860779
-860953
-860936
-861051
-860935
-861002
-861142
-861099
-861252
-861293
-861418
-861475
-861605
-861661
-861732
-861720
-861794
-861897
-861986
-862105
-862223
-862314
-862344
-862366
-862472
-862595
-862592
-862613
-862801
-862909
-862984
-863126
-863216
-863318
-863334
-863392
-863551
-863604
-863579
-863637
-863680
-863778
-863823
-863754
-863751
-863908
-863996
-864113
-864276
-864364
-864308
-864523
-864528
-864653
-864827
-864834
-864892
-864937
-864959
-865047
-865133
-865253
-865280
-865305
-865385
-865488
-865632
-865821
-865993
-866031
-866167
-866316
-866363
-866445
-866593
-866682
-866830
-866999
-867086
-867140
-867193
-867287
-867256
-867344
-867520
-867719
-867703
-867689
-868092
-867974
-868081
-868039
-868012
-868099
-868009
-867967
-867962
-867853
-867692
-867478
-867186
-866993
-866748
-866328
-866056
-865665
-865287
-864936
-864454
-863934
-863457
-863008
-862638
-862128
-861603
-861161
-860653
-860007
-859516
-858852
-858318
-857728
-857264
-856794
-856276
-855835
-855345
-854944
-854451
-853993
-853696
-853225
-852905
-852558
-852256
-851873
-851660
-851477
-851138
-850896
-850630
-850398
-850191
-849965
-849860
-849737
-849666
-849528
-849463
-849287
-849051
-848961
-849008
-848922
-848902
-848809
-848769
-848718
-848638
-848575
-848478
-848321
-848276
-848214
-848282
-847857
-847581
-847031
-845575
-845617
-845541
-845475
-845588
-845581
-845569
-845558
-845562
-845646
-845736
-845631
-845938
-846067
-846203
-846347
-846413
-846488
-846628
-846639
-846692
-846852
-846949
-846996
-847099
-847134
-847316
-847372
-847444
-847496
-847438
-847501
-847580
-847744
-847675
-847700
-847762
-847760
-847814
-847847
-847782
-847843
-847826
-847798
-847920
-847930
-847978
-847888
-847889
-847866
-847818
-847737
-847748
-847710
-847893
-847939
-847952
-847944
-847847
-847932
-847943
-847872
-847752
-847697
-847829
-847796
-847876
-847880
-847841
-847972
-847926
-847840
-847935
-847899
-847900
-848118
-848061
-848160
-848127
-848126
-848156
-848093
-848146
-848163
-848230
-848352
-848378
-848457
-848400
-848393
-848429
-848512
-848553
-848690
-848742
-848859
-848851
-848915
-849027
-849048
-849193
-849248
-849218
-849274
-849398
-849502
-849495
-849700
-849675
-849857
-849771
-849961
-850023
-850104
-850259
-850344
-850343
-850422
-850561
-850652
-850709
-850800
-850910
-850890
-851031
-851160
-851287
-851270
-851347
-851425
-851498
-851557
-851528
-851665
-851701
-851839
-852072
-852021
-852129
-852266
-852284
-852406
-852389
-852375
-852550
-852633
-852747
-852779
-852820
-852827
-853007
-853009
-853037
-853354
-853433
-853551
-853683
-853779
-853906
-853835
-853796
-853853
-853779
-853886
-854006
-853892
-854001
-854088
-854151
-854249
-854266
-854327
-854417
-854531
-854681
-854772
-854839
-855043
-855129
-855328
-855275
-855402
-855502
-855559
-855505
-855584
-855641
-855703
-855736
-855807
-855962
-856105
-856009
-856327
-856580
-856606
-856795
-857083
-857128
-857467
-857609
-857507
-857566
-857582
-857714
-857680
-857815
-857881
-857917
-858045
-858062
-858109
-858280
-858308
-858303
-858406
-858526
-858610
-858629
-858719
-858794
-858837
-858824
-858840
-858997
-858969
-859074
-859120
-859323
-859432
-859479
-859485
-859490
-859651
-859703
-859747
-859857
-859965
-860019
-860139
-860236
-860344
-860461
-860586
-860523
-860686
-860720
-860865
-860925
-860990
-861081
-861070
-861110
-861175
-861325
-861374
-861509
-861639
-861599
-861752
-861891
-861953
-862015
-862004
-861998
-862159
-862225
-862325
-862413
-862460
-862459
-862548
-862620
-862602
-862816
-862829
-862808
-862948
-863053
-863206
-863295
-863425
-863373
-863421
-863553
-863664
-863743
-863879
-863989
-864066
-864179
-864285
-864367
-864429
-864451
-864550
-864642
-864843
-864664
-864947
-864928
-865063
-865062
-865068
-865227
-865219
-865427
-865637
-865783
-865870
-865985
-866086
-866248
-866322
-866326
-866390
-866389
-866472
-866534
-866020
-866537
-866546
-866742
-866798
-866787
-866980
-867140
-867138
-867296
-867467
-867632
-867622
-867699
-867801
-867953
-868012
-868133
-868134
-868211
-868276
-868223
-868337
-868461
-868523
-868530
-868584
-868796
-868925
-868725
-868935
-869061
-869208
-869229
-869177
-869338
-869442
-869612
-869594
-869692
-869680
-869597
-869587
-869567
-869647
-869447
-869361
-869191
-869062
-868905
-868729
-868364
-868151
-867829
-867520
-867155
-866864
-866506
-865971
-865056
-864563
-863977
-863468
-862907
-862232
-861716
-861230
-860394
-859998
-859396
-858991
-858323
-857839
-857328
-856885
-856323
-855923
-855561
-855181
-854807
-854440
-853978
-853684
-853315
-852967
-852743
-852435
-852211
-851996
-851756
-851408
-851044
-850857
-850732
-850661
-850490
-851074
-850478
-850268
-850193
-850128
-850110
-850123
-850181
-850167
-850171
-850146
-850039
-850094
-850012
-850061
-850091
-850082
-850199
-850014
-849956
-849988
-850014
-849929
-849945
-849947
-849949
-849616
-849819
-849903
-849876
-849849
-849707
-849638
-849596
-849597
-849519
-849451
-849420
-849380
-849420
-849242
-849307
-849218
-849176
-849184
-849130
-849122
-849116
-849079
-849101
-849124
-849013
-849024
-849018
-849045
-849026
-849007
-848982
-849067
-849117
-849108
-849115
-849189
-849259
-849177
-849283
-849325
-849434
-849363
-849450
-849544
-849552
-849686
-849706
-849815
-849834
-849894
-849831
-849819
-849945
-849925
-850092
-850141
-850726
-850389
-850470
-850399
-850452
-850461
-850510
-850410
-850591
-850723
-850594
-850604
-850643
-850601
-850566
-850670
-850645
-850634
-850745
-850702
-850729
-850719
-850628
-850641
-850627
-850580
-850639
-850606
-850609
-850491
-850784
-850688
-850603
-850514
-850466
-851331
-850745
-850572
-850436
-850442
-850437
-850409
-850360
-850251
-850300
-850407
-850314
-850425
-850349
-850372
-850403
-850461
-850406
-850432
-850472
-850392
-850413
-850456
-850472
-850368
-850533
-850597
-850563
-850575
-850578
-850524
-850624
-850709
-850693
-850813
-850952
-850925
-850894
-850949
-851074
-851050
-851105
-851109
-851204
-851267
-851379
-851401
-851454
-851580
-851560
-851620
-851613
-851813
-851873
-852036
-852067
-852178
-852267
-852184
-852313
-852426
-852456
-852541
-852534
-852871
-852927
-852948
-853015
-853945
-854086
-854165
-854275
-854353
-854365
-854775
-854848
-854972
-855082
-855142
-855264
-855485
-855380
-855453
-855553
-855722
-855738
-855801
-855839
-855991
-856039
-856190
-856168
-856291
-856494
-856609
-856614
-856731
-856848
-856839
-856899
-857088
-857019
-857059
-857162
-857367
-857465
-857564
-857603
-857659
-857827
-857811
-857942
-857926
-858059
-858141
-858287
-858337
-858524
-858517
-858547
-858704
-858716
-858929
-858963
-859146
-859214
-859256
-859350
-859450
-859365
-859446
-859674
-859701
-859840
-859941
-860037
-860140
-860215
-860180
-860211
-860815
-860587
-860589
-860629
-860686
-860771
-860846
-860896
-860977
-860933
-860962
-861039
-861210
-861276
-861397
-861369
-861475
-861402
-861630
-861727
-861780
-861863
-861923
-862046
-862049
-862062
-861904
-862113
-862318
-862304
-862506
-862531
-862660
-862765
-862793
-862937
-862975
-863125
-863184
-863301
-863335
-863447
-863551
-863582
-863706
-863794
-863914
-863944
-864132
-864178
-864158
-864348
-864484
-864564
-864569
-864678
-864761
-864798
-864841
-864895
-864929
-865080
-865202
-865297
-865300
-865405
-865452
-865510
-865634
-865612
-865698
-865815
-865793
-865934
-866037
-866132
-866185
-866278
-866402
-866404
-866464
-866582
-866538
-866712
-866795
-866858
-866932
-867113
-867111
-867073
-867209
-867291
-867428
-867466
-867477
-867483
-867663
-867875
-867957
-867999
-868012
-868103
-868172
-868294
-868319
-868448
-868623
-868691
-868648
-868711
-868842
-868972
-868980
-869102
-869190
-869251
-869281
-869376
-869427
-869535
-869698
-869792
-869854
-869878
-869977
-870052
-870259
-870013
-870266
-870420
-870480
-870566
-870690
-870570
-870657
-870734
-870821
-870926
-870923
-871026
-870984
-871051
-871008
-870976
-870993
-870865
-870863
-870730
-870687
-870514
-870304
-870095
-869890
-869643
-869296
-869041
-868768
-868351
-867988
-867418
-866984
-866611
-866060
-865662
-865091
-864524
-864027
-863542
-862931
-862359
-861738
-861154
-860721
-860210
-859669
-859146
-859144
-857745
-857200
-856668
-856193
-855801
-855487
-855088
-854814
-854465
-854196
-853826
-853629
-853367
-853096
-852847
-852625
-852456
-852156
-852047
-851902
-851850
-851651
-851618
-851567
-851461
-851350
-851241
-851133
-851101
-851046
-850980
-850950
-850931
-850877
-850984
-850977
-850961
-850936
-850840
-850887
-850870
-850715
-850700
-850621
-850556
-850660
-850627
-850567
-850596
-850624
-850567
-850477
-850430
-850360
-850400
-850381
-850319
-850154
-850162
-850173
-849972
-849937
-849936
-849804
-849708
-849771
-849564
-849515
-849553
-849389
-849385
-849282
-849280
-849222
-849213
-849186
-849123
-849069
-849050
-849081
-848946
-848879
-848812
-848799
-848838
-848870
-848742
-848865
-848783
-848736
-848754
-848779
-848793
-848846
-848837
-849030
-849020
-849003
-848886
-849173
-849254
-849217
-849286
-849339
-849393
-849416
-849459
-849638
-849706
-849822
-849829
-849866
-849938
-849927
-850553
-850177
-850260
-850361
-850260
-850378
-850315
-850318
-850460
-850360
-850392
-850421
-850499
-850431
-850511
-850476
-850495
-850471
-850441
-850432
-850466
-850562
-850466
-850558
-850577
-850516
-850437
-850508
-850416
-850464
-850446
-850441
-850448
-850357
-850472
-850322
-850400
-850417
-850466
-850511
-850509
-850535
-850609
-850508
-850589
-850568
-850537
-850631
-850567
-850620
-850637
-850617
-850565
-850712
-850633
-850674
-850747
-850683
-850808
-850802
-850811
-850843
-850954
-850890
-850906
-850880
-850992
-851061
-851071
-851055
-851130
-851207
-851067
-851185
-851248
-851258
-851319
-851378
-851474
-851452
-851483
-851487
-851565
-851805
-851873
-851892
-851979
-852104
-852070
-852122
-852194
-852214
-852341
-852451
-852460
-852402
-852637
-852505
-852656
-852669
-852795
-852787
-852797
-852935
-852852
-852913
-853061
-853131
-853102
-853085
-853216
-853323
-853428
-853437
-853509
-853707
-853722
-853797
-854008
-854046
-854185
-854128
-854304
-854382
-854499
-854589
-854714
-854807
-855029
-855202
-855275
-855374
-855514
-855712
-855703
-855906
-855998
-856081
-856281
-856334
-856424
-856556
-856614
-856756
-856841
-856836
-856926
-856955
-857056
-857089
-857214
-857278
-857405
-857447
-857508
-857704
-857760
-857707
-857855
-857943
-858024
-858094
-858231
-858241
-858371
-858390
-858502
-858671
-858654
-858783
-858955
-859085
-858998
-859105
-859295
-859389
-859356
-859508
-859569
-859609
-859651
-859691
-859824
-859947
-859952
-859998
-859958
-860179
-860171
-860163
-860225
-860360
-860402
-860471
-860428
-860473
-860520
-860632
-860751
-860761
-860745
-860814
-860857
-860917
-861010
-861128
-861149
-861128
-861209
-861192
-861280
-861391
-861479
-861792
-861565
-861680
-861778
-861849
-861855
-861818
-861923
-861947
-861941
-862117
-862358
-862785
-863302
-864049
-864498
-864801
-864886
-864928
-865132
-865222
-865794
-866136
-866298
-866363
-866419
-866549
-866596
-866831
-866867
-867034
-867083
-867210
-867216
-867399
-867466
-867609
-867664
-867663
-867849
-867837
-867975
-868048
-868198
-868193
-868284
-868328
-868432
-868505
-868614
-868671
-868739
-868797
-868894
-869046
-869105
-868961
-869182
-869247
-869944
-870019
-870090
-870263
-870239
-870487
-870451
-870500
-870601
-870699
-870752
-870796
-870943
-871116
-871099
-871190
-871300
-871366
-871489
-871501
-871647
-871728
-871677
-871713
-871679
-871595
-871537
-871228
-871075
-870822
-870597
-870294
-870035
-869614
-869197
-868867
-868384
-868004
-867680
-867148
-866560
-865975
-865271
-864834
-864251
-863797
-863123
-862578
-862067
-861536
-860824
-860179
-859667
-859224
-858672
-858256
-857630
-857185
-856814
-856237
-855829
-855357
-854897
-854682
-854247
-853926
-853680
-853403
-852957
-852669
-852366
-852248
-851985
-851901
-851608
-851406
-851314
-851121
-850955
-851682
-850972
-850622
-850528
-850388
-850425
-850320
-850190
-850134
-850084
-849987
-850022
-849904
-849849
-849748
-849739
-849692
-849627
-849511
-849591
-849972
-849562
-849431
-849221
-849106
-849155
-849054
-848965
-848855
-848808
-848671
-848622
-848487
-848408
-848310
-848245
-848147
-848212
-848101
-848007
-847847
-847768
-847684
-847563
-847472
-847486
-847395
-847239
-847136
-847121
-847299
-847003
-846943
-846813
-846682
-846639
-846666
-846599
-846533
-846470
-846412
-846413
-846331
-846242
-846251
-846175
-846178
-846164
-846188
-846124
-846019
-846075
-846014
-846067
-846042
-846099
-846253
-846175
-846161
-846262
-846306
-846359
-846453
-846444
-846483
-846605
-846577
-846652
-846645
-846664
-846854
-846881
-846836
-846851
-846853
-846937
-847027
-847163
-847070
-847210
-847242
-847298
-847283
-847204
-847340
-847392
-847302
-847331
-847317
-847316
-847301
-847284
-847289
-847335
-847248
-847263
-847270
-847193
-847121
-847213
-847172
-847232
-847114
-847064
-847031
-847058
-847128
-847054
-846991
-847031
-847039
-847132
-847119
-847106
-847107
-847084
-847008
-847198
-847256
-847298
-847378
-847308
-847338
-847348
-847587
-847683
-847620
-847831
-847776
-847951
-848082
-847980
-848079
-848214
-848373
-848426
-848590
-848649
-848779
-848834
-848935
-848969
-849111
-849147
-849293
-849313
-849692
-849460
-849505
-849475
-849477
-849554
-849743
-849722
-849760
-849827
-849994
-850132
-850222
-850304
-850387
-850383
-850441
-850594
-850599
-850755
-850728
-850788
-850792
-850924
-850841
-850868
-850911
-850961
-851027
-851022
-851091
-851199
-851276
-851168
-851218
-851313
-851282
-851269
-851527
-851476
-851599
-851638
-851790
-851831
-851999
-851962
-852129
-852148
-852340
-852421
-852435
-852561
-852555
-852659
-852854
-852938
-853044
-853033
-853125
-853281
-853370
-853421
-853503
-853572
-853503
-853536
-853712
-853722
-853753
-853813
-853873
-854007
-854099
-854159
-854197
-854295
-854328
-854351
-854145
-854414
-854617
-854554
-854440
-854679
-854756
-854702
-854748
-854819
-854880
-854979
-854860
-854851
-854947
-854954
-855033
-854912
-855025
-855076
-855129
-855093
-855131
-855238
-855213
-855195
-855255
-855330
-855487
-855489
-855480
-855653
-855614
-855628
-855698
-855814
-855803
-855907
-856106
-856073
-856128
-856245
-856385
-856513
-856627
-856534
-856635
-856757
-856822
-856248
-856730
-857059
-857103
-857172
-857359
-857337
-857464
-857430
-857493
-857531
-857657
-857793
-857845
-857891
-858026
-858045
-858099
-858201
-858182
-858316
-858287
-858448
-858429
-858438
-858475
-858544
-858681
-858708
-858732
-858753
-858813
-859077
-859206
-859295
-859386
-859387
-859450
-859580
-859581
-859612
-859712
-859749
-859771
-859890
-859947
-859898
-860041
-860052
-860084
-860235
-860348
-860435
-860429
-860615
-860582
-860606
-860703
-860806
-860837
-860939
-860982
-861116
-861144
-861273
-861252
-861397
-861447
-861483
-861527
-861685
-861780
-861796
-861824
-861950
-862074
-862021
-862114
-862206
-862327
-862414
-862484
-862650
-862662
-862653
-862765
-862724
-862878
-863015
-863027
-863164
-863241
-863262
-863306
-863394
-863602
-863588
-863618
-863844
-863965
-864008
-864134
-864241
-864332
-864455
-864537
-864611
-864705
-864746
-864830
-864881
-865026
-865123
-865286
-865364
-865504
-865558
-865550
-865633
-865719
-865927
-866066
-866072
-866141
-866249
-866486
-866476
-866691
-866684
-866805
-866904
-867062
-867193
-867192
-867281
-867384
-867469
-867546
-867611
-867787
-867723
-867928
-867987
-868025
-868065
-868063
-867838
-867867
-867813
-867755
-867781
-867675
-867531
-867308
-867202
-866872
-866563
-866328
-865988
-865627
-865172
-864825
-864413
-863874
-863393
-862850
-862295
-861673
-861232
-860666
-860094
-859525
-858969
-858445
-857807
-857170
-856584
-856086
-855537
-855027
-854419
-853904
-853450
-853017
-852281
-851924
-851522
-851112
-850828
-850475
-850143
-849923
-849631
-849298
-849037
-848750
-848418
-848150
-848033
-847719
-847489
-847335
-847328
-847130
-846936
-846876
-846772
-846727
-846594
-846560
-846634
-846441
-846371
-846271
-846206
-846267
-846199
-845965
-845893
-845900
-845724
-845717
-845574
-845513
-845342
-845243
-845150
-844992
-844783
-844646
-844522
-844491
-844271
-844199
-844113
-844293
-844757
-845109
-845029
-844742
-844479
-844421
-844389
-844443
-844219
-844018
-843990
-843898
-843789
-843736
-843588
-843478
-843422
-843266
-843189
-843078
-842946
-842826
-842786
-842656
-842580
-842458
-842322
-842372
-842224
-842134
-841981
-842001
-842011
-842218
-842307
-842313
-842358
-842165
-842120
-842130
-842112
-842187
-842146
-842195
-842283
-842274
-842462
-842450
-842347
-842257
-842201
-842280
-842298
-842430
-842527
-842723
-842771
-842805
-842632
-842714
-842675
-842673
-842726
-842722
-842699
-842626
-842953
-842746
-842727
-842627
-842614
-842608
-842595
-842650
-842565
-842558
-842614
-842470
-842550
-842482
-842472
-842439
-842532
-842432
-842457
-842556
-842618
-842539
-842461
-842516
-842606
-842576
-842677
-842692
-842600
-842731
-842744
-842741
-842682
-842656
-842668
-842738
-842773
-842684
-842786
-842812
-842722
-842629
-842720
-842679
-842617
-842570
-842638
-842543
-842517
-842554
-842339
-842507
-842383
-842243
-842167
-842069
-842064
-842010
-841801
-841803
-841738
-841650
-841460
-841424
-841435
-841663
-842093
-842259
-842104
-842133
-842035
-842248
-842376
-842532
-842588
-842655
-842702
-842805
-842733
-842926
-842975
-842991
-842925
-843050
-843060
-843148
-843115
-843241
-843179
-843326
-843331
-843464
-843547
-843578
-843653
-843755
-843676
-843742
-843913
-843924
-844075
-844083
-844178
-844333
-844386
-844552
-844598
-844587
-844615
-844766
-844701
-844698
-844631
-844725
-844793
-844862
-845092
-845185
-845274
-845369
-845296
-845388
-845450
-845519
-845543
-845619
-845783
-845920
-846001
-846159
-846220
-846248
-846237
-846284
-846324
-846426
-846655
-846736
-846886
-847078
-847204
-847145
-847291
-847434
-847477
-847556
-847736
-847893
-847978
-848150
-848315
-848332
-848455
-848607
-848628
-848791
-848867
-849133
-849168
-849354
-849400
-849562
-849709
-849773
-849886
-850034
-850205
-850277
-850426
-850512
-850659
-850600
-850717
-850750
-850766
-850764
-850816
-850830
-850853
-850925
-850929
-850864
-850881
-850917
-850971
-850815
-850890
-850892
-850842
-850858
-850768
-850807
-850833
-850773
-850709
-850736
-850809
-850734
-850792
-850759
-850814
-850889
-850901
-850911
-851022
-851084
-851160
-851096
-851232
-851292
-851334
-851423
-851477
-851481
-851584
-851524
-851591
-851646
-851817
-851845
-851896
-851934
-852030
-852110
-852199
-852226
-852333
-852383
-852443
-852585
-852545
-852623
-852676
-852630
-852694
-852777
-852793
-852789
-853042
-853525
-853821
-854031
-853928
-853820
-853462
-853748
-853941
-854084
-854112
-854272
-854271
-854396
-854487
-854550
-854592
-854720
-854731
-854875
-854961
-855152
-855301
-855254
-855276
-855387
-855293
-855306
-855434
-855511
-855586
-855715
-855779
-855860
-855696
-855913
-855918
-856069
-856101
-856162
-856213
-856236
-856309
-856531
-856559
-856666
-856771
-856844
-856959
-856956
-857011
-857101
-857277
-857265
-857326
-857415
-857512
-857578
-857691
-857718
-857800
-857988
-857982
-858069
-858197
-858202
-858297
-858404
-858493
-858616
-858723
-858698
-858711
-858836
-858861
-859028
-859170
-859156
-859184
-859190
-859284
-859253
-859413
-859386
-859415
-859464
-859567
-859612
-859682
-859747
-859709
-859749
-859810
-859853
-860080
-860245
-860399
-860419
-860343
-860907
-860499
-860554
-860524
-860149
-860232
-860166
-860161
-859986
-860404
-859758
-859508
-859159
-858879
-858485
-858285
-857942
-857610
-857279
-856744
-856326
-855761
-855360
-854858
-854383
-853752
-853266
-852767
-852285
-851838
-851340
-850832
-850243
-849697
-849278
-848784
-848289
-847754
-847340
-846918
-846271
-845956
-845517
-845059
-844761
-844270
-843942
-843718
-843396
-843004
-842726
-842522
-842257
-841989
-841740
-841548
-841227
-841102
-840901
-840688
-840672
-840489
-840373
-840331
-840161
-840074
-839983
-839871
-839822
-839744
-839719
-839740
-839657
-839556
-839519
-839362
-839300
-839330
-839333
-839311
-839159
-839148
-839135
-839110
-839046
-838918
-838924
-838911
-838767
-838729
-838580
-838574
-838475
-838488
-838577
-838441
-838434
-838373
-838292
-838269
-838155
-838152
-838161
-838072
-838005
-837974
-838015
-837913
-837834
-837805
-837791
-837729
-837674
-837550
-837560
-837529
-837574
-837488
-837470
-837586
-837692
-837757
-837666
-837714
-837747
-837724
-837875
-837878
-837922
-837949
-838068
-838110
-838073
-838210
-838238
-838306
-838547
-838618
-838692
-838805
-838813
-838810
-838901
-838867
-838918
-838981
-839076
-839111
-839096
-839111
-839194
-839243
-839227
-839124
-839219
-839216
-839291
-839234
-839300
-839321
-839362
-839464
-839492
-839506
-839515
-839665
-839621
-839581
-839607
-839787
-839770
-839860
-839870
-839795
-839743
-839649
-839783
-839782
-839718
-839640
-839617
-839669
-839549
-839550
-839553
-839469
-839427
-839482
-839523
-839376
-839362
-839407
-839360
-839335
-839267
-839193
-839178
-839228
-839018
-839023
-839134
-839216
-839125
-839065
-839096
-839164
-839253
-839158
-839202
-839297
-839321
-839369
-839477
-839518
-839564
-839601
-839612
-839776
-839830
-839782
-839878
-840007
-839946
-839711
-839521
-839751
-839813
-839998
-839963
-839978
-840042
-840169
-840235
-840273
-840197
-840317
-840489
-840638
-840701
-840781
-840911
-840905
-840995
-841128
-841237
-841362
-841441
-841472
-841542
-841573
-841663
-841651
-841750
-841814
-841855
-841909
-841925
-842034
-842115
-842207
-842245
-842167
-842307
-842258
-842202
-842105
-842360
-842422
-842426
-842464
-842550
-842591
-842771
-842780
-842825
-843008
-843122
-843272
-843356
-843520
-843624
-843778
-843955
-844008
-844160
-844269
-844516
-844731
-844808
-844935
-845047
-844988
-844817
-844675
-845213
-845192
-845341
-846313
-845634
-845451
-845350
-845543
-845591
-845640
-845805
-845873
-845835
-846009
-846073
-846176
-846194
-846246
-846289
-846944
-846618
-846461
-846491
-846628
-846609
-846655
-846628
-846727
-847295
-846991
-846898
-846873
-846906
-846967
-846860
-847028
-846954
-846932
-846921
-846968
-846915
-846858
-846923
-847043
-847026
-847061
-847251
-847333
-847414
-847416
-847532
-847658
-847686
-847790
-847921
-847986
-848093
-848185
-848298
-848472
-848595
-848749
-848882
-848965
-849074
-849273
-849398
-849487
-849627
-849668
-849709
-849756
-849856
-850023
-849979
-850042
-850056
-850198
-850269
-850368
-850323
-850338
-850361
-850616
-850671
-850734
-850882
-851035
-851087
-851166
-851231
-851390
-851415
-851568
-851642
-851695
-851815
-851996
-851989
-852084
-852244
-852345
-852376
-852394
-852599
-852716
-852832
-852916
-853271
-853846
-854619
-855088
-855347
-855426
-855877
-855876
-855919
-855936
-856004
-856052
-856614
-856664
-856834
-857051
-857137
-857153
-857348
-857415
-857490
-857626
-857709
-857904
-857932
-858112
-858154
-858193
-858388
-858565
-858517
-858650
-858619
-858719
-858869
-858929
-859146
-859208
-859187
-859324
-859498
-859527
-859405
-859738
-859883
-860024
-860152
-860945
-860509
-860500
-860663
-860864
-860880
-861019
-861074
-861152
-861286
-861337
-861533
-861598
-861570
-861646
-861627
-861745
-861784
-861905
-861754
-861761
-861685
-861765
-861732
-861574
-861405
-861179
-860994
-860808
-860616
-860247
-859937
-859498
-859257
-858861
-858403
-857899
-857360
-856861
-856270
-855794
-855157
-854559
-853788
-853348
-852732
-852082
-851628
-851012
-850311
-849749
-849081
-848462
-847866
-847283
-846726
-846201
-845652
-845062
-844603
-844124
-843634
-843208
-842742
-842265
-842049
-841749
-841500
-841134
-841286
-841234
-841153
-840972
-840662
-840435
-840304
-840157
-840062
-839931
-839827
-839819
-839850
-839721
-839654
-839614
-839440
-839443
-839426
-839531
-839479
-839475
-839370
-839430
-839353
-839285
-839170
-839207
-839181
-839091
-839125
-839024
-839040
-838973
-838837
-838783
-838709
-838705
-838598
-838733
-838775
-838685
-838605
-838682
-838736
-838666
-838555
-838563
-838523
-838530
-838553
-838440
-838396
-838475
-838384
-838408
-838414
-838334
-838318
-838342
-838237
-838189
-838158
-838248
-838214
-838284
-838378
-838259
-838269
-838387
-838435
-838377
-838553
-838475
-838614
-838720
-838735
-838840
-838864
-839022
-838967
-838886
-839102
-839097
-839112
-839163
-839250
-839282
-839462
-839490
-839556
-839650
-839788
-839759
-839843
-839989
-840014
-840035
-840234
-840161
-840220
-840295
-840281
-840394
-840397
-840405
-840434
-840435
-840475
-840525
-840490
-840470
-840459
-840564
-840462
-840245
-840440
-840456
-840437
-840501
-840550
-840505
-840590
-840473
-840500
-840533
-840499
-840493
-840534
-840575
-840538
-840561
-840611
-840714
-840521
-840503
-840584
-840623
-840664
-840768
-840682
-840756
-840828
-840840
-840914
-840911
-840908
-840938
-840961
-840936
-840968
-841090
-841114
-841047
-841159
-841738
-841440
-841337
-841328
-841466
-841587
-841642
-841717
-841664
-841717
-841786
-841863
-841974
-842012
-842026
-842085
-842166
-842173
-842230
-842322
-842482
-842517
-842591
-842653
-842646
-842849
-842825
-843026
-843078
-843155
-843195
-843223
-843391
-843434
-843533
-843676
-843665
-843761
-843838
-843941
-844084
-844170
-844155
-844275
-844238
-844444
-844576
-844740
-844711
-844762
-844876
-844903
-845077
-845132
-845286
-845321
-845337
-845418
-845465
-845614
-845596
-845715
-845836
-846001
-846022
-846036
-846108
-846201
-846225
-846327
-846311
-846397
-846580
-846641
-846579
-846671
-846797
-846763
-846923
-847005
-847023
-847039
-847212
-847347
-847349
-847411
-847494
-847590
-847581
-847716
-847719
-847861
-847941
-848058
-848082
-848248
-848304
-848406
-848347
-848488
-848628
-848631
-848701
-848751
-848736
-848712
-848869
-848820
-849254
-849106
-848972
-849055
-849142
-849248
-849255
-849310
-849371
-849187
-849410
-849931
-849680
-849595
-849641
-849638
-849725
-849770
-849837
-849821
-849841
-849918
-850038
-850014
-850090
-850135
-850131
-850196
-850262
-850297
-850338
-850400
-850406
-850453
-850485
-850544
-850568
-850597
-850758
-850828
-850793
-850829
-850919
-850908
-851009
-851139
-851128
-851200
-851286
-851368
-851259
-851270
-851295
-851344
-851419
-851581
-851524
-851533
-851547
-851606
-851657
-851629
-851649
-851722
-851764
-851808
-851933
-851901
-852029
-852047
-852159
-852051
-852102
-852135
-851924
-852286
-852268
-852262
-852347
-852410
-852473
-852542
-852521
-852602
-852745
-852705
-852761
-852759
-852971
-853105
-853171
-853180
-853255
-853411
-853536
-853692
-853836
-853928
-853982
-854025
-854104
-854224
-854249
-854447
-854486
-854632
-854739
-854768
-854947
-855047
-855099
-855208
-855463
-855480
-855541
-855618
-855745
-855818
-855912
-855974
-856130
-856018
-856117
-856113
-856256
-856234
-856274
-856385
-856349
-856490
-856463
-856546
-856606
-856540
-856572
-856625
-856661
-856692
-856719
-856740
-856590
-856572
-856577
-856661
-856652
-856594
-856676
-856503
-856593
-856671
-856712
-856815
-856798
-856706
-856933
-856994
-856974
-857129
-857209
-857130
-857194
-857169
-857211
-857155
-857102
-857006
-856839
-856791
-856601
-856465
-856151
-855926
-855619
-855479
-855066
-854695
-854397
-854076
-853685
-853218
-852679
-852191
-851743
-851222
-850919
-850347
-849927
-849329
-848857
-848193
-847684
-847173
-846621
-846163
-845733
-845237
-844774
-844266
-843911
-843441
-843116
-842670
-842229
-841917
-841537
-841201
-840916
-840688
-840350
-840237
-840063
-839824
-839629
-839440
-839372
-839296
-839175
-839060
-838964
-838854
-838733
-838581
-838283
-838337
-838333
-838203
-838208
-838305
-838148
-838037
-838089
-837990
-838078
-838105
-838117
-838188
-838125
-838238
-838217
-838183
-838099
-838144
-838230
-838093
-838082
-838035
-838159
-838081
-838171
-838096
-838022
-838041
-838812
-838274
-838038
-837928
-837872
-838001
-837907
-837920
-837840
-837781
-837707
-837816
-837811
-837700
-837617
-837530
-837474
-837439
-837456
-837372
-837370
-837303
-837226
-837150
-837097
-837081
-837109
-837053
-837122
-837010
-837057
-836985
-837046
-837002
-837053
-837040
-837074
-837057
-837094
-837146
-837163
-837304
-837266
-837280
-837425
-837515
-837539
-837573
-837615
-837625
-837692
-837804
-837829
-837899
-837927
-837994
-838016
-838489
-838237
-838130
-838145
-838229
-838207
-838196
-838182
-838225
-838184
-838224
-838208
-838119
-838097
-838013
-838095
-837984
-837885
-837953
-837871
-837806
-837709
-837697
-837642
-837611
-837586
-837488
-837429
-837432
-837350
-837314
-837279
-837174
-837125
-837148
-837048
-836936
-837346
-837132
-837027
-837005
-836854
-836889
-836921
-836940
-836873
-836851
-836845
-837020
-836979
-837098
-837041
-837038
-837070
-837160
-837225
-837179
-837315
-837365
-837352
-837420
-837451
-837498
-837440
-837676
-837737
-837711
-837842
-837737
-838007
-838033
-838155
-838242
-838323
-838373
-838431
-838474
-838561
-838717
-838709
-838813
-838878
-838836
-839000
-838975
-839094
-839143
-839267
-839373
-839483
-839523
-839613
-839599
-839718
-839789
-839995
-840231
-840469
-840528
-840551
-840553
-840623
-840693
-840750
-840900
-841069
-841102
-841177
-841387
-841446
-841493
-841553
-841718
-841764
-841873
-841853
-841940
-842012
-842177
-842197
-842370
-842462
-842568
-842616
-842629
-842720
-842858
-842878
-842980
-843012
-843123
-843138
-843257
-843473
-843420
-843553
-843606
-843686
-843736
-843865
-843991
-844023
-844192
-844349
-844426
-844472
-844629
-844606
-844760
-844788
-844926
-844955
-844940
-845024
-845084
-845183
-845257
-845352
-845464
-845517
-845626
-845642
-845622
-845763
-845882
-845867
-845864
-845894
-845985
-846155
-846259
-846216
-846351
-846307
-846496
-846549
-846622
-846653
-846834
-846926
-846885
-846889
-846883
-847006
-847034
-847238
-847219
-847198
-847383
-847438
-847486
-847410
-847464
-847590
-847704
-847871
-847894
-847910
-847955
-848071
-848187
-848272
-848113
-848399
-848542
-848706
-848785
-848859
-848842
-849038
-849078
-849231
-849223
-849315
-849366
-849502
-849465
-849470
-849663
-849686
-849734
-849801
-849979
-850000
-850213
-850218
-850259
-850412
-850404
-850486
-850551
-850612
-850623
-850608
-850714
-850748
-850749
-850850
-850995
-851019
-851040
-851086
-851206
-851242
-851342
-851391
-851493
-851592
-851713
-851725
-851865
-851923
-851988
-852016
-852080
-852155
-852295
-852434
-852576
-852708
-852750
-852798
-852917
-852910
-853027
-853128
-853231
-853273
-853378
-853430
-853540
-853683
-853682
-853838
-853958
-853998
-854087
-854211
-854289
-854436
-854534
-854580
-854678
-854764
-854899
-854861
-854929
-855094
-855203
-855383
-855372
-855452
-855519
-855697
-855722
-855762
-855847
-855832
-856100
-856097
-856927
-856467
-856428
-856458
-856547
-856712
-856819
-856788
-857002
-857083
-857171
-857185
-857207
-857375
-857497
-857608
-857722
-857838
-857919
-857957
-858148
-858058
-858258
-858380
-858400
-858518
-858614
-858509
-858611
-858580
-858585
-858570
-858631
-858485
-858442
-858355
-857963
-857959
-857898
-857658
-857339
-857067
-856804
-856530
-856164
-855676
-855235
-854821
-854350
-853905
-853409
-852832
-852351
-851748
-850896
-850508
-850023
-849450
-848971
-848345
-847767
-847255
-846607
-846125
-845609
-845079
-844545
-844298
-843767
-843378
-842930
-842502
-842026
-841688
-841310
-840976
-840686
-840367
-840144
-839841
-839571
-839313
-839088
-838879
-838792
-838581
-838512
-838398
-838284
-838227
-838019
-838202
-837963
-837726
-837659
-837490
-837525
-837362
-837377
-837276
-837135
-837172
-837112
-837024
-836908
-836912
-836833
-836824
-836706
-836718
-836738
-836546
-836528
-836836
-836565
-836338
-836179
-836155
-836147
-836179
-836461
-836087
-835990
-835866
-835912
-835696
-835699
-835284
-835512
-835452
-835449
-835291
-835284
-835182
-835148
-834805
-834847
-834846
-834864
-834839
-834803
-834818
-834814
-834796
-834693
-834616
-834557
-834503
-834515
-834428
-834469
-834356
-834436
-834433
-834519
-834546
-834450
-834479
-834425
-834385
-834451
-834498
-834514
-834674
-834658
-834719
-834767
-834731
-834896
-834910
-835021
-835109
-835101
-835144
-835066
-835206
-835213
-835397
-835274
-835315
-835309
-835285
-835375
-835353
-835407
-835462
-835543
-835509
-835645
-835679
-835689
-835611
-835527
-835533
-835552
-835535
-835520
-835539
-835346
-835545
-835578
-835347
-835535
-835519
-835512
-835477
-835482
-835416
-835425
-835386
-835338
-835274
-835266
-835246
-835352
-835313
-835215
-835320
-835182
-835186
-834970
-835238
-835165
-835195
-835164
-835214
-835226
-835346
-835260
-835282
-835275
-835375
-835388
-835983
-835538
-835560
-835482
-835570
-835666
-835743
-835808
-836627
-836148
-836023
-836080
-836063
-836223
-836167
-836263
-836367
-836490
-836423
-836513
-836548
-836626
-836810
-836788
-836836
-836887
-836968
-837175
-837210
-837206
-837403
-837476
-837547
-837721
-837810
-837900
-837899
-838131
-838119
-838145
-838205
-838353
-838571
-838708
-838679
-838837
-838926
-838980
-839015
-839089
-839199
-839448
-839520
-839512
-839622
-839676
-839744
-839871
-840004
-840021
-840099
-840226
-840334
-840354
-840508
-840496
-840660
-840781
-840866
-841008
-841062
-841171
-841264
-841363
-841532
-841548
-841595
-841667
-841773
-841803
-841952
-841974
-842024
-842082
-842241
-842341
-842361
-842402
-842475
-842493
-842558
-842655
-842783
-842884
-842870
-842879
-843050
-843124
-843095
-843160
-843222
-843351
-843442
-843509
-843724
-843588
-843609
-843672
-843758
-843894
-844009
-844124
-844068
-844157
-844186
-844288
-844360
-844425
-844396
-844502
-844680
-844668
-844761
-844840
-844818
-844869
-844987
-845028
-845898
-845415
-845296
-845348
-845359
-845402
-845509
-845654
-845721
-845785
-845816
-845850
-845928
-846098
-846079
-846198
-846322
-846294
-846443
-846496
-846427
-846515
-846592
-846730
-847393
-847000
-846914
-846906
-847014
-847064
-847103
-847113
-847178
-847316
-847358
-847462
-847538
-848292
-847942
-847765
-847810
-847781
-847959
-847984
-848069
-848066
-848104
-848170
-848254
-848417
-848456
-848536
-848621
-848793
-848873
-848910
-848941
-849147
-849085
-849222
-849206
-849436
-849458
-849507
-849495
-849701
-849759
-849867
-849963
-849994
-850050
-850021
-850122
-850242
-850297
-850298
-850536
-850681
-850763
-850765
-850865
-850910
-850994
-851171
-851211
-851353
-851433
-851591
-851640
-851664
-851715
-851677
-851892
-851926
-851993
-852053
-852216
-852246
-852312
-852457
-852501
-852638
-852681
-852670
-852703
-852858
-852867
-852935
-853661
-854125
-854831
-855094
-855354
-855548
-855575
-855612
-855708
-855831
-856011
-856563
-856705
-856846
-856921
-856896
-856971
-857068
-857147
-857092
-857119
-857146
-857166
-857025
-857056
-856927
-856725
-856527
-856361
-856359
-855916
-855479
-855059
-854811
-854434
-853990
-853537
-852971
-852531
-851973
-851535
-850867
-850341
-849710
-849101
-848555
-847879
-847361
-846790
-846124
-845619
-844915
-844414
-843843
-843358
-842894
-842378
-841970
-841687
-841170
-840830
-840500
-840176
-839887
-839628
-839407
-839029
-838840
-838726
-838463
-838210
-838088
-837932
-837731
-837622
-837479
-837328
-837347
-837288
-837123
-837082
-837129
-837097
-837049
-837002
-836891
-836913
-836941
-836932
-836851
-836819
-836758
-836732
-837225
-836896
-836817
-836729
-836735
-836737
-836645
-836679
-836601
-836599
-836583
-836529
-836583
-836565
-836569
-836544
-836432
-836472
-836338
-836282
-836314
-836265
-836228
-836181
-836034
-835950
-835909
-835819
-835740
-835736
-835591
-835550
-835523
-835446
-835410
-835351
-835319
-835182
-835188
-834998
-835079
-835109
-835100
-835049
-835019
-835045
-835023
-834947
-835001
-835064
-835011
-835024
-835093
-835124
-835102
-835121
-835178
-835138
-835121
-834913
-835145
-835312
-835332
-835279
-835409
-835479
-835473
-835603
-835611
-835658
-835598
-835724
-835725
-835738
-835812
-835937
-836032
-835997
-836053
-836004
-836120
-836046
-836115
-836204
-836259
-836257
-836200
-836248
-836265
-836221
-836303
-837013
-836410
-836234
-836235
-836111
-836158
-836064
-835967
-836031
-836034
-835947
-835938
-835847
-835838
-836378
-835861
-835807
-835628
-835711
-835629
-835628
-835570
-835508
-835509
-835588
-835615
-835511
-835645
-835438
-835455
-835431
-835512
-835405
-835450
-835414
-835336
-835454
-835483
-835477
-835531
-835567
-835575
-835628
-835538
-835609
-835547
-835917
-835713
-835666
-835723
-835683
-835586
-835627
-835647
-835751
-835682
-835798
-835853
-835843
-835888
-836045
-835975
-836070
-836052
-836110
-836162
-836170
-836330
-836279
-836337
-836445
-836512
-836557
-836788
-836716
-836858
-836971
-836986
-837167
-837213
-837244
-837253
-837335
-837422
-837499
-837475
-837502
-837676
-837694
-837840
-837698
-837824
-837885
-837984
-838107
-838128
-838148
-838220
-838216
-838282
-838295
-838432
-838549
-838453
-838625
-838594
-838669
-838782
-838905
-838872
-838926
-838997
-839105
-839144
-839246
-839248
-839287
-839297
-839272
-839369
-839341
-839355
-839502
-839561
-839584
-839563
-839588
-839600
-839683
-839780
-839831
-839889
-839964
-840004
-840021
-839999
-840140
-840125
-840237
-840250
-840235
-840348
-840371
-840513
-840626
-840692
-840777
-840774
-840816
-840880
-840842
-841053
-841119
-841126
-841110
-841186
-841147
-841217
-841309
-841360
-841349
-841356
-841491
-841508
-841460
-841548
-841510
-841567
-841593
-841551
-841647
-841674
-841696
-841759
-841898
-841877
-841984
-841882
-842027
-842163
-842128
-842133
-842154
-842311
-842266
-842316
-842299
-842304
-842418
-842563
-842559
-842610
-842709
-842792
-842733
-842779
-842788
-842908
-842902
-842939
-842985
-843014
-843162
-843231
-843217
-843130
-843274
-843192
-843329
-843273
-843374
-843304
-843323
-843462
-843195
-843324
-843389
-843442
-843530
-843516
-843450
-843575
-843608
-843606
-844006
-843616
-843565
-843516
-843632
-843554
-843634
-843659
-843731
-843631
-843636
-843742
-843729
-843778
-843691
-843708
-843775
-843823
-843781
-843827
-843862
-843776
-843674
-843804
-843882
-843830
-843951
-844025
-844015
-843980
-843994
-844020
-844001
-844084
-844065
-844059
-844156
-844250
-844221
-844192
-844623
-844384
-844278
-844326
-844278
-844247
-844035
-844256
-844313
-844346
-844443
-844374
-844452
-844380
-844467
-844529
-844520
-844642
-844618
-844718
-844632
-844756
-844913
-844897
-844942
-844886
-844866
-844862
-844830
-844789
-844617
-844356
-844443
-844306
-844129
-843835
-843624
-843326
-842972
-842650
-842301
-841971
-841620
-840820
-840659
-840080
-839565
-839142
-838571
-837984
-837268
-836674
-836170
-835665
-834979
-834361
-833845
-833239
-832585
-831871
-831411
-830794
-830274
-829699
-829158
-828744
-828269
-827931
-827405
-826972
-826601
-826162
-825834
-825580
-825284
-824904
-824634
-824422
-824222
-823848
-823637
-823555
-823440
-823284
-823040
-822805
-822646
-822461
-822387
-822163
-822027
-821957
-821912
-821812
-821667
-821668
-821446
-821308
-821201
-821246
-821146
-821005
-820931
-820851
-820740
-820633
-820455
-820423
-820290
-820041
-819953
-819711
-819521
-819397
-819244
-819024
-818937
-818800
-818553
-818360
-818242
-818117
-817998
-817722
-817648
-817519
-817457
-817358
-817314
-817225
-817034
-816858
-816782
-816752
-816604
-816447
-816318
-816242
-816191
-815983
-815886
-815843
-815734
-815807
-815682
-815508
-815542
-815345
-815217
-815213
-815052
-814936
-814864
-814916
-814882
-814747
-814874
-814849
-814870
-814788
-814769
-814728
-814689
-814620
-814624
-814766
-814672
-814710
-814685
-814700
-814854
-814824
-814857
-814922
-814946
-815113
-815154
-815188
-815248
-815186
-815315
-815305
-815372
-815353
-815426
-815579
-815541
-815575
-815565
-815583
-815646
-815690
-815653
-815680
-815622
-815578
-815618
-815513
-815373
-815077
-815229
-815210
-815198
-815110
-815050
-815081
-814961
-814982
-814862
-814755
-814797
-814814
-814692
-814573
-814508
-814470
-814540
-814497
-814389
-814457
-814510
-814365
-814524
-814462
-814473
-814482
-814435
-814355
-814380
-814278
-814244
-814236
-814325
-814111
-814285
-814201
-814192
-814201
-814735
-814253
-814152
-814167
-814114
-814147
-814133
-814162
-814023
-814019
-813934
-813694
-813568
-813555
-813447
-813688
-813771
-813858
-813864
-813875
-813844
-813737
-813893
-813983
-813994
-814139
-814293
-814509
-814481
-814658
-814868
-815095
-815302
-815487
-815614
-815765
-815746
-815759
-815884
-815872
-815823
-815621
-815551
-815623
-815670
-815616
-815856
-815934
-816086
-816209
-816259
-816202
-816112
-816109
-816336
-816367
-816384
-816328
-816419
-816410
-816535
-816591
-816650
-816708
-816689
-816801
-816749
-816922
-817028
-817280
-817435
-817445
-817540
-817576
-817626
-817675
-817713
-817732
-817729
-817799
-817796
-817834
-817853
-817976
-817964
-818099
