PPG
-453457
-452150
-451371
-452185
-453573
-453645
-452409
-451615
-452319
-453718
-453785
-452639
-451803
-452591
-453940
-454057
-452791
-452060
-452808
-454194
-454316
-453088
-452299
-453018
-454414
-454538
-453390
-452589
-453321
-454706
-454898
-453743
-452872
-453641
-455076
-455129
-453981
-453190
-453915
-455313
-455455
-454212
-453405
-454178
-455538
-455736
-454497
-453660
-454329
-455760
-455882
-454658
-453927
-454634
-456036
-456228
-454964
-454216
-454943
-456379
-456495
-455264
-454488
-455259
-456484
-456753
-455563
-454727
-455462
-456821
-457025
-455735
-454937
-455638
-457105
-457199
-456026
-455168
-455858
-457263
-457417
-456177
-455374
-456022
-457415
-457481
-456303
-455322
-456067
-457343
-457426
-456192
-455351
-455888
-457170
-457247
-455925
-455005
-455520
-456597
-456692
-455297
-454337
-454763
-455965
-455957
-454495
-453442
-453848
-454991
-454931
-453509
-452363
-452764
-453902
-453905
-452354
-451339
-451747
-452942
-452912
-451482
-450381
-450793
-451888
-451952
-450581
-449534
-449956
-451223
-451171
-450149
-448941
-449327
-450538
-450559
-449195
-448237
-448764
-450052
-448816
-447845
-448398
-449684
-449760
-448414
-447429
-448050
-449340
-449484
-448170
-447159
-447775
-449073
-449161
-447890
-446889
-447498
-448872
-448985
-447655
-446769
-447269
-448616
-448639
-447495
-446547
-447108
-448442
-448546
-447238
-446291
-446872
-448189
-448346
-447081
-446102
-446629
-447908
-448099
-446856
-445871
-446423
-447669
-447796
-446516
-445485
-446049
-447384
-447513
-446196
-445250
-445725
-447075
-447115
-445918
-444878
-445405
-446668
-446919
-445590
-444482
-445077
-446402
-446650
-445408
-444406
-444967
-446483
-446598
-445356
-444444
-444994
-446377
-446608
-445478
-444483
-445156
-446623
-446874
-445691
-444814
-445389
-446833
-447093
-445956
-445027
-445648
-447085
-447396
-446199
-445355
-445911
-447296
-447679
-446475
-445596
-446150
-447510
-447790
-446675
-445711
-446331
-447644
-447876
-446713
-445766
-446347
-447690
-448000
-446791
-445875
-446409
-447678
-447978
-446840
-445892
-446468
-447710
-448017
-446861
-445909
-446423
-447786
-448050
-446974
-445913
-446489
-447871
-448152
-447069
-446067
-446617
-447913
-448218
-447065
-446119
-446707
-448120
-448383
-447255
-446349
-446889
-448204
-448596
-447423
-446431
-447115
-448437
-448693
-447642
-446676
-447257
-448645
-449030
-448008
-446979
-447512
-448917
-449215
-448064
-447196
-447659
-449038
-449485
-448378
-447388
-447945
-449345
-449613
-448546
-447550
-448105
-449553
-449941
-448720
-447846
-448391
-449751
-450092
-449007
-448114
-448680
-450013
-450417
-449291
-448281
-448868
-450310
-450571
-449455
-448535
-449034
-450445
-450759
-449733
-448692
-449300
-450716
-450955
-449963
-449000
-449543
-450920
-451242
-450137
-449191
-449825
-451144
-451595
-450445
-449516
-450087
-451439
-451844
-450763
-449747
-450262
-451699
-452152
-451054
-450001
-450601
-452067
-452424
-451253
-450268
-450775
-452200
-452646
-451519
-450587
-451045
-452522
-452822
-451782
-450776
-451273
-452696
-453195
-452004
-450973
-451583
-452970
-453328
-452153
-451260
-451754
-453172
-453597
-452493
-451709
-452137
-453427
-453850
-452727
-451726
-452242
-453597
-454024
-452912
-451901
-452449
-453874
-454235
-453167
-452127
-452639
-454043
-454431
-453342
-452364
-452824
-454190
-454652
-453576
-452558
-453019
-454425
-454913
-453817
-452777
-453280
-454644
-455092
-453934
-452927
-453430
-454789
-455219
-454137
-453090
-453413
-454879
-455442
-454294
-453239
-453627
-455068
-455542
-454423
-453330
-453866
-455206
-455644
-454571
-453609
-454025
-455427
-455835
-454757
-453791
-454239
-455632
-456039
-454884
-453832
-454324
-455747
-456234
-455111
-453988
-454508
-455880
-456404
-455326
-454211
-454686
-456033
-456550
-455462
-454516
-454946
-456311
-456818
-455735
-454710
-455270
-456655
-457076
-456022
-454999
-455542
-456831
-457396
-456365
-455288
-455768
-457100
-457741
-456700
-455947
-456155
-457463
-457989
-456946
-455842
-456262
-457702
-458213
-457160
-456074
-456509
-457904
-458430
-457371
-456327
-456759
-458140
-458606
-457631
-456465
-456940
-458289
-458761
-457750
-456711
-457146
-458525
-459013
-457984
-456905
-457345
-458689
-459239
-458101
-457068
-457459
-458872
-459421
-458357
-457269
-457716
-459117
-459670
-458674
-457556
-458001
-459427
-459878
-458842
-457775
-458252
-459615
-460093
-459030
-457995
-458469
-459839
-460385
-459329
-458274
-458705
-460025
-460604
-459632
-458575
-459277
-460408
-460941
-459838
-458730
-459246
-460688
-461150
-460102
-458901
-459417
-460832
-461341
-460333
-459272
-459606
-460974
-461521
-460444
-459337
-459753
-461092
-461647
-460520
-459362
-459757
-460968
-461392
-460212
-459026
-459309
-460557
-460879
-459700
-458429
-458645
-459659
-460158
-458926
-457517
-457707
-458762
-459112
-457841
-456532
-456577
-457775
-458102
-456730
-455402
-455579
-456689
-457080
-455757
-454449
-454398
-455654
-456070
-454800
-453524
-453666
-454898
-455347
-454124
-452819
-453032
-454207
-454661
-453511
-452201
-452419
-453753
-454217
-453121
-451847
-452175
-453433
-453928
-452780
-451624
-451833
-453235
-453688
-452561
-451338
-451719
-452857
-453442
-452423
-451295
-451501
-452818
-453283
-452265
-451118
-451371
-452601
-453036
-452047
-450839
-451102
-452438
-452916
-451843
-450668
-450864
-452205
-452672
-451603
-450435
-450603
-451858
-452406
-451330
-450077
-450292
-451608
-452105
-450986
-449773
-450034
-451309
-451890
-450786
-449566
-449693
-451057
-451591
-450501
-449289
-449521
-450865
-451382
-450338
-449156
-449426
-450706
-451261
-450209
-449001
-449287
-450599
-451151
-450212
-448979
-449291
-450530
-451172
-450211
-449050
-449257
-450561
-451231
-450331
-449210
-449477
-450819
-451518
-450616
-449422
-449795
-451121
-451744
-450883
-449735
-450088
-451492
-452188
-451259
-450137
-450501
-451774
-452455
-451536
-450439
-450736
-452080
-452712
-451757
-450645
-450990
-452385
-453037
-452070
-450913
-451176
-452548
-453148
-452224
-451095
-451390
-452592
-453279
-452386
-451207
-451368
-452626
-453296
-452383
-451241
-451492
-452747
-453568
-452389
-451113
-451383
-452702
-453375
-452305
-451193
-451368
-452732
-453423
-452390
-451194
-451454
-452740
-453446
-452372
-451214
-451481
-452738
-453445
-452485
-451310
-451524
-452872
-453474
-452642
-451490
-451631
-452999
-453647
-452669
-451552
-451795
-453126
-453779
-452894
-451623
-451862
-453191
-453899
-453000
-451785
-452027
-453363
-454114
-453126
-451942
-452083
-453487
-454155
-453290
-452157
-452337
-453627
-454426
-453487
-452251
-452542
-453864
-454556
-453704
-452453
-452694
-453987
-454700
-453812
-452613
-452893
-454228
-454998
-454048
-452907
-453048
-454416
-455088
-454272
-452999
-453219
-454605
-455318
-454389
-453187
-453409
-454727
-455541
-454637
-453454
-453693
-454954
-455743
-454735
-453638
-453824
-455270
-455898
-454992
-453860
-454102
-455369
-456145
-455242
-454059
-454275
-455561
-456402
-455450
-454240
-454432
-455763
-456544
-455602
-454516
-456734
-455841
-456159
-456946
-455040
-456382
-457149
-455136
-456493
-457264
-456334
-455417
-456731
-456518
-455350
-457572
-456703
-455493
-455678
-456946
-457805
-456933
-455641
-455862
-457195
-457988
-457139
-455892
-456071
-457294
-458166
-457321
-456097
-456292
-457630
-458358
-457520
-456266
-456394
-457697
-458514
-457621
-456456
-456630
-457896
-458648
-457860
-456644
-456757
-458064
-458970
-458064
-456752
-456885
-458239
-459073
-458206
-456998
-457012
-458305
-459127
-458241
-457092
-457298
-458647
-459813
-458645
-457417
-457604
-458808
-459604
-458815
-457616
-457722
-458962
-459894
-459096
-457827
-457887
-459182
-460044
-459177
-458027
-458145
-459453
-460249
-459450
-458190
-458415
-459676
-460564
-459627
-458276
-458546
-459889
-460782
-459968
-458666
-458835
-460104
-461004
-460132
-458838
-459080
-460359
-461236
-460383
-459102
-459256
-460573
-461479
-460695
-459417
-459607
-460924
-461769
-460914
-459608
-459830
-461152
-461998
-461526
-460078
-460105
-461366
-462272
-461415
-460201
-460305
-461584
-462549
-461748
-460408
-460534
-461784
-462760
-461841
-460636
-460719
-462106
-463000
-462162
-460953
-461035
-462335
-463155
-462398
-461073
-461205
-462492
-463448
-462646
-461395
-461453
-462713
-463613
-462860
-461595
-461686
-462986
-463876
-463085
-461792
-461898
-463190
-464051
-463257
-461971
-462055
-463359
-464198
-463475
-462175
-462401
-463588
-464444
-463942
-462389
-462458
-463666
-464609
-463790
-462554
-462628
-463848
-464772
-464000
-462776
-462792
-464018
-464886
-464016
-462757
-462729
-463954
-464797
-463871
-462520
-462504
-463618
-464398
-463479
-462003
-461856
-462915
-463598
-462572
-461068
-460896
-461888
-462530
-461478
-459988
-459780
-460770
-461338
-460760
-458968
-458665
-459631
-460354
-459390
-457733
-457586
-458576
-459361
-458329
-456819
-456616
-457720
-458335
-457450
-456003
-455856
-456893
-457696
-456782
-455437
-455263
-456374
-457177
-456251
-454901
-454717
-455877
-456771
-455878
-454470
-454409
-455450
-456355
-455538
-454124
-454107
-455245
-456092
-455276
-453936
-453871
-455037
-455815
-455069
-453715
-453683
-454906
-455683
-454867
-453516
-454594
-455468
-454722
-453371
-453242
-454470
-455278
-454515
-453159
-453100
-454286
-455135
-454384
-452987
-452899
-454017
-454920
-454399
-452785
-452653
-453743
-454572
-453807
-452408
-452288
-453476
-454336
-453576
-452153
-452088
-453221
-454020
-453328
-451850
-451775
-453012
-453819
-453036
-451693
-451632
-452789
-453663
-452885
-451601
-451524
-452643
-453579
-452864
-451799
-451433
-452712
-453706
-452946
-451688
-451550
-452725
-453763
-453014
-451727
-451691
-452917
-453836
-453147
-451852
-451765
-452994
-453936
-453286
-451991
-451876
-453038
-454014
-453272
-451937
-451913
-452938
-454019
-453299
-452028
-451944
-453175
-454169
-453459
-452101
-452126
-453295
-454283
-453539
-452166
-452120
-453305
-454176
-453479
-452141
-452024
-453184
-454229
-453507
-452167
-451979
-453194
-454196
-453476
-452129
-452075
-453248
-454206
-453552
-452159
-452109
-453186
-454177
-453592
-452117
-451994
-453236
-454244
-453540
-452256
-452095
-453208
-454135
-453587
-452175
-452070
-453195
-454130
-453381
-452353
-452045
-453125
-454001
-453304
-451979
-451900
-453022
-454101
-453370
-452036
-451941
-453002
-454029
-453340
-451996
-451946
-453072
-454050
-453328
-452045
-451802
-453238
-454104
-453441
-452059
-451905
-452978
-454009
-453324
-451979
-451778
-452933
-453971
-453377
-451975
-451897
-453029
-454080
-453447
-452080
-451883
-453133
-454135
-453535
-452221
-452039
-453223
-454233
-453555
-452271
-452177
-453347
-454327
-453736
-452412
-452283
-453389
-454440
-453813
-452510
-452395
-453599
-454583
-453962
-452614
-452478
-453636
-454650
-454123
-452760
-452620
-453762
-454841
-454242
-452736
-452740
-453984
-454952
-454332
-453021
-452877
-454097
-455159
-454542
-453195
-453091
-454241
-455289
-454725
-453409
-453246
-454462
-455488
-454793
-453487
-453353
-454499
-455544
-455036
-453705
-453500
-454641
-455702
-455170
-453737
-453626
-454777
-455940
-455283
-454007
-453809
-455032
-456107
-455548
-454206
-454021
-455250
-456334
-455732
-454403
-454258
-455385
-456456
-455796
-454489
-454267
-455435
-456787
-455861
-454558
-454360
-455400
-456419
-455919
-454529
-454367
-455473
-456545
-455897
-454577
-454377
-455522
-456559
-455968
-454649
-454523
-455695
-456749
-456170
-454927
-454773
-456380
-457218
-456581
-455261
-455172
-456266
-457436
-456894
-455611
-455552
-456672
-457779
-457231
-455911
-455805
-456918
-458046
-457493
-456201
-456052
-457135
-458309
-457722
-456473
-456226
-457322
-458447
-457978
-456593
-456471
-457576
-458652
-458103
-456828
-456654
-457690
-458918
-458313
-456972
-456775
-457831
-458971
-458463
-457091
-456904
-458109
-459121
-458798
-457259
-456962
-458062
-459285
-458726
-457357
-457093
-458251
-459381
-458869
-457507
-457328
-458427
-459581
-459071
-457654
-457406
-458574
-459639
-459173
-457847
-457586
-458675
-459930
-459448
-458087
-457855
-458974
-460135
-459562
-458251
-458065
-459237
-460368
-459880
-458571
-458387
-459474
-460710
-460198
-458948
-458618
-459823
-461024
-460521
-459175
-459004
-460088
-461318
-460883
-459570
-459361
-460419
-461702
-461293
-459880
-459726
-460902
-461984
-461514
-460257
-460000
-461188
-462351
-461869
-460634
-460403
-461453
-462956
-462258
-460915
-460575
-461571
-462764
-462292
-460928
-460738
-461822
-462912
-462381
-460935
-460571
-461562
-462660
-462113
-460677
-460240
-461189
-462173
-461447
-460029
-459592
-460380
-461335
-460646
-459109
-458580
-459427
-460332
-459698
-458141
-457637
-458460
-459391
-458731
-457215
-456729
-457630
-458659
-458029
-456459
-455903
-456804
-457788
-457278
-455728
-455317
-456202
-457314
-456545
-455148
-454784
-455690
-456788
-456203
-454749
-454385
-455318
-456495
-455975
-454540
-454085
-455115
-456211
-455733
-454296
-453948
-454864
-456012
-455496
-454137
-453723
-454664
-455739
-455283
-453888
-453487
-454459
-455633
-455223
-453737
-453333
-454355
-455447
-454950
-453583
-453181
-454164
-455309
-454841
-453483
-453063
-454007
-455116
-454621
-453319
-452892
-453933
-455065
-454500
-453191
-452780
-453761
-454859
-454360
-452930
-452577
-453556
-454660
-454214
-452868
-452414
-453457
-454550
-454090
-452665
-452329
-453237
-454521
-454027
-452729
-452353
-453416
-454519
-454136
-452755
-452413
-453395
-454602
-454278
-452895
-452590
-453636
-454827
-454788
-453277
-452814
-453874
-455134
-454779
-453467
-453094
-454154
-455434
-455075
-453698
-453412
-454426
-455650
-455344
-453983
-453653
-454696
-455932
-455463
-454162
-453822
-454806
-456009
-455688
-454317
-453921
-455255
-456126
-455694
-454384
-453948
-455000
-456236
-455811
-454417
-453945
-454903
-456085
-455684
-454300
-453922
-454915
-456104
-455685
-454323
-453894
-454909
-456084
-455656
-454318
-453904
-454849
-456087
-455681
-454380
-453945
-454713
-456004
-455668
-454306
-453925
-454894
-456145
-455720
-454330
-453943
-454966
-456175
-455771
-454431
-454023
-455035
-456257
-455865
-454590
-454093
-455151
-456320
-456031
-454601
-454174
-455257
-456443
-456153
-454747
-454366
-455403
-456627
-456135
-454861
-454471
-455463
-456695
-456362
-455063
-454604
-455607
-456861
-456527
-455173
-454790
-455831
-457090
-456695
-455407
-454871
-455898
-457115
-456806
-455450
-455024
-456027
-457264
-457022
-455672
-455251
-456288
-457540
-457221
-455876
-455500
-456484
-457608
-457387
-456036
-455639
-456618
-457845
-457574
-456173
-455903
-456839
-458157
-457845
-456469
-456076
-457068
-458347
-458001
-456715
-456246
-457268
-458490
-458188
-456901
-456442
-457491
-458698
-458439
-457088
-456670
-457703
-458950
-458644
-457382
-456935
-457840
-459132
-458806
-457504
-457050
-458067
-459329
-459064
-457708
-457240
-458244
-459830
-459286
-457929
-457459
-458408
-459725
-459441
-458108
-457625
-458623
-459902
-459563
-458183
-457812
-458723
-460032
-459661
-458818
-458065
-458949
-460297
-459955
-458563
-458077
-459121
-460374
-460083
-458839
-458364
-459316
-460606
-460319
-458953
-458539
-459524
-460807
-460500
-459129
-458672
-459643
-460924
-460634
-459374
-458817
-459556
-459064
-460425
-461349
-461169
-459752
-459207
-460160
-461438
-461196
-459861
-459473
-460381
-461615
-461408
-460146
-459636
-460574
-461835
-461625
-460323
-459790
-460733
-462023
-461708
-460461
-459959
-460887
-462221
-461917
-460603
-460088
-461064
-462395
-462172
-460768
-460334
-461244
-462522
-462289
-460940
-460434
-461414
-462650
-462459
-461158
-460657
-461568
-462912
-462608
-461292
-460757
-461736
-462993
-462717
-461424
-460872
-461809
-463150
-462902
-461599
-461172
-462121
-463378
-463113
-461774
-461276
-462199
-463575
-463319
-462025
-461429
-462396
-463676
-463465
-462128
-461669
-462635
-463952
-463741
-462265
-461807
-462742
-464039
-463896
-462612
-462015
-463057
-464360
-464135
-462790
-462229
-463269
-464431
-464346
-463127
-462599
-463546
-464838
-464637
-463334
-462797
-463788
-465033
-464896
-463485
-462993
-463903
-465277
-465050
-463786
-463212
-464135
-465405
-465214
-463891
-463388
-464344
-465616
-465385
-464153
-463598
-464536
-465842
-465679
-464342
-463835
-464698
-466098
-465919
-464575
-463985
-464912
-466275
-466055
-464757
-464177
-465075
-466500
-466209
-464956
-464366
-465268
-466583
-466395
-465134
-464302
-465289
-466627
-466297
-464920
-464292
-465131
-466352
-465998
-464824
-463832
-464560
-465759
-465381
-463809
-462979
-463721
-464718
-464266
-462775
-461889
-462628
-463669
-463239
-461667
-460798
-461424
-462463
-462032
-460526
-459681
-460322
-461365
-460965
-459391
-458605
-459399
-460534
-460138
-458610
-457852
-458516
-459686
-459376
-457859
-457093
-457813
-458990
-458659
-457184
-456516
-457226
-458380
-458139
-456717
-455973
-456720
-457894
-457680
-456223
-455557
-456362
-457548
-457361
-455969
-455355
-456152
-457348
-457072
-455722
-455008
-455737
-456965
-456811
-455452
-454758
-455548
-456713
-456563
-455181
-454514
-455365
-456660
-456375
-454971
-454276
-455028
-456303
-456053
-454693
-454041
-454854
-456093
-455866
-454421
-453729
-454637
-455876
-455642
-454290
-453556
-454286
-455513
-455400
-453987
-453299
-454132
-455421
-455185
-453866
-453121
-453930
-455220
-455106
-453718
-453084
-453871
-455199
-455047
-453682
-453011
-453848
-455138
-454945
-453635
-453069
-453864
-455194
-455081
-453781
-453070
-454002
-455245
-455250
-453962
-453278
-454230
-455568
-455536
-454284
-453663
-454535
-455938
-455858
-454577
-453966
-454899
-456227
-456157
-454916
-454334
-455137
-456586
-456495
-455239
-454645
-455505
-456826
-456815
-455441
-454828
-455697
-457065
-456946
-455654
-455044
-455849
-457177
-457134
-455748
-455073
-455930
-457341
-457232
-455883
-455205
-455972
-457358
-457200
-455885
-455215
-456070
-457356
-457200
-455969
-455291
-456085
-457458
-457340
-456109
-455413
-456202
-457539
-457513
-456129
-455544
-456408
-457729
-457668
-456378
-455783
-456561
-457929
-457841
-456597
-455818
-456620
-458063
-457967
-456669
-456075
-456947
-458287
-458248
-456919
-456286
-457130
-458469
-458441
-457113
-456477
-457351
-458739
-458666
-457430
-456723
-457545
-458930
-458916
-457667
-456963
-457834
-459194
-459189
-457936
-457269
-458070
-459412
-459362
-458100
-457452
-458324
-459681
-459625
-458396
-457661
-458503
-459869
-459837
-458567
-457834
-458710
-460087
-460075
-458815
-458109
-458892
-460284
-460204
-458932
-458218
-459030
-460373
-460313
-459043
-458324
-459155
-460570
-460509
-459257
-458497
-459353
-460658
-460712
-459425
-458745
-459518
-460904
-460945
-459653
-458952
-459809
-461236
-461157
-459956
-459280
-460452
-461586
-461451
-460179
-459415
-460306
-461640
-461669
-460404
-459729
-460507
-461862
-461889
-460679
-459897
-460842
-462127
-462200
-461014
-460266
-461075
-462431
-462440
-461196
-460489
-461341
-462664
-462693
-461458
-460744
-461524
-462920
-462947
-461764
-460975
-461801
-463242
-463354
-462097
-461345
-462160
-463574
-463626
-461883
-462677
-464102
-464122
-462925
-462140
-462920
-464356
-464421
-463202
-462414
-463112
-464479
-464623
-463393
-462605
-463402
-464814
-464876
-463632
-462858
-463606
-465042
-465077
-463810
-463030
-463930
-465341
-465374
-464124
-463372
-464196
-465619
-465657
-464437
-463620
-464398
-465796
-465972
-464663
-463871
-464710
-466133
-466182
-464963
-464245
-464954
-466406
-466445
-465210
-464511
-465266
-466696
-466772
-465447
-464707
-465540
-466910
-467017
-465716
-464956
-465763
-467177
-467236
-466031
-465224
-465955
-467370
-467397
-466200
-465437
-466144
-467523
-467583
-466394
-465551
-466278
-467703
-467817
-466604
-465766
-466559
-467976
-468012
-466807
-466049
-466786
-468161
-468283
-467025
-466221
-466983
-468422
-468475
-467201
-466394
-467129
-468589
-468735
-467450
-466579
-467353
-468787
-468771
-467606
-466841
-467612
-468989
-469168
-467884
-467188
-467878
-469271
-469391
-468196
-467402
-468147
-469652
-469747
-468492
-467513
-468380
-469788
-469979
-468758
-467962
-468686
-470168
-470310
-469011
-468198
-469005
-470338
-470430
-469246
-468473
-469214
-470588
-470746
-469499
-468643
-469378
-470801
-470929
-469646
-468885
-469536
-470965
-470898
-469786
-469015
-469854
-471203
-471268
-470055
-469239
-469913
-471407
-471524
-470238
-469384
-469962
-471283
-471434
-470185
-469265
-469891
-471269
-471290
-469918
-468928
-469544
-470828
-470758
-469329
-468320
-468826
-470026
-469959
-468460
-467438
-467897
-469103
-469026
-467572
-466466
-466985
-468153
-468051
-466634
-465594
-466126
-467297
-467222
-465776
-464773
-465245
-466510
-466465
-465040
-464019
-464553
-465875
-465912
-464589
-463575
-464177
-465501
-465475
-464066
-463300
-463742
-465152
-465227
-463941
-462992
-463692
-464962
-464979
-463745
-462854
-463538
-464934
-465052
-463750
-462783
-463417
-464867
-464971
-463679
-462823
-463426
-464771
-464930
-463667
-462778
-463374
-464728
-464864
-463495
-462654
-463319
-464620
-464766
-463464
-462557
-463119
-464510
-464523
-463366
-462406
-462992
-464403
-464549
-463229
-462335
-462837
-464255
-464387
-463149
-462158
-462829
-464250
-464405
-463118
-462183
-462772
-464144
-464305
-463016
-462050
-462705
-464060
-464250
-463001
-462080
-462741
-464063
-464220
-463065
-462109
-462607
-464110
-464351
-463108
-462190
-462868
-464282
-464512
-463325
-462522
-463205
-464649
-464894
-463781
-462876
-463571
-465047
-465158
-464039
-463085
-463907
-465385
-465618
-464418
-463567
-464360
-465662
-466013
-464779
-463789
-464530
-466008
-466202
-465018
-464149
-464814
-466238
-466348
-465177
-464363
-465019
-466347
-466629
-465362
-464447
-465116
-466478
-466729
-465475
-464521
-465098
-466525
-466710
-465507
-464568
-465213
-466683
-466913
-465567
-464656
-465255
-466723
-466830
-465704
-464760
-465267
-466748
-466915
-465748
-464863
-465469
-466901
-467152
-465956
-465004
-465584
-467029
-467314
-466090
-465090
-465801
-467246
-467438
-466210
-465335
-465982
-467376
-467609
-466399
-465435
-466093
-467606
-467813
-466644
-465732
-466390
-467772
-468113
-466905
-465997
-466637
-468151
-468388
-467247
-466261
-466942
-468369
-468647
-467553
-466529
-467235
-468647
-468918
-468132
-466887
-467442
-468959
-469135
-467999
-467071
-467688
-469143
-469386
-468188
-467228
-467882
-469404
-469662
-468555
-467619
-468206
-469675
-469996
-468831
-467930
-468579
-470055
-470417
-469264
-468318
-468895
-470264
-470661
-469451
-468584
-469252
-470655
-470990
-469843
-468852
-469494
-470948
-471244
-470072
-469150
-469782
-471288
-471627
-470435
-469494
-470075
-471552
-471827
-470658
-469752
-470349
-471728
-472145
-470895
-470076
-470688
-472007
-472283
-471201
-470280
-470854
-472332
-472640
-471456
-470543
-471137
-472607
-472930
-471700
-470722
-471354
-472858
-473126
-472008
-471046
-471629
-473055
-473414
-472156
-471331
-471924
-473331
-473711
-472509
-471600
-472215
-473624
-473940
-472802
-471868
-472460
-473876
-474167
-473093
-472093
-472738
-474209
-474511
-473344
-472334
-472950
-474418
-474767
-473542
-472590
-473180
-474595
-474920
-473776
-472808
-473459
-474867
-475203
-474006
-473037
-473638
-475065
-475399
-474264
-473231
-473819
-475231
-475608
-474395
-473340
-473973
-475323
-475614
-474428
-473514
-473999
-475439
-475688
-474477
-473559
-474037
-475476
-475892
-474673
-473698
-474354
-475695
-476054
-474857
-473843
-474414
-475830
-476220
-475006
-474082
-474691
-476125
-476489
-475341
-474367
-474924
-476297
-476693
-475516
-474512
-475211
-476592
-477000
-475844
-474925
-475470
-476943
-477297
-476176
-475196
-475726
-477133
-477515
-476316
-475298
-475736
-477198
-477517
-476297
-475313
-475865
-477290
-477584
-476428
-475345
-475983
-477327
-477730
-476593
-475601
-476074
-477526
-477761
-476638
-475678
-476211
-477676
-478052
-476819
-475791
-476344
-477837
-478207
-477110
-476031
-476589
-477976
-478352
-477248
-476271
-476809
-478239
-478631
-477490
-476415
-476906
-478352
-478757
-477609
-476579
-477087
-478572
-478885
-477592
-476694
-477223
-478607
-479013
-477837
-476729
-477184
-478527
-478860
-477601
-476513
-476832
-478174
-478408
-477160
-475890
-476232
-477477
-477708
-476416
-475108
-475275
-476573
-476812
-475384
-474144
-474429
-475593
-475804
-474437
-473187
-473488
-474712
-474917
-473574
-472325
-472610
-473803
-474122
-472779
-471524
-471952
-473209
-473427
-472217
-471063
-471546
-472862
-473067
-471832
-470761
-471215
-472462
-472789
-471574
-470208
-470836
-472222
-472639
-471463
-470357
-470833
-472158
-472608
-471462
-470349
-470784
-472131
-472578
-471426
-470329
-470831
-472240
-472655
-471527
-470458
-470908
-472213
-472711
-471518
-470471
-470921
-472235
-472706
-471576
-470519
-470961
-472339
-472716
-471553
-470516
-470993
-472305
-472721
-471534
-470563
-470957
-472267
-472741
-471465
-470413
-470858
-472195
-472620
-471383
-470402
-470784
-472246
-472585
-471437
-470330
-470795
-472176
-472573
-471381
-470368
-470795
-472728
-472282
-472802
-471776
-470619
-471110
-472575
-473112
-472031
-470993
-471419
-472933
-473352
-472303
-471314
-471864
-473336
-473877
-472808
-471727
-472260
-473775
-474294
-473204
-472147
-472738
-474161
-474725
-473616
-472558
-473109
-474610
-475100
-473922
-472906
-473439
-474877
-475375
-474283
-473162
-473655
-475049
-475615
-474513
-473467
-473889
-475356
-475810
-474693
-473609
-474095
-475501
-475910
-474846
-473740
-474252
-475602
-476129
-474980
-473898
-474305
-475760
-476587
-475190
-474045
-474424
-475870
-476278
-475185
-474115
-474547
-475994
-476489
-475330
-474146
-474670
-476013
-476539
-475395
-474292
-474833
-476177
-476670
-475521
-474420
-474845
-476241
-476831
-475677
-474584
-474931
-476423
-476865
-475785
-474665
-475198
-476538
-477056
-475925
-474901
-475295
-476732
-477250
-476107
-475122
-475515
-476928
-477412
-476389
-475251
-475724
-477118
-477618
-476581
-475435
-475865
-477263
-477782
-476781
-475694
-476123
-477508
-478053
-476970
-475897
-476357
-477753
-478343
-477250
-476142
-476612
-478129
-478639
-477525
-476376
-476869
-478285
-478809
-477813
-476671
-477063
-478526
-479083
-477997
-476924
-477408
-478848
-479321
-478191
-477104
-477523
-479013
-479534
-478417
-477357
-477759
-479178
-479749
-478654
-477580
-477985
-479409
-479914
-478873
-477778
-478149
-479641
-480104
-478989
-477830
-478395
-479791
-480358
-479235
-478112
-478621
-479995
-480514
-479397
-478366
-478651
-480174
-480730
-479681
-478540
-478998
-480495
-480976
-479828
-478744
-479215
-480591
-481079
-480039
-478906
-479370
-480665
-481306
-480233
-479168
-479590
-480971
-481525
-480475
-479372
-479795
-481192
-481786
-480695
-479609
-480040
-481458
-481987
-480937
-479856
-480331
-481751
-482352
-481258
-480096
-480543
-481898
-482470
-481381
-480283
-480725
-482097
-482707
-481619
-480448
-480895
-482241
-482859
-481681
-480541
-480969
-482369
-482905
-481829
-480662
-481138
-482412
-483012
-481936
-480759
-481174
-482554
-483088
-482022
-480877
-481269
-482660
-483171
-482093
-480909
-481287
-482660
-483254
-482131
-481002
-481421
-482791
-483330
-482198
-481112
-481509
-482909
-483522
-482331
-481226
-481619
-483099
-483641
-482535
-481414
-481797
-483247
-483779
-482786
-481654
-482052
-483440
-484000
-482938
-481816
-482302
-483598
-484201
-483100
-481990
-482385
-483812
-484360
-483378
-482035
-482568
-483994
-484580
-483509
-482334
-482711
-484182
-484807
-483762
-482610
-482975
-484394
-485020
-483960
-482797
-483169
-484589
-485187
-484108
-482955
-483370
-484822
-485377
-484333
-483211
-483605
-484957
-485579
-484540
-483366
-483804
-485226
-485726
-484765
-483801
-484046
-485408
-485998
-484924
-483767
-484118
-485540
-486060
-485048
-483969
-484375
-485730
-486304
-485265
-484080
-484484
-485932
-486503
-485376
-484256
-484640
-486010
-486537
-485462
-484331
-484715
-486090
-486597
-485551
-484293
-484660
-485918
-486419
-485272
-483979
-484285
-485552
-485966
-484824
-483526
-483753
-484961
-485279
-484066
-482777
-482857
-484075
-484428
-483093
-481703
-481848
-482971
-483292
-482066
-480735
-480970
-482063
-482242
-481122
-479721
-479845
-481054
-481575
-480413
-479004
-479271
-480426
-480949
-479698
-478451
-478650
-479894
-480403
-479248
-478001
-478201
-479467
-479962
-478842
-477594
-477875
-479191
-479737
-478641
-477423
-477725
-479053
-479571
-478539
-477294
-477555
-478836
-479397
-478284
-477082
-477416
-478740
-479288
-478208
-476961
-477267
-478547
-479143
-478051
-476821
-477108
-478382
-478965
-477850
-476668
-476983
-478321
-478870
-477727
-476548
-476863
-478132
-478695
-477695
-476420
-476676
-478060
-478631
-477470
-476308
-476569
-477842
-478760
-477462
-476174
-476368
-477755
-478213
-477226
-476134
-476385
-477751
-478428
-477377
-476205
-476787
-477909
-478450
-477334
-476067
-476398
-477836
-478456
-477370
-476238
-476518
-477914
-478528
-477508
-476274
-476720
-478002
-478696
-477624
-476489
-476901
-478339
-478996
-477947
-476809
-477086
-478565
-479241
-478332
-477155
-477427
-478951
-479610
-478956
-477556
-477988
-479257
-479851
-478818
-477667
-478035
-479414
-480040
-479003
-477841
-478230
-479649
-480275
-479210
-478068
-478348
-479716
-480295
-479340
-478100
-478419
-479791
-480457
-479542
-478256
-478518
-479888
-480505
-479449
-478259
-478531
-479850
-480481
-479458
-478227
-478607
-479960
-480628
-479553
-478336
-478612
-480007
-480678
-479604
-478387
-478714
-480118
-480746
-479774
-478434
-478748
-480162
-480852
-479777
-478557
-478901
-480324
-480894
-479927
-478739
-479086
-480430
-481005
-480095
-478898
-479202
-480553
-481152
-480198
-479083
-479432
-480728
-481448
-480377
-479212
-479553
-480866
-481514
-480595
-479413
-479718
-481113
-481816
-480776
-479581
-479877
-481283
-481950
-480913
-479771
-480012
-481428
-482167
-481083
-480025
-480265
-481680
-482313
-481311
-480151
-480506
-481796
-482447
-481516
-480311
-480550
-482039
-482668
-481683
-480475
-480829
-482191
-482905
-481859
-480775
-480941
-482317
-483029
-482093
-480844
-481164
-482523
-483221
-482264
-481032
-481373
-482736
-483427
-482347
-481205
-481470
-482912
-483586
-482601
-481410
-481680
-483039
-483674
-482774
-481555
-481858
-483232
-483933
-482871
-481757
-482001
-483403
-484142
-483061
-481888
-482182
-483590
-484255
-483276
-482071
-482368
-483729
-484341
-483418
-482241
-482547
-483922
-484629
-483521
-482375
-482647
-483977
-484618
-483663
-482504
-482761
-484118
-484865
-483882
-482700
-482904
-484291
-485005
-483983
-482771
-483050
-484461
-485165
-484192
-482979
-483210
-484605
-485287
-484326
-483127
-483403
-484749
-485447
-484507
-483313
-483658
-484998
-485605
-484663
-483483
-483756
-485130
-485868
-484884
-483570
-483899
-485268
-485966
-484992
-483785
-484098
-485424
-486168
-485179
-483945
-484236
-485553
-486245
-485316
-484115
-484373
-485776
-486413
-485519
-484265
-484491
-485835
-486584
-485586
-484375
-484668
-486313
-486762
-485772
-484550
-484792
-486170
-486803
-485832
-484704
-484935
-486347
-487071
-486087
-484891
-485156
-486575
-487127
-486208
-485006
-485268
-486628
-487396
-486463
-485204
-485475
-486846
-487617
-486646
-485430
-485682
-487064
-487810
-486848
-485617
-485847
-487289
-487931
-486989
-485769
-486059
-487441
-488275
-487245
-486004
-486261
-487741
-488426
-487426
-486164
-486470
-487822
-488643
-487619
-486394
-486667
-488120
-488785
-487847
-486562
-486866
-488229
-489003
-488049
-486845
-487056
-488471
-489235
-488256
-487057
-487310
-488738
-489352
-488431
-487206
-487432
-488810
-489457
-488577
-487358
-487684
-488983
-489786
-488779
-487548
-487807
-489223
-489938
-488925
-487737
-487926
-489331
-490078
-489093
-487837
-488163
-489572
-490259
-489337
-488056
-488284
-489721
-490459
-489452
-488099
-488453
-489815
-490548
-489416
-488309
-488521
-489884
-490544
-489445
-488196
-488429
-489656
-490232
-489247
-487905
-488070
-489306
-489918
-488711
-487295
-487369
-488567
-489068
-487928
-486444
-486478
-487639
-488169
-486994
-485522
-485566
-486650
-487147
-485995
-484603
-484598
-485841
-486417
-485252
-483875
-483861
-485035
-485592
-484405
-483050
-483171
-484360
-484924
-483836
-482559
-482652
-483900
-484497
-483457
-482138
-482601
-483646
-484234
-483168
-481767
-482001
-483321
-483951
-482892
-481593
-481807
-483136
-483756
-482800
-481504
-481686
-482990
-483677
-482691
-481449
-481566
-482847
-483598
-482527
-481243
-481327
-482558
-483193
-482297
-480985
-481047
-482325
-483008
-481986
-480641
-480767
-482024
-482689
-481608
-480296
-480469
-481708
-482364
-481327
-479890
-480053
-481273
-481817
-480825
-479392
-479634
-480826
-481576
-480484
-479138
-479239
-480502
-481121
-480116
-478691
-478975
-480330
-480951
-479903
-478557
-478794
-480109
-480724
-479714
-478456
-478578
-479855
-480612
-479686
-478359
-478418
-479850
-480612
-479600
-478386
-478646
-479978
-480830
-479922
-478551
-479187
-480357
-481111
-480102
-478911
-479143
-480525
-481245
-480320
-479161
-479445
-480808
-481578
-480792
-479436
-479782
-481075
-481846
-480924
-479638
-479911
-481273
-481991
-481002
-479805
-479980
-481402
-482093
-481188
-479921
-480172
-481479
-482248
-481321
-480077
-480195
-481513
-482327
-481402
-480088
-480353
-481683
-482368
-481783
-480371
-480459
-481800
-482506
-481597
-480216
-480501
-481778
-482570
-481609
-480453
-480557
-481987
-482764
-481810
-480535
-480809
-482140
-482912
-481925
-480778
-480934
-482274
-483023
-481994
-480775
-481017
-482328
-483337
-482260
-480893
-481233
-482525
-483289
-482356
-481092
-481338
-482659
-483407
-482540
-481227
-481518
-482887
-483609
-482658
-481465
-481659
-482969
-483814
-482894
-481657
-481841
-483094
-483897
-483001
-481701
-481986
-483326
-484124
-483171
-481920
-482171
-483485
-484240
-483347
-482125
-482309
-483644
-484375
-483435
-482154
-482376
-483873
-484538
-483717
-482432
-482575
-483941
-484593
-483695
-482508
-482709
-484080
-484853
-483812
-482569
-482810
-484152
-484918
-483978
-482702
-482946
-484334
-485095
-484194
-482860
-483009
-484362
-485161
-484133
-482968
-483092
-484495
-485305
-484404
-483102
-483343
-484656
-485472
-484537
-483228
-483502
-484779
-485613
-484626
-483449
-483627
-484937
-485690
-484685
-483554
-483763
-485107
-485867
-484899
-483612
-483745
-485077
-485827
-484830
-483540
-483747
-485141
-485942
-485001
-483803
-484008
-485344
-486142
-485194
-483947
-484141
-485451
-486235
-485246
-483998
-484263
-485617
-486440
-485500
-484248
-484483
-485798
-486565
-485675
-484439
-484692
-485978
-486805
-485773
-484593
-484854
-486135
-486884
-485957
-484663
-484945
-486226
-486992
-486002
-484817
-484947
-486381
-487137
-486271
-484971
-485161
-486588
-487335
-486350
-485126
-485383
-486730
-487471
-486436
-485254
-485493
-486883
-487596
-486646
-485413
-485576
-486968
-487699
-486873
-485551
-485776
-487125
-487835
-486863
-485613
-485894
-487219
-487869
-487004
-485817
-486053
-487334
-488163
-487190
-485926
-486098
-487450
-488235
-487327
-485999
-486277
-487575
-488372
-487363
-486137
-486310
-487670
-488406
-487447
-486257
-486422
-487790
-488550
-487612
-486367
-486538
-487929
-488749
-487708
-486471
-486715
-488049
-488801
-487887
-486617
-486829
-488154
-488923
-487880
-486654
-486887
-488300
-489345
-488114
-486825
-487028
-488381
-489099
-488210
-486983
-487105
-488465
-489142
-488249
-486995
-487240
-488731
-489371
-488346
-487155
-487413
-488735
-489510
-488698
-487422
-487626
-488914
-489674
-488630
-487316
-487558
-488864
-489603
-488671
-487458
-487541
-488990
-489889
-488952
-487620
-487819
-489133
-489890
-488947
-487681
-488108
-489288
-489932
-488968
-487786
-487978
-489325
-490108
-489007
-487789
-488077
-489461
-490233
-489290
-487963
-488190
-489576
-490362
-489265
-488133
-488433
-489633
-490520
-489596
-488429
-488616
-489867
-490674
-489737
-488434
-488981
-490011
-490715
-489662
-488348
-488491
-489767
-490464
-489364
-488392
-488204
-489364
-489990
-488835
-487518
-487432
-488616
-489140
-487847
-486477
-486537
-487687
-488192
-487028
-485551
-485494
-486685
-487173
-486084
-484547
-484519
-485686
-486272
-485161
-483661
-483603
-484746
-485379
-484292
-482874
-482859
-484040
-484724
-483561
-482220
-482323
-483625
-484203
-483151
-481851
-481990
-483176
-483927
-482801
-481547
-481609
-482877
-483598
-482637
-481357
-481527
-482839
-483555
-482512
-481224
-481440
-482676
-483429
-482473
-481180
-481276
-482608
-483322
-482644
-480993
-481194
-482481
-483188
-482003
-480823
-480814
-482292
-483044
-482067
-481200
-481057
-482208
-482892
-481909
-480597
-480797
-482258
-482872
-481771
-480454
-480885
-482042
-482571
-481607
-480221
-480404
-481730
-482493
-481450
-480127
-480151
-481513
-482428
-481330
-479990
-480121
-481483
-482177
-481237
-480051
-480203
-481255
-482145
-481185
-479870
-480049
-481360
-482396
-481289
-479978
-480122
-481426
-482282
-481314
-480039
-480266
-481625
-482426
-481491
-480341
-480535
-481921
-482749
-481779
-480589
-480818
-482215
-482969
-482001
-480788
-480999
-482432
-483210
-482260
-480995
-481274
-482517
-483376
-482504
-481152
-481380
-483026
-483502
-482620
-481306
-481459
-482774
-483501
-482586
-481244
-481449
-482776
-483786
-482598
-481223
-481744
-482778
-483443
-482464
-481159
-481369
-482658
-483391
-482448
-481160
-481322
-482647
-483428
-482432
-481175
-481325
-482635
-483336
-482439
-481126
-481292
-482599
-483760
-482533
-481163
-481391
-482737
-483433
-482491
-481266
-481436
-482718
-483580
-482609
-481291
-481546
-482809
-483531
-482644
-481387
-481615
-482998
-483747
-482836
-481594
-481798
-483125
-483902
-483028
-481708
-481974
-483333
-484075
-483149
-481937
-482112
-483542
-484341
-483386
-482141
-482313
-483731
-484482
-483526
-482243
-482486
-483802
-484603
-483695
-482360
-482642
-483981
-484800
-483882
-482625
-482866
-484112
-484902
-483978
-482700
-482959
-484276
-485037
-484094
-482838
-483020
-484358
-485161
-484183
-483020
-483183
-484528
-485298
-484436
-483145
-483384
-484719
-485556
-484635
-483252
-483597
-484958
-485687
-484728
-483498
-483712
-485031
-485876
-484953
-483690
-483866
-485182
-485999
-485063
-483915
-484122
-485431
-486198
-485274
-484003
-484284
-485644
-486469
-485591
-484342
-484549
-485892
-486669
-485763
-484456
-484636
-485954
-486771
-485883
-484657
-484877
-486207
-486970
-486056
-484796
-485033
-486356
-487160
-486193
-484946
-485185
-486524
-487334
-486448
-485146
-485355
-486683
-487487
-485248
-485454
-486793
-487578
-486726
-485481
-485695
-486983
-487763
-486866
-485642
-485789
-487158
-487907
-486968
-485749
-485925
-487302
-488026
-487078
-485874
-486070
-487392
-488126
-487253
-485985
-486187
-487501
-488236
-487375
-486040
-486273
-487651
-488491
-487499
-486200
-486415
-487793
-488592
-487674
-486378
-486611
-488031
-488672
-487683
-486456
-486674
-488055
-488758
-487755
-486600
-486755
-488144
-488923
-487981
-486711
-486924
-488205
-488952
-488070
-486762
-487069
-488372
-489128
-488158
-486912
-487078
-488471
-489229
-488308
-486999
-487225
-488630
-489389
-488415
-487143
-487343
-488688
-489472
-488609
-487278
-487449
-488791
-489670
-488685
-487376
-487601
-488899
-489717
-488789
-487532
-487819
-489205
-489901
-488962
-487742
-487917
-489332
-490020
-489065
-487909
-488129
-489454
-490224
-489274
-488019
-488275
-489594
-490391
-489428
-488154
-488362
-489653
-490491
-489554
-488349
-488576
-489935
-490630
-489686
-488508
-488667
-490015
-490814
-489893
-488667
-488896
-490227
-491067
-490018
-488750
-489079
-490488
-491205
-490234
-489065
-489287
-490641
-491361
-490467
-489239
-489463
-490815
-491575
-490611
-489425
-489628
-490990
-491865
-490945
-489628
-489817
-491258
-492014
-491117
-489872
-490086
-491426
-492179
-491169
-490017
-490262
-491611
-492471
-491493
-490254
-490421
-491821
-492652
-491705
-490501
-490664
-492028
-492819
-491898
-490558
-490854
-492157
-492945
-492012
-490799
-490999
-492370
-493063
-492118
-490814
-491029
-492461
-493107
-492130
-490824
-490998
-492284
-492975
-491897
-490566
-490695
-491860
-492557
-491400
-490026
-489979
-491195
-491811
-490595
-489194
-489230
-490308
-490805
-489631
-488124
-488134
-489272
-489740
-488628
-487159
-487224
-488359
-488888
-487755
-486304
-486354
-487473
-488076
-486958
-485522
-485656
-486862
-487468
-486366
-484975
-485028
-486267
-486904
-485892
-484529
-484663
-485852
-486551
-485527
-484155
-484370
-485634
-486323
-485294
-483988
-484204
-485531
-486237
-485143
-483837
-484052
-485344
-486102
-485066
-483833
-484023
-485359
-486044
-485049
-483723
-483899
-485187
-485861
-484900
-483620
-483872
-485175
-485948
-485040
-483782
-484059
-485370
-486067
-485129
-483855
-484021
-485359
-486061
-485058
-483808
-484091
-485458
-486204
-485289
-484074
-484259
-485620
-486421
-485412
-484133
-484412
-485747
-486568
-485696
-484426
-484598
-485980
-486736
-485760
-484519
-484741
-486064
-486787
-485777
-484587
-484809
-486202
-486961
-486078
-484822
-485029
-486531
-487276
-486326
-485158
-485371
-486815
-487654
-486728
-485534
-485834
-487162
-487907
-487067
-485765
-486079
-487386
-488142
-487223
-485933
-486215
-487590
-488352
-487407
-486190
-486386
-487758
-488538
-487614
-486228
-486478
-487853
-488543
-487543
-486269
-486482
-487856
-488465
-487498
-486176
-486346
-487732
-488397
-487383
-486042
-486213
-487569
-488287
-487239
-485961
-486118
-487397
-488138
-487113
-485818
-485946
-487365
-488028
-487036
-485740
-485947
-487262
-487961
-486956
-485619
-485852
-487181
-487856
-486904
-485570
-485773
-487163
-487749
-486879
-485579
-485756
-487081
-487865
-486903
-485634
-485830
-487247
-488036
-486997
-485791
-486010
-487399
-488168
-487146
-485960
-486220
-487488
-488313
-487419
-486104
-486460
-487768
-488538
-487642
-486431
-486629
-488039
-488828
-487820
-486565
-486842
-488220
-488985
-488099
-486851
-487042
-488365
-489187
-488239
-486971
-487175
-488446
-489198
-488245
-487021
-487314
-488557
-489224
-488238
-487038
-487205
-488585
-489324
-488324
-487101
-487318
-488581
-489252
-488206
-486866
-487049
-488384
-489086
-487976
-486663
-486821
-488092
-488787
-487822
-486459
-486544
-487887
-488550
-487415
-486181
-486403
-487587
-488294
-487142
-485895
-486142
-487404
-488023
-486991
-485782
-485970
-487296
-487898
-486873
-485584
-485750
-487006
-487765
-486653
-485354
-485618
-486883
-487648
-486527
-485302
-485484
-486810
-487514
-486500
-485237
-485513
-486848
-487615
-486498
-485284
-485469
-486782
-487494
-486556
-485390
-485544
-486905
-487601
-486622
-485350
-485640
-486963
-487733
-486690
-485523
-485721
-487019
-487691
-486693
-485554
-485792
-487185
-487828
-486904
-485753
-485976
-487382
-488198
-487206
-485970
-486217
-487675
-488373
-487408
-486178
-486455
-487823
-488644
-487723
-486464
-486727
-488098
-488871
-487865
-486685
-486917
-488196
-489062
-488074
-486815
-487108
-488432
-489177
-488156
-487025
-487192
-488570
-489324
-488339
-487056
-487312
-487250
-487545
-488790
-489586
-488612
-487310
-488866
-489673
-488587
-487317
-487659
-488931
-489655
-488658
-487468
-487636
-488987
-489767
-488763
-487488
-487693
-489055
-489652
-488680
-487505
-487665
-489045
-489753
-488680
-487377
-487660
-489072
-489713
-488709
-487424
-487779
-489076
-489744
-488799
-487592
-487809
-489119
-489839
-488860
-487626
-487906
-489332
-489951
-488991
-487714
-487970
-489386
-490040
-489040
-487790
-488129
-489459
-490141
-489165
-487902
-488145
-489515
-490132
-489133
-487911
-488190
-489485
-490279
-489267
-487993
-488258
-489625
-490254
-489255
-487991
-488313
-489680
-490357
-489332
-488186
-488324
-489696
-490348
-489316
-488009
-488354
-489676
-490451
-489325
-488103
-488321
-489691
-490361
-489312
-488132
-488322
-489627
-490310
-489296
-487977
-488137
-489495
-490073
-488920
-487602
-487723
-488916
-489426
-488289
-486848
-486903
-488058
-488670
-487344
-485966
-486019
-487169
-487582
-486302
-484842
-484852
-485968
-486311
-485134
-483730
-483817
-484886
-485425
-484195
-482864
-482902
-484067
-484635
-483427
-481957
-482069
-483317
-483922
-482741
-481288
-481463
-482631
-483166
-482051
-480760
-480872
-482142
-482719
-481613
-480195
-480374
-481614
-482273
-481143
-479878
-480048
-481348
-481937
-480838
-479498
-479721
-480993
-481595
-480527
-479295
-479434
-480671
-481354
-480295
-479016
-479153
-480493
-481044
-480050
-478794
-479021
-480347
-480937
-479819
-478645
-478751
-480068
-480664
-479635
-478349
-478616
-479816
-480406
-479333
-478074
-478206
-479553
-480066
-479005
-477702
-477946
-479158
-479852
-478786
-477399
-477650
-478906
-479511
-478390
-477109
-477319
-478595
-479193
-478170
-476886
-477050
-478324
-478941
-477968
-476754
-476920
-478157
-478835
-477896
-476586
-476823
-478156
-478821
-477754
-476634
-476872
-478314
-478982
-478044
-476770
-477062
-478417
-479064
-478070
-476867
-477250
-478601
-479290
-478307
-477157
-477445
-478818
-479493
-478488
-477317
-477617
-478859
-479550
-478605
-477378
-477691
-479001
-479609
-478649
-477396
-477693
-478962
-479611
-478556
-477224
-477541
-478902
-479465
-478376
-477150
-477340
-478674
-479197
-478122
-476918
-477211
-478428
-479038
-477964
-476747
-476927
-478172
-478713
-477666
-476508
-476707
-477899
-478490
-477369
-476105
-476286
-477688
-478252
-477138
-475876
-476161
-477436
-478077
-476925
-475710
-475922
-477229
-477931
-476884
-475635
-475907
-477172
-477778
-476722
-475527
-475819
-477156
-477838
-476842
-475510
-475791
-477245
-477861
-476752
-475494
-475753
-477142
-477776
-476750
-475594
-475767
-477164
-477827
-476838
-475589
-475924
-477256
-477945
-476834
-475631
-476010
-477295
-477937
-476883
-475731
-475916
-477330
-478010
-476910
-475742
-476074
-477381
-478067
-477052
-475961
-476289
-477633
-478166
-477228
-476107
-476389
-477698
-478325
-477321
-476103
-476419
-477733
-478481
-477522
-476307
-476561
-478000
-478600
-477614
-476442
-476739
-478064
-478731
-477741
-476545
-476934
-478242
-478895
-477951
-476791
-477016
-478356
-478955
-477969
-476731
-477003
-478343
-478947
-477916
-476768
-477055
-478780
-479137
-478005
-476756
-477030
-478350
-478965
-477903
-476653
-477045
-478334
-478993
-477986
-476834
-477174
-478483
-479104
-478069
-476859
-477248
-478599
-479181
-478161
-476922
-477358
-478717
-479395
-478303
-477118
-477492
-478903
-479545
-478520
-477355
-477676
-479034
-479672
-478689
-477509
-477861
-479280
-479894
-478927
-477700
-477997
-479443
-480107
-479124
-477895
-478194
-479639
-480363
-479325
-478101
-478451
-479737
-480346
-479380
-478273
-478519
-479936
-480511
-479494
-478323
-478612
-479983
-480658
-479578
-478419
-478649
-480060
-480680
-479627
-478353
-478736
-479986
-480630
-479586
-478400
-478686
-480033
-480703
-479692
-478393
-478698
-480062
-480641
-479647
-478418
-478692
-480005
-480719
-479681
-478477
-478665
-480065
-480695
-479569
-478436
-478686
-480124
-480736
-479611
-478416
-478796
-480068
-480644
-479661
-478450
-478813
-480074
-480675
-479707
-478492
-478754
-480098
-480743
-479632
-478497
-478710
-480108
-480756
-479747
-478837
-478881
-480160
-480670
-479717
-478527
-478862
-480199
-480795
-479717
-478536
-478863
-480273
-480892
-479738
-478590
-478869
-480248
-480895
-479920
-478694
-479010
-480263
-480937
-479977
-478796
-479168
-480509
-481447
-480192
-478938
-479262
-480577
-481252
-480112
-478988
-479285
-480678
-481333
-480315
-479157
-479818
-480904
-481455
-480424
-479180
-479530
-480870
-481511
-480515
-479356
-479614
-481050
-481669
-480665
-479562
-480131
-481252
-481893
-480781
-479575
-479906
-481321
-481920
-480801
-479780
-480058
-481395
-481974
-481253
-479809
-480062
-481459
-482078
-481010
-479723
-480131
-481421
-480760
-479810
-481644
-479042
-480592
-478323
-478407
-479644
-480037
-478759
-477387
-477488
-478629
-478980
-477661
-476238
-476312
-477386
-477812
-476500
-475073
-475200
-476375
-476721
-475441
-474034
-474222
-475298
-475723
-474504
-473204
-473268
-474500
-474898
-473724
-472353
-472592
-473834
-474255
-473065
-471668
-471888
-473149
-473647
-472508
-471272
-471448
-472714
-473276
-472139
-470815
-471079
-472347
-472829
-471756
-470571
-470792
-472121
-472626
-471442
-470289
-470615
-471917
-472366
-471278
-470085
-470344
-471636
-472072
-471019
-469774
-470080
-471375
-471848
-470712
-469547
-469708
-471027
-471488
-470336
-469136
-469448
-470674
-471205
-470056
-468759
-468994
-470264
-470683
-469568
-468384
-468680
-469939
-470474
-469297
-468134
-468341
-469569
-470137
-469043
-467764
-468051
-469292
-469817
-468697
-467517
-467824
-469101
-469639
-468478
-467369
-467663
-468997
-469520
-468444
-467290
-467537
-468938
-469525
-468443
-467268
-467666
-468889
-469487
-468510
-467342
-467722
-469040
-469676
-468650
-467434
-467847
-469264
-469816
-468856
-467725
-468088
-469452
-470011
-469006
-467842
-468237
-469603
-470182
-469185
-467996
-468324
-469788
-470372
-469353
-468155
-468533
-469921
-470499
-469428
-468282
-468623
-470016
-470605
-469511
-468380
-468717
-470162
-470695
-469630
-468517
-468796
-470114
-470693
-469606
-468481
-468732
-470120
-470611
-469522
-468327
-468633
-469952
-470541
-469459
-468224
-468584
-469922
-470464
-469344
-468250
-468532
-469882
-470385
-469358
-468168
-468590
-469962
-470481
-469419
-468348
-468723
-470086
-470645
-469560
-468519
-468941
-470325
-470863
-469870
-468707
-469140
-470688
-471645
-470892
-469960
-470274
-471527
-472075
-470961
-469760
-470064
-471460
-471997
-470950
-469808
-470187
-471661
-472204
-471130
-469987
-470435
-471746
-472307
-471348
-470244
-470625
-472012
-472605
-471608
-470439
-470880
-472277
-472850
-471783
-470669
-471102
-472452
-473010
-472017
-470877
-471347
-472785
-473379
-472386
-471246
-471596
-473082
-473662
-472603
-471446
-471935
-473286
-473846
-472881
-471800
-472211
-473625
-474117
-473083
-471970
-472446
-473844
-474380
-473337
-472238
-472558
-473977
-474642
-473567
-472375
-472874
-474193
-474842
-473791
-473228
-473305
-474601
-475076
-474035
-472891
-473328
-474709
-475313
-474267
-473168
-473445
-474986
-475506
-474499
-473389
-473821
-475224
-475763
-474704
-473540
-473937
-475371
-475955
-474884
-473829
-474187
-475561
-476038
-475046
-473922
-474330
-475733
-476285
-475248
-474116
-474500
-475850
-476406
-475346
-474264
-474696
-476100
-476632
-475576
-474775
-474906
-476188
-476799
-475704
-474582
-475035
-476438
-477335
-476004
-474875
-475244
-476573
-477148
-476134
-474958
-475434
-476764
-477273
-476212
-475152
-475575
-476908
-477513
-476420
-475349
-475720
-477162
-477608
-476581
-475468
-475890
-477248
-477736
-476744
-475661
-476045
-477507
-477997
-476962
-475799
-476206
-477654
-478203
-477132
-476074
-476482
-477962
-478442
-477470
-476269
-476688
-478190
-478637
-477542
-476546
-476961
-478393
-478899
-477832
-476721
-477138
-478517
-479063
-477982
-476863
-477353
-478733
-479252
-478219
-477070
-477519
-478872
-479432
-478252
-477213
-477659
-479076
-479564
-478541
-477383
-477774
-479185
-479720
-478569
-477520
-477880
-479292
-479780
-478745
-477672
-478126
-479460
-479988
-478864
-477809
-478263
-479651
-480130
-479001
-477905
-478348
-479666
-480228
-479166
-478067
-478522
-479867
-480455
-479206
-478187
-478659
-480093
-480577
-479447
-478342
-478845
-480224
-480692
-479606
-478577
-479030
-480412
-480970
-479836
-478739
-479133
-480614
-481080
-479989
-478904
-479310
-480766
-481314
-480151
-479010
-479536
-480877
-481394
-480252
-479229
-479651
-481029
-481563
-480512
-479398
-479858
-481292
-481779
-480688
-479646
-480048
-481484
-481976
-480925
-479797
-480285
-481683
-482190
-481013
-479960
-480384
-481712
-482177
-481079
-479949
-480269
-481610
-482052
-480819
-479584
-479918
-481165
-481552
-480269
-479046
-479219
-480389
-480676
-479382
-478016
-478252
-479433
-479573
-478273
-476829
-477145
-478258
-478430
-477093
-475766
-475885
-477005
-477231
-475862
-474574
-474759
-475898
-476255
-474875
-473511
-473657
-474821
-475084
-473838
-472586
-472839
-474004
-474373
-473148
-471884
-472215
-473435
-473755
-472567
-471389
-471680
-472946
-473326
-472168
-470995
-471396
-472654
-472968
-471802
-470694
-471051
-472337
-472795
-471683
-470467
-470886
-472193
-472582
-471428
-470269
-470636
-471914
-472350
-471148
-470033
-470356
-471752
-472126
-470902
-469807
-470215
-471473
-471854
-470674
-469546
-469930
-471233
-471639
-470468
-469240
-469626
-471008
-471356
-470157
-469066
-469401
-470743
-471055
-469877
-468762
-469079
-470484
-470868
-469700
-468561
-468903
-470235
-470649
-469570
-468419
-468787
-470039
-470449
-469360
-468281
-468780
-470095
-470460
-469390
-468250
-468773
-470188
-470645
-469539
-468475
-468932
-470330
-470835
-469749
-468718
-469194
-470639
-471072
-470046
-468998
-469423
-470843
-471318
-470197
-469159
-469613
-471024
-471510
-470431
-469443
-469864
-471217
-471609
-470585
-469552
-470012
-471381
-471822
-470717
-469685
-470121
-471450
-471934
-470870
-469789
-470218
-471647
-472030
-470907
-469839
-470304
-471601
-472111
-470967
-469804
-470251
-471639
-472103
-470902
-469919
-470300
-471615
-471999
-470921
-469798
-470261
-471598
-472053
-470905
-469837
-470646
-471720
-472071
-470930
-469899
-470334
-471697
-472209
-471073
-470017
-470407
-471834
-472250
-471161
-470086
-470495
-471936
-472227
-471238
-470180
-470618
-471904
-472438
-471359
-470125
-470598
-472075
-472531
-471468
-470319
-470864
-472226
-472623
-471548
-470600
-471092
-472366
-472804
-471784
-470658
-471195
-472584
-472996
-471901
-470822
-471166
-472683
-473119
-472068
-471019
-471571
-472936
-473413
-472247
-471451
-471816
-473091
-473477
-472438
-471420
-471907
-473364
-473789
-472433
-471510
-472060
-473441
-473925
-472826
-471776
-472281
-473676
-474119
-473035
-471864
-472358
-473794
-474184
-473058
-472060
-472530
-473868
-474295
-473251
-472216
-472591
-474014
-474491
-473390
-472276
-472751
-474198
-474623
-473465
-472426
-473615
-472603
-473102
-474731
-474986
-473844
-472813
-473308
-474670
-475128
-474011
-472946
-473369
-474764
-475590
-474209
-473060
-473531
-474913
-475323
-474225
-473257
-473589
-475058
-475520
-474384
-473260
-473803
-475186
-475613
-474468
-473547
-473968
-475311
-475743
-474580
-473446
-474042
-475454
-475848
-474751
-473749
-474205
-475546
-476026
-474962
-473848
-474401
-475777
-476249
-475139
-474042
-474562
-475976
-476412
-475211
-474188
-474702
-476064
-476407
-475388
-474308
-474894
-476343
-476794
-475681
-474613
-475098
-476472
-477234
-475819
-474751
-475208
-476553
-476933
-475839
-474652
-475313
-476751
-477129
-475993
-474966
-475519
-476938
-477364
-476223
-475125
-475687
-477174
-477571
-476440
-475346
-475841
-477278
-477637
-476519
-475519
-475997
-477484
-477876
-476782
-475680
-476192
-477643
-478042
-476789
-475939
-476415
-477873
-478345
-477212
-476183
-476668
-478131
-478361
-477335
-476367
-476945
-478354
-478747
-477647
-476574
-477132
-478598
-479024
-477928
-476927
-477429
-478860
-479330
-478215
-477221
-477732
-479138
-479542
-478511
-477495
-477962
-479415
-479966
-478741
-477818
-478348
-479698
-480151
-479051
-478013
-478580
-479974
-480385
-479277
-478253
-478719
-480135
-480591
-479484
-478486
-478896
-480388
-480906
-479782
-478767
-479321
-480713
-480997
-480355
-479020
-479559
-480976
-481337
-480157
-479218
-479645
-481119
-481477
-480389
-479377
-479812
-481224
-481665
-480859
-479552
-480087
-481515
-481799
-480702
-479696
-480238
-481696
-481992
-480878
-479808
-480404
-481827
-482162
-481001
-479954
-480508
-482009
-482329
-481123
-480132
-480604
-481916
-482360
-481216
-480114
-480628
-481955
-482254
-480999
-479797
-480151
-481455
-481720
-480417
-479192
-479594
-480817
-480937
-479595
-478322
-478660
-479860
-480050
-478623
-477394
-477610
-478842
-478981
-477516
-476283
-476582
-477843
-477912
-476572
-475381
-475676
-476884
-477070
-475666
-474586
-474920
-476107
-476744
-475054
-473813
-474257
-475466
-475714
-474436
-473332
-473788
-475100
-475321
-474099
-472947
-473376
-474732
-475005
-473827
-472826
-473272
-474577
-474921
-473647
-472618
-473122
-474513
-474870
-473634
-472707
-473191
-474587
-474898
-473683
-472616
-473167
-474482
-474812
-473570
-472643
-473114
-474480
-474828
-473615
-472590
-473158
-474483
-474752
-473610
-472522
-472996
-474458
-474713
-473496
-472517
-473035
-474343
-474689
-473442
-472398
-472841
-474154
-474469
-473382
-472321
-472821
-474191
-474399
-473228
-472164
-472712
-474117
-474356
-473183
-472014
-472548
-473936
-474329
-473140
-472173
-472718
-474139
-474465
-473240
-472259
-472876
-474309
-474674
-473469
-472559
-473091
-474546
-474893
-473828
-472858
-473334
-474766
-475168
-474036
-473121
-473666
-475098
-475471
-474299
-473352
-473918
-475372
-475675
-474610
-473623
-474151
-475519
-475888
-474748
-473691
-474314
-475725
-476046
-474915
-473946
-474445
-475833
-476178
-474960
-474034
-474506
-475934
-476190
-475059
-474085
-474667
-476013
-476280
-475190
-474138
-474699
-476117
-476460
-475227
-474221
-474761
-476170
-476294
-475224
-474289
-474821
-476254
-476461
-475357
-474290
-474926
-476262
-476548
-475413
-474367
-474932
-476323
-476543
-475323
-474425
-474994
-476350
-476566
-475425
-474428
-474908
-476393
-476735
-475514
-474594
-475124
-476480
-476846
-475690
-474691
-475265
-476669
-476957
-475771
-474764
-475443
-476784
-477093
-475862
-474896
-475514
-476877
-477154
-475994
-475075
-475669
-477055
-477293
-476189
-475226
-475859
-477251
-477492
-476374
-475440
-475931
-477344
-477668
-476532
-475506
-476078
-477558
-477900
-476692
-475781
-476335
-477750
-477999
-476818
-475664
-476431
-477758
-478112
-476924
-475965
-476572
-477928
-478169
-477004
-476125
-476727
-478163
-478392
-477259
-476317
-476928
-478310
-478597
-477433
-476492
-477102
-478527
-478817
-477636
-476704
-477366
-478739
-479024
-477813
-476885
-477484
-478729
-479112
-478020
-477087
-477653
-479140
-479475
-478288
-477257
-477914
-479325
-479588
-478389
-477507
-478147
-479511
-479752
-478601
-477690
-478364
-479801
-480050
-478880
-477958
-478509
-480017
-480208
-479040
-478159
-478714
-480159
-480542
-479350
-478801
-479184
-480471
-480759
-479563
-478623
-479280
-480650
-481010
-479789
-479076
-479505
-480878
-481208
-480029
-479099
-479729
-481141
-481408
-480246
-479356
-479972
-481348
-481675
-480518
-479538
-480221
-481632
-481984
-480796
-479875
-480541
-481901
-482181
-481002
-480073
-480720
-482242
-482559
-481322
-480423
-481107
-482523
-482759
-481586
-480687
-481316
-482834
-483102
-481900
-481029
-481591
-483037
-483332
-482145
-481226
-481919
-483337
-483614
-482430
-481520
-482093
-483463
-483830
-482570
-481716
-482298
-483770
-484131
-482879
-481984
-482624
-483894
-484265
-483052
-482028
-482845
-484402
-484576
-483297
-482422
-483177
-484702
-484841
-483648
-482756
-483506
-484840
-485097
-483914
-483063
-483571
-485097
-485328
-484170
-483281
-483951
-485365
-485718
-484538
-483612
-484308
-485712
-485988
-484813
-483955
-484597
-486111
-486281
-484997
-484251
-484831
-486281
-486555
-485385
-484473
-485156
-486578
-486867
-485638
-484797
-485457
-486801
-486992
-485845
-484821
-485487
-486977
-487337
-486081
-485170
-485854
-487229
-487486
-486295
-485469
-486082
-487453
-487673
-486455
-485507
-486130
-487584
-487724
-486418
-485568
-486265
-487770
-488005
-486797
-485944
-486691
-487957
-488316
-487153
-486150
-486829
-488346
-488502
-487272
-486379
-487047
-488450
-488594
-487430
-486464
-487098
-488531
-488738
-487450
-486452
-487006
-488343
-488400
-487038
-486010
-486503
-487782
-487736
-486313
-485215
-485669
-486954
-486908
-485557
-484475
-484939
-486138
-486117
-484665
-483607
-484085
-485300
-485320
-483827
-482863
-483283
-484453
-484535
-483044
-482017
-482502
-483767
-483882
-482454
-481471
-482040
-483272
-483337
-482005
-480885
-481528
-482853
-481556
-480570
-481253
-482575
-482612
-481360
-480424
-481074
-482386
-482497
-481198
-480263
-481014
-482322
-482527
-481249
-480345
-480876
-482344
-482448
-481250
-480290
-480979
-482396
-482522
-481251
-480349
-480917
-482305
-482579
-481368
-480379
-481049
-482449
-482602
-481317
-480477
-481065
-482434
-482690
-481340
-480424
-481035
-482452
-482571
-481294
-480371
-481013
-482727
-482641
-481226
-480305
-480962
-482274
-482481
-481132
-480185
-480862
-482281
-482310
-481022
-480114
-480834
-482187
-482346
-481055
-480201
-480917
-482196
-482343
-481171
-480294
-481015
-482419
-482640
-481292
-480466
-481150
-482566
-482832
-481544
-480719
-481438
-482847
-483022
-481807
-480949
-481612
-483020
-483135
-481974
-481073
-481787
-483374
-483215
-482004
-481208
-481900
-483241
-483375
-482111
-481218
-481984
-483318
-483424
-482198
-481301
-481964
-483351
-483520
-482190
-481319
-482058
-483435
-483525
-482193
-481266
-482009
-483819
-483627
-482169
-481259
-481933
-483315
-483380
-482120
-481196
-481858
-483239
-483297
-482087
-481234
-481850
-483320
-483385
-482088
-481270
-481951
-483343
-483494
-482175
-481350
-481988
-483456
-483505
-482203
-481450
-482097
-483480
-483585
-482359
-481565
-482195
-483644
-483821
-482523
-481660
-482418
-483753
-483934
-482685
-481918
-482687
-484085
-484205
-482939
-482103
-482874
-484271
-484405
-483177
-482352
-483109
-484493
-484615
-483273
-482550
-483365
-484695
-484818
-483685
-482692
-483407
-484888
-485109
-483854
-483058
-483835
-485185
-485302
-484050
-483340
-484072
-485430
-485550
-484324
-483508
-484269
-485594
-485702
-484519
-483719
-484430
-485804
-485974
-484745
-483964
-484700
-486134
-486240
-485018
-484227
-484973
-486353
-486420
-485209
-484434
-485159
-486544
-486718
-485446
-484687
-485473
-486923
-486953
-485812
-484914
-485654
-487112
-487166
-485856
-485132
-485875
-487267
-487393
-486146
-485296
-486036
-487382
-487554
-486266
-485270
-486030
-487513
-487633
-486354
-485601
-486337
-487765
-487791
-486507
-485639
-486443
-487846
-487960
-486603
-485727
-486494
-487936
-488045
-486783
-486008
-486734
-488148
-488163
-487245
-486148
-486857
-488166
-488179
-486929
-486104
-486880
-488270
-488434
-487100
-486315
-487044
-488458
-488523
-487241
-486379
-487091
-488437
-488499
-487166
-486384
-487157
-488503
-488556
-487345
-486527
-487254
-488660
-488756
-487447
-486603
-487461
-488796
-488861
-487623
-486789
-487625
-489012
-488983
-487775
-487081
-487869
-489244
-489381
-488099
-487301
-487950
-489489
-489659
-488311
-487590
-488490
-489874
-489941
-488654
-487865
-488594
-490027
-490052
-488809
-488067
-488900
-490363
-490359
-489099
-488375
-489209
-490656
-490728
-489427
-488658
-489521
-491032
-490988
-489718
-489055
-489824
-491281
-491413
-490108
-489301
-490166
-491546
-491717
-490491
-489532
-490534
-491975
-492099
-490796
-490043
-490776
-492196
-492229
-490957
-490234
-491043
-492492
-492519
-491243
-490463
-491280
-492656
-492704
-491410
-490684
-491460
-492946
-493013
-491721
-490945
-491754
-493182
-493231
-491908
-491243
-492031
-493469
-493556
-492253
-491567
-492356
-493746
-493876
-492544
-491803
-492606
-494123
-494110
-492809
-492042
-492833
-494221
-494291
-492940
-492021
-492948
-494383
-494442
-493080
-492313
-493029
-494363
-494536
-493091
-492368
-493106
-494365
-494413
-492970
-492199
-492927
-494173
-494181
-492811
-491777
-492519
-493796
-493681
-492196
-491250
-491853
-493087
-492853
-491305
-490334
-491009
-492106
-491989
-490429
-489395
-490022
-491150
-490862
-489396
-488370
-488994
-490167
-489916
-488456
-487444
-488001
-489166
-488845
-487461
-486504
-487118
-488322
-488177
-486750
-485852
-486531
-487674
-487550
-486182
-485284
-485923
-487246
-487174
-485787
-485025
-485737
-487078
-486888
-485551
-484810
-485555
-486932
-486930
-485598
-484827
-485587
-486861
-486980
-485670
-484897
-485646
-487064
-486985
-485704
-484982
-485782
-487122
-487169
-485816
-485092
-485865
-487196
-487263
-485914
-485117
-485945
-487297
-487265
-486012
-485261
-486026
-487349
-487398
-486069
-485286
-486080
-487496
-487489
-486136
-485350
-486134
-487495
-487455
-486141
-485372
-486181
-487548
-487511
-486119
-485385
-486095
-487486
-487408
-486095
-485377
-486043
-487427
-487472
-486120
-485291
-486100
-487456
-487482
-486224
-485405
-486184
-487562
-487648
-486321
-485566
-486346
-487715
-487775
-486491
-485772
-486676
-488027
-488011
-486664
-485992
-486752
-488128
-488107
-486783
-486001
-486816
-488312
-488198
-486893
-486162
-487007
-488442
-488386
-486981
-486226
-486981
-488403
-488321
-486986
-486241
-487004
-488438
-488322
-486997
-486201
-486954
-488296
-488268
-486890
-486067
-486832
-488194
-488124
-486647
-485933
-486641
-487977
-487831
-486482
-485730
-486464
-487863
-487766
-486402
-485641
-486434
-487716
-487695
-486355
-485536
-486411
-487746
-487623
-486196
-485523
-486317
-487715
-487550
-486328
-485554
-486438
-487748
-487716
-486341
-485538
-486401
-487790
-487703
-486482
-485707
-486546
-487981
-487912
-486513
-485776
-486687
-488073
-488046
-486778
-486005
-486834
-488240
-488257
-486947
-486210
-487094
-488436
-488299
-487046
-486334
-487136
-488522
-488469
-487093
-486397
-487220
-488540
-488379
-486992
-486185
-487046
-488484
-488360
-486949
-486168
-487003
-488391
-488283
-486999
-486127
-486967
-488324
-488171
-486699
-486029
-486832
-488136
-488100
-486745
-486018
-486741
-488119
-488022
-486603
-485965
-486779
-488095
-488042
-486709
-486005
-486829
-488210
-488167
-486821
-486104
-486998
-488367
-488249
-486905
-486225
-487075
-488522
-488394
-487023
-486374
-487257
-488642
-488547
-487169
-486542
-487407
-488787
-488648
-487336
-486656
-487521
-488975
-488787
-487532
-486909
-487766
-489110
-489092
-487719
-487055
-487920
-489320
-489221
-487809
-487168
-488077
-489475
-489384
-488119
-487393
-488222
-489688
-489755
-488347
-487476
-488431
-489825
-489777
-488465
-487796
-488705
-490083
-489957
-488574
-487924
-488812
-490191
-489978
-488696
-487955
-488868
-490188
-490062
-488684
-488023
-488878
-490169
-490039
-488647
-487941
-488844
-490133
-489968
-488643
-487995
-488876
-490147
-490020
-488585
-487865
-488706
-489972
-489845
-488328
-487669
-488571
-489821
-489632
-488328
-487593
-488431
-489805
-489599
-488284
-487567
-488425
-489909
-489716
-488302
-487642
-488414
-489784
-489631
-488207
-487541
-488402
-489840
-489687
-488373
-487667
-488595
-489946
-489842
-488577
-487904
-488807
-490223
-489906
-489090
-488251
-489124
-490462
-490271
-488991
-488437
-489304
-490669
-490578
-489303
-488680
-489545
-490933
-490897
-489576
-488994
-489946
-491357
-491219
-489878
-489328
-490219
-491618
-491568
-490257
-489617
-490613
-492020
-492001
-490702
-490022
-490993
-492469
-492373
-491024
-490405
-491361
-492663
-492662
-491302
-490701
-491659
-492995
-492898
-491519
-490898
-491865
-493192
-493121
-491716
-491056
-491941
-493321
-493058
-491697
-490952
-491838
-492992
-492894
-491377
-490678
-491464
-492736
-492431
-490937
-490106
-490773
-491857
-491566
-490046
-489274
-489882
-491029
-490647
-488952
-488110
-488748
-489908
-489434
-487777
-486936
-487593
-488662
-488290
-486666
-485731
-486396
-487569
-487137
-485540
-484713
-485453
-486607
-486210
-484678
-483876
-484686
-485803
-485430
-483965
-483199
-484009
-485198
-484882
-483391
-482689
-483470
-484766
-484523
-482837
-482291
-483166
-484400
-484203
-482737
-481993
-482797
-484158
-483724
-482391
-481677
-482598
-483785
-483385
-482061
-481496
-482341
-483643
-483359
-481939
-481260
-482131
-483383
-483109
-481669
-481030
-481913
-483163
-482924
-480885
-481676
-482902
-482650
-481227
-480543
-481372
-482582
-482370
-480885
-480271
-481124
-482379
-482104
-480640
-479948
-480785
-482039
-481804
-480355
-479621
-480417
-481747
-481447
-480070
-479353
-480204
-481475
-481226
-479826
-479535
-480202
-481410
-481083
-479707
-479099
-480050
-481299
-481047
-479719
-479142
-480054
-481386
-481154
-479846
-479256
-480165
-481513
-481306
-480049
-479550
-480417
-481756
-481575
-480249
-479702
-480687
-482013
-481801
-480416
-479891
-480904
-482179
-481940
-480629
-480053
-481023
-482354
-481967
-480707
-480101
-480969
-482333
-482126
-480746
-480136
-481020
-482333
-482086
-480678
-480010
-480940
-482267
-482017
-480628
-479998
-480898
-482514
-481975
-480517
-479880
-480839
-482155
-481830
-480422
-479829
-480800
-482094
-481691
-480355
-479825
-480668
-482054
-481756
-480432
-479876
-480757
-482076
-481838
-480358
-479863
-480782
-482057
-481880
-480531
-479965
-480942
-482240
-482034
-480629
-480096
-481017
-482330
-482157
-480800
-480230
-481213
-482501
-482328
-480954
-480435
-481478
-482676
-482363
-481068
-480931
-481637
-483233
-482880
-481341
-480825
-481814
-483170
-483010
-481695
-481149
-482045
-483374
-483155
-481813
-481270
-482218
-483528
-483245
-481905
-481369
-482307
-483600
-483374
-481796
-481407
-482367
-483657
-483407
-482057
-481547
-482452
-483749
-483474
-482127
-481521
-482439
-483725
-483478
-482092
-481537
-482442
-483709
-483442
-482120
-481528
-482488
-483727
-483471
-482089
-481493
-482529
-483748
-483487
-482090
-481581
-482524
-483845
-483510
-482171
-481732
-482761
-483967
-483637
-482311
-481781
-482790
-484105
-483858
-482362
-481941
-482995
-484226
-483969
-482617
-482104
-483139
-484368
-484091
-482722
-482307
-483240
-484555
-484350
-482949
-482416
-483486
-484774
-484518
-483186
-482674
-483674
-485052
-484689
-483346
-482812
-483757
-485089
-484862
-483422
-482993
-483926
-485215
-484890
-483562
-483034
-484022
-485272
-485010
-483560
-483116
-484091
-485340
-485041
-483645
-483193
-484168
-485458
-485122
-483665
-483241
-484307
-485538
-485208
-483883
-483306
-484280
-485584
-485274
-483878
-483414
-484428
-485663
-485353
-484065
-483530
-484457
-485744
-485418
-484090
-483556
-484527
-485828
-485489
-484153
-483656
-484663
-485924
-485600
-484143
-483675
-484708
-485972
-485598
-484206
-483753
-484776
-485970
-485662
-484244
-483866
-484804
-486112
-485745
-484396
-483885
-484952
-486236
-485871
-484431
-483954
-484968
-486241
-485898
-484565
-484076
-485153
-486407
-486072
-484705
-484213
-485315
-486551
-486198
-484905
-484477
-485532
-486759
-486448
-485004
-484592
-485651
-486849
-486500
-485197
-484739
-485781
-487090
-486733
-485346
-484940
-485961
-487245
-486770
-485575
-485128
-486175
-487543
-487222
-485752
-485343
-486394
-487671
-487379
-486063
-485608
-486640
-487928
-487507
-486123
-485657
-486810
-488102
-487766
-486342
-485944
-486870
-488109
-487780
-486417
-485975
-487019
-488245
-487872
-486445
-486015
-487034
-488233
-487801
-486330
-485900
-486890
-488056
-487581
-486098
-485621
-486530
-487619
-487101
-485485
-484969
-485849
-486896
-486291
-484721
-484006
-484827
-485877
-485258
-483577
-482911
-483770
-484798
-484162
-482491
-481813
-482600
-483610
-483008
-481375
-480753
-481540
-482602
-482005
-480346
-479771
-480569
-481616
-481080
-479488
-478869
-479765
-480855
-480266
-478813
-478201
-479078
-480192
-479644
-478199
-477623
-478589
-479784
-479174
-477715
-477224
-478122
-479217
-478700
-477182
-476695
-477705
-478768
-478246
-476858
-476365
-477283
-478504
-478012
-476509
-476001
-476948
-478091
-477618
-476190
-475654
-476694
-477796
-477357
-475878
-475373
-476343
-477495
-476970
-475437
-475020
-476006
-477068
-476561
-475061
-474607
-475647
-476704
-476206
-474793
-474354
-475313
-476467
-475985
-474476
-474017
-474990
-476067
-475586
-474040
-473676
-474663
-475798
-475253
-473851
-473336
-474460
-475559
-475044
-473623
-473256
-474327
-475437
-474919
-473583
-473234
-474155
-475386
-474940
-473556
-473202
-474273
-475413
-475031
-473547
-473310
-474308
-475531
-475162
-473864
-473512
-474665
-475833
-475425
-474070
-473743
-474868
-476077
-475698
-474305
-473957
-475014
-476266
-475843
-474364
-474075
-475139
-476447
-475953
-474655
-474297
-475435
-476563
-476211
-474726
-474361
-475454
-476718
-476249
-474843
-474479
-475580
-476684
-476204
-474844
-474537
-475572
-476739
-476300
-474885
-474509
-475571
-476765
-476271
-474768
-474489
-475507
-476736
-476251
-474793
-474417
-475522
-476675
-476208
-474755
-474409
-475524
-476616
-476175
-474731
-474397
-475507
-476649
-476138
-474695
-474395
-475527
-476662
-476211
-474783
-474406
-475483
-476590
-476156
-474768
-474427
-475499
-476663
-476291
-474838
-474542
-475619
-476789
-476215
-474838
-474618
-475686
-476830
-476154
-474883
-474657
-475796
-476946
-476411
-474825
-474714
-475783
-477001
-476517
-475080
-474854
-475969
-477132
-476628
-475265
-474930
-476105
-477279
-476809
-475426
-475145
-476300
-477471
-476945
-475567
-475282
-476460
-477640
-477061
-475747
-475391
-476544
-477915
-477232
-475721
-475570
-476692
-477913
-477291
-475926
-475612
-476785
-477948
-477462
-476030
-475729
-476756
-477969
-477507
-476168
-475860
-477022
-478138
-477605
-476256
-475920
-477056
-478267
-477806
-476374
-476147
-477261
-478373
-477894
-476459
-476203
-477420
-478424
-477912
-476579
-476282
-477413
-478564
-478087
-476702
-476477
-477538
-478642
-478152
-476845
-476504
-477606
-478784
-478275
-476926
-476646
-477781
-478896
-478515
-477054
-476802
-477904
-479017
-478477
-477120
-476863
-478007
-479243
-478726
-477275
-477079
-478165
-479260
-478809
-477335
-477146
-478247
-479464
-478899
-477607
-477350
-478469
-479598
-479064
-477649
-477427
-478605
-479669
-479167
-477804
-477545
-478663
-479866
-479275
-477876
-477686
-478835
-479990
-479416
-478036
-477812
-478951
-480121
-479634
-478220
-477954
-479112
-480254
-479753
-478365
-478083
-479240
-480366
-479846
-478462
-478204
-479347
-480521
-479939
-478592
-478334
-479505
-480637
-480121
-478677
-478525
-479596
-480770
-480191
-478798
-478558
-479736
-480880
-480250
-478878
-478740
-479836
-481012
-480377
-479042
-478765
-479873
-481080
-480446
-479085
-478930
-480048
-481194
-480608
-479227
-478973
-480181
-481373
-480771
-479440
-479152
-480371
-481531
-480954
-479530
-479328
-480489
-481911
-481158
-479696
-479497
-480730
-481831
-481326
-479951
-479716
-480986
-482114
-481499
-480075
-479845
-481029
-482197
-481659
-480303
-480117
-481257
-482322
-481798
-480413
-480234
-481393
-482571
-481937
-480601
-480396
-481533
-482632
-482037
-480799
-480625
-481729
-482938
-482325
-480958
-480699
-481896
-482912
-482351
-480840
-480664
-481744
-482851
-482246
-480754
-480511
-481608
-482605
-481877
-480385
-479976
-481035
-481970
-481197
-479636
-479273
-480250
-481019
-480263
-478700
-478290
-479211
-480070
-479244
-477618
-477225
-478169
-478980
-478163
-476388
-476122
-477127
-477996
-477181
-475594
-475238
-476194
-477082
-476320
-474751
-474405
-475391
-476258
-475542
-473984
-473661
-474752
-475614
-474911
-473417
-473151
-474159
-475081
-474367
-472951
-472659
-473581
-474651
-473977
-472611
-472297
-473437
-474406
-473750
-472243
-472027
-473152
-474172
-473408
-472037
-471755
-472818
-473866
-473284
-471780
-471508
-472665
-473674
-473044
-471597
-471335
-472419
-473412
-472773
-471364
-471137
-472272
-473208
-472578
-471091
-470861
-471939
-472918
-472193
-470760
-470615
-471704
-472741
-472020
-470635
-470394
-471483
-472492
-471747
-470312
-470084
-471221
-472251
-471422
-470085
-469890
-471105
-472063
-471346
-469967
-469594
-470841
-472021
-471294
-469907
-469713
-471935
-471260
-469897
-469818
-470963
-472055
-471349
-470096
-469932
-471158
-472264
-471619
-470339
-470171
-471434
-472509
-471938
-470598
-470490
-471681
-472746
-472125
-470824
-470700
-471890
-473009
-472409
-471050
-470895
-472094
-473132
-472505
-471141
-471020
-472213
-473290
-472633
-471208
-471041
-472250
-473236
-472568
-471195
-471075
-472234
-473202
-472471
-471131
-471074
-472187
-473236
-472574
-471118
-471001
-472136
-473181
-472471
-471122
-470986
-472165
-473224
-472522
-471176
-471048
-472219
-473184
-472576
-471191
-471063
-472282
-473335
-472582
-471266
-471189
-472351
-473400
-472677
-471305
-471222
-472414
-473426
-472765
-471394
-471328
-472495
-473524
-472918
-471518
-471400
-472651
-473673
-473001
-471584
-471558
-472797
-473799
-473151
-471877
-471761
-473012
-474022
-473352
-472035
-471898
-473110
-474180
-473499
-472162
-472095
-473370
-474395
-473676
-472382
-472262
-473448
-474479
-473878
-472531
-472448
-473634
-474647
-473943
-472605
-472536
-473768
-475131
-474232
-472868
-472808
-474036
-475078
-474327
-472977
-472952
-474099
-475131
-474470
-473116
-473094
-474317
-475307
-474685
-473311
-473181
-474424
-475399
-474688
-473369
-473286
-474496
-475491
-474832
-473491
-473366
-474627
-475613
-474911
-473560
-473524
-474779
-475747
-475063
-473726
-473571
-474920
-475850
-475143
-473793
-473849
-475014
-476028
-475330
-473990
-473873
-475071
-476057
-475322
-473933
-474100
-475162
-476160
-475361
-474026
-473996
-475123
-476092
-475417
-474039
-474064
-475227
-476183
-475480
-474118
-474054
-475321
-476232
-475558
-474136
-474147
-475245
-476328
-475640
-474295
-474220
-475478
-476454
-475727
-474400
-474378
-475608
-476647
-475888
-474934
-474654
-475814
-476743
-475961
-474720
-474607
-475894
-476887
-476243
-475376
-475008
-476089
-477080
-476323
-474971
-474925
-476254
-477208
-476540
-475243
-475190
-476450
-477295
-476635
-475276
-475318
-476664
-477597
-476800
-475451
-475482
-476695
-477628
-476905
-475569
-475577
-476816
-477808
-477082
-475792
-475774
-477027
-477951
-477139
-475901
-475861
-477077
-478072
-477384
-476075
-476020
-477253
-478674
-477660
-476159
-476147
-477433
-478390
-477599
-476303
-476263
-477532
-478536
-477767
-476440
-476396
-477674
-478656
-477955
-476678
-476564
-477807
-478706
-478304
-476807
-476700
-477956
-478946
-478279
-476942
-476926
-478080
-479016
-478336
-476963
-477004
-478231
-479261
-478468
-477169
-477114
-478419
-479441
-478697
-477337
-477307
-478607
-479579
-478753
-477515
-477459
-478749
-479675
-478925
-477624
-477691
-478951
-479842
-479116
-477796
-477765
-478987
-479995
-479149
-477886
-477929
-479175
-480090
-479241
-477916
-477963
-479203
-480090
-479296
-477951
-477938
-479244
-480102
-479253
-477934
-477855
-479090
-480043
-479078
-477675
-477574
-478749
-479515
-478696
-477200
-476997
-478131
-478928
-477864
-476343
-476156
-477230
-477940
-476986
-475301
-475074
-476058
-476806
-475721
-474225
-474019
-475010
-475710
-474589
-473102
-472898
-474000
-474735
-473612
-472109
-471958
-473081
-473742
-472716
-471286
-471138
-472255
-472953
-472038
-470484
-470407
-471433
-472234
-471276
-469929
-469785
-470953
-471694
-470851
-469397
-469324
-470506
-471364
-470394
-469024
-469051
-470189
-470898
-470075
-468694
-468675
-469851
-470697
-469851
-468487
-468439
-469638
-470436
-469560
-468240
-468257
-469445
-470212
-469315
-467992
-468034
-469111
-469991
-469079
-467739
-467710
-468931
-469714
-468814
-467447
-467431
-468635
-469389
-468534
-467177
-467139
-468299
-469157
-468192
-466902
-466858
-468015
-468815
-467941
-466537
-466516
-467666
-468295
-467540
-466182
-466183
-467341
-468226
-467262
-465970
-466039
-467262
-468033
-467186
-465934
-465945
-467249
-468035
-467206
-465882
-465963
-467179
-468078
-467308
-465993
-466109
-467421
-468239
-467399
-466160
-466331
-467640
-468480
-467679
-466427
-466585
-467910
-468706
-467917
-466629
-466759
-468082
-468917
-468133
-466926
-466993
-468263
-469129
-468327
-466969
-467145
-468404
-469265
-468351
-467155
-467200
-468500
-469315
-468468
-467198
-467406
-468624
-469365
-468468
-467218
-467319
-468544
-469297
-468479
-467127
-467300
-468568
-469403
-468406
-467177
-467231
-468445
-469318
-468443
-467106
-467217
-468431
-469281
-468385
-467106
-467219
-468471
-469287
-468393
-467083
-467162
-468462
-469302
-468442
-467182
-467215
-468572
-469367
-468451
-467165
-467252
-468598
-469340
-468562
-467295
-467284
-468629
-469440
-468607
-467347
-467446
-469154
-469769
-468763
-467440
-467491
-468879
-469718
-468788
-467577
-467720
-469001
-469808
-468976
-467737
-467779
-469059
-469988
-469085
-467791
-467915
-469253
-470077
-469192
-467980
-468115
-469408
-470180
-469336
-468101
-468122
-469462
-470307
-469420
-468201
-468324
-469587
-470449
-469547
-468331
-468482
-469788
-470606
-469659
-468488
-468562
-469868
-470662
-469809
-468591
-468762
-470092
-470914
-470006
-468609
-468821
-470164
-470995
-470082
-468880
-469034
-470346
-471237
-470338
-469048
-469164
-470447
-471309
-470370
-469196
-469236
-470587
-471357
-470535
-469287
-469437
-470793
-471635
-470646
-469379
-469573
-470866
-471723
-470851
-469672
-469773
-471163
-471912
-471019
-469755
-469959
-471202
-472066
-471202
-469998
-470080
-471389
-472141
-471280
-469908
-470293
-471559
-472401
-471513
-470361
-470489
-471791
-472522
-471622
-470354
-470547
-471849
-472666
-471806
-470557
-470730
-471936
-472697
-471809
-470604
-470711
-472096
-472839
-471980
-470786
-470831
-472196
-472933
-472143
-470877
-471039
-472360
-473126
-472292
-470860
-471151
-472536
-473566
-472523
-471235
-471357
-472655
-473394
-472520
-471291
-471443
-472757
-473576
-472621
-471393
-471632
-473007
-473723
-472809
-471637
-471765
-473054
-473835
-472946
-471662
-471822
-473162
-473939
-472989
-471851
-471970
-473240
-474456
-473265
-471986
-472095
-473412
-474145
-473274
-471972
-472181
-473474
-474239
-473323
-472096
-472312
-473559
-474334
-473406
-472198
-472410
-473699
-474448
-473507
-472319
-472452
-473845
-474639
-473710
-472451
-472697
-474016
-474795
-473871
-472642
-472904
-474207
-475010
-474129
-472831
-473054
-474483
-475166
-474208
-473033
-473266
-474561
-475422
-474374
-473232
-473405
-474673
-475471
-474639
-473372
-473625
-474903
-475688
-474771
-473468
-473676
-475003
-475802
-474796
-473727
-473855
-475193
-475860
-474972
-473813
-474033
-475335
-476079
-475105
-473939
-474154
-475470
-476142
-475320
-474100
-474312
-475605
-476374
-475362
-474171
-474371
-475724
-476416
-475523
-474283
-474555
-475868
-476539
-475639
-474437
-474584
-475978
-476718
-475779
-474583
-474784
-476125
-476916
-475914
-474682
-474827
-476225
-476911
-475936
-474646
-474922
-476201
-476954
-475938
-474631
-474802
-476072
-476693
-475700
-474357
-474450
-475648
-476254
-475013
-473614
-473724
-474826
-475361
-474142
-472686
-472754
-473810
-474312
-473119
-471588
-471571
-472584
-473116
-471874
-470440
-470365
-471524
-472026
-470799
-469393
-469420
-470502
-470988
-469789
-468308
-468424
-469502
-469959
-468896
-467515
-467560
-468761
-469282
-468179
-466798
-466950
-468115
-468691
-467583
-466305
-466404
-467643
-468227
-467230
-465901
-466057
-467355
-468119
-466869
-465477
-465655
-466921
-467583
-466508
-465223
-465357
-466662
-467259
-466171
-464892
-465079
-466189
-466866
-465863
-464567
-464719
-465965
-466509
-465450
-464122
-464375
-465575
-466182
-465049
-463818
-463969
-465286
-465881
-464771
-463517
-463669
-464983
-465574
-464512
-463108
-463337
-464484
-465448
-464191
-462780
-462973
-464181
-464829
-463809
-462581
-462672
-463875
-464448
-463473
-462261
-462421
-463711
-464271
-463203
-461964
-462248
-463479
-464108
-463123
-461919
-462148
-463419
-464154
-463139
-461866
-462103
-463494
-464141
-463178
-461971
-462306
-463637
-464381
-463379
-462246
-462536
-463922
-464518
-463582
-462454
-462694
-464139
-464836
-463857
-462720
-463057
-464309
-465017
-464036
-462840
-463223
-464503
-465106
-464112
-462982
-463274
-464506
-465196
-464182
-463102
-463304
-464663
-465265
-464247
-463019
-463255
-464612
-465224
-464153
-462976
-463252
-464579
-465171
-464156
-462973
-463171
-464444
-465062
-464005
-462880
-463148
-464403
-465018
-463974
-462833
-463043
-464365
-465061
-463917
-462797
-463043
-464362
-465030
-463965
-462798
-463068
-464498
-465083
-464023
-462846
-463146
-464419
-465057
-464079
-462911
-463073
-464496
-465115
-464011
-462869
-463136
-464535
-465072
-464153
-462948
-463234
-464516
-465091
-464175
-462934
-463299
-464649
-465297
-464284
-463144
-463430
-464753
-465386
-464383
-463199
-463547
-464871
-465428
-464446
-463237
-463625
-464925
-465580
-464548
-463384
-463766
-465113
-465766
-464704
-463557
-463857
-465162
-465722
-464715
-463560
-463909
-465289
-465891
-464930
-463772
-464026
-465353
-466055
-465007
-463847
-464096
-465513
-466092
-465072
-463982
-464316
-465582
-466169
-465159
-464060
-464344
-465812
-466377
-465394
-464213
-464551
-465841
-466494
-465510
-464385
-464564
-466003
-466597
-465621
-464507
-464848
-466252
-466779
-465830
-464654
-464991
-466376
-466997
-465953
-464821
-465188
-466591
-467206
-466158
-465005
-465374
-466790
-467459
-466395
-465258
-465620
-466994
-467534
-466552
-465407
-465841
-467131
-467721
-466687
-465625
-465939
-467349
-467911
-466956
-465855
-466221
-467589
-468129
-467143
-465821
-466347
-467628
-468292
-467285
-466118
-466534
-467871
-468388
-467381
-466232
-466617
-467984
-468582
-467549
-466387
-466820
-468184
-468738
-467764
-466593
-466921
-468334
-468816
-467893
-466775
-467085
-468527
-469075
-468092
-466960
-467309
-468628
-469215
-468212
-467121
-467434
-468858
-469391
-468664
-467328
-467571
-469018
-469562
-468538
-467483
-467837
-469216
-469749
-468738
-467586
-468300
-469483
-469995
-468940
-467714
-468131
-469472
-470031
-468947
-467884
-468247
-469560
-470085
-469068
-468004
-468331
-469719
-470280
-469207
-468047
-468397
-469765
-470315
-469341
-468187
-468591
-469980
-470538
-469421
-468335
-468754
-470057
-470718
-469635
-468530
-468974
-470331
-470939
-469715
-468743
-469182
-470506
-471081
-470035
-468849
-469302
-470791
-471327
-470210
-469109
-469505
-470920
-471515
-470415
-469249
-469730
-471066
-471675
-470672
-469539
-469841
-471290
-471852
-470775
-469673
-470125
-471488
-472011
-471019
-469897
-470342
-471655
-472158
-471149
-470094
-470489
-471901
-472426
-471439
-470314
-470664
-472110
-472648
-471610
-470546
-470939
-472281
-472888
-471906
-470740
-471161
-472556
-473141
-472055
-470929
-471342
-472702
-473288
-472217
-471095
-471498
-472909
-473485
-472402
-471304
-471694
-473128
-473651
-472571
-471553
-471897
-473305
-473898
-472726
-471632
-472156
-473511
-474053
-472949
-471897
-472302
-473817
-474220
-473103
-472017
-472458
-473842
-474335
-473219
-472115
-472536
-473910
-474411
-473272
-472335
-472577
-473784
-474225
-473054
-471767
-472112
-473733
-472977
-471628
-470336
-470528
-471714
-471961
-470669
-469263
-469462
-470618
-470773
-469509
-468199
-468421
-469556
-469773
-468441
-467078
-467318
-468459
-468753
-467325
-466002
-466280
-467484
-467775
-466517
-465251
-465522
-466673
-466987
-465763
-464450
-464780
-465991
-466389
-465087
-463921
-464220
-465527
-465867
-464688
-463576
-463841
-465201
-465560
-464353
-463191
-463522
-464776
-465187
-464029
-462914
-463286
-464619
-465034
-463845
-462664
-463071
-464414
-464791
-463568
-462483
-462861
-464128
-464548
-463328
-462191
-462571
-463854
-464270
-463085
-461985
-462356
-463691
-464108
-462865
-461671
-462028
-463442
-463761
-462644
-461468
-461843
-463128
-463485
-462297
-461175
-461562
-462846
-463150
-462066
-460917
-461307
-462673
-463009
-461799
-460768
-461154
-462466
-462840
-461580
-460603
-460983
-462407
-462739
-461630
-460564
-460841
-462254
-462775
-461654
-460613
-461066
-462431
-462917
-461832
-460811
-461276
-462652
-463202
-462057
-461070
-461574
-462905
-463405
-462360
-461335
-461788
-463202
-463721
-462618
-461486
-462006
-463418
-463913
-462848
-461762
-462266
-463629
-464082
-462940
-461978
-462348
-463700
-464141
-463027
-461989
-462417
-463801
-464272
-463174
-462009
-462550
-463818
-464219
-463159
-462035
-462485
-463865
-464264
-463134
-462028
-462436
-463835
-464233
-463078
-462039
-462468
-463801
-464251
-463009
-461933
-462415
-463804
-464178
-463043
-461989
-462404
-463806
-464281
-463117
-462073
-462494
-463891
-464280
-463140
-462091
-462517
-463943
-464328
-463246
-462072
-462594
-464029
-464466
-463270
-462203
-462644
-464062
-464496
-463405
-462345
-462776
-464165
-464642
-463558
-462607
-463082
-464469
-464884
-463772
-462717
-463240
-464599
-464994
-463940
-462856
-463426
-464767
-465209
-464045
-463062
-463512
-464818
-465316
-464242
-463152
-463668
-465087
-465585
-464430
-463325
-463803
-465206
-465686
-464554
-463523
-463995
-465391
-465878
-464799
-463759
-464274
-465683
-466268
-464865
-463960
-464441
-465922
-466287
-465152
-464155
-464667
-466057
-466508
-465391
-464399
-464878
-466289
-466668
-465540
-464563
-465113
-466511
-466952
-465849
-464739
-465230
-466620
-467122
-466019
-464938
-465477
-466806
-467166
-466087
-465103
-465612
-467056
-467406
-466262
-465269
-465544
-467394
-467556
-466449
-465449
-465908
-467304
-467769
-466600
-465655
-466090
-467540
-467855
-466813
-465740
-466245
-467575
-468020
-466910
-465883
-466405
-467787
-468184
-466993
-465989
-466450
-467819
-468215
-467024
-466025
-466588
-467911
-468309
-467225
-466140
-466672
-468089
-468429
-467377
-466277
-466644
-468166
-468510
-467346
-466376
-466922
-468256
-468663
-467564
-466559
-467015
-468348
-468781
-467601
-466628
-467215
-468564
-468971
-467863
-466831
-467327
-468764
-469194
-468001
-466955
-467514
-468913
-469238
-468146
-467096
-467602
-469070
-469583
-468331
-467299
-467861
-469290
-469589
-468433
-467455
-467975
-469382
-469704
-468614
-467607
-468067
-469425
-469829
-468627
-467660
-468127
-469573
-470024
-468851
-467780
-468336
-469790
-470164
-469006
-468004
-468561
-469907
-470250
-469182
-468166
-468666
-470039
-470494
-469339
-468281
-468772
-470225
-470602
-469397
-468416
-469021
-470331
-470671
-469560
-468500
-469130
-470487
-470831
-469727
-468775
-469322
-470724
-471124
-469924
-468907
-469488
-470819
-471236
-470034
-469015
-469648
-471046
-471390
-470203
-469225
-469733
-471224
-471585
-470490
-469401
-469988
-471430
-471805
-470659
-469689
-470240
-471637
-472058
-470892
-469859
-470392
-471822
-472209
-471063
-470064
-470571
-471974
-472313
-471194
-469971
-470662
-472120
-472516
-471252
-470347
-470891
-472298
-472653
-471480
-470503
-471086
-472485
-472804
-471621
-470626
-471184
-472627
-472945
-471889
-470835
-471362
-472724
-473111
-471950
-470969
-471500
-472982
-473277
-472048
-471269
-471734
-473053
-473316
-472197
-471211
-471787
-473213
-473450
-472222
-471156
-471682
-473026
-473291
-471948
-470915
-471391
-472590
-472810
-471530
-470376
-470700
-471927
-472070
-470773
-469412
-469843
-470999
-471091
-469677
-468458
-468782
-469892
-469975
-468581
-467372
-467573
-468733
-468805
-467416
-466159
-466456
-467680
-467813
-466429
-465135
-465511
-466667
-466792
-465455
-464283
-464638
-465932
-466038
-464615
-463572
-463956
-465227
-465411
-464103
-463000
-463448
-464745
-464846
-463566
-462525
-463009
-464250
-464523
-463264
-462092
-462644
-463977
-464153
-462866
-461835
-462284
-463600
-463866
-462617
-461530
-462048
-463300
-463591
-462331
-461264
-461783
-463096
-463244
-461996
-461015
-461483
-462799
-463029
-461748
-460700
-461159
-462444
-462678
-461516
-460475
-460921
-462196
-462474
-461194
-460127
-460724
-461988
-462191
-460902
-459870
-460406
-461691
-461916
-460633
-459574
-460102
-461455
-461645
-460429
-459462
-459953
-461206
-461523
-460227
-459227
-459766
-461174
-461423
-460243
-459222
-459843
-461153
-461407
-460274
-459243
-459855
-461277
-461478
-460352
-459432
-460058
-461453
-461763
-460625
-459664
-460301
-461765
-461962
-460816
-459946
-460478
-461900
-462217
-461002
-460091
-460694
-462103
-462391
-461237
-460270
-460955
-462269
-462532
-461390
-460414
-461036
-462350
-462618
-461450
-460531
-461092
-462531
-462800
-461508
-460528
-461115
-462451
-462723
-461496
-460505
-461128
-462458
-462742
-461512
-460538
-460888
-462421
-462694
-461526
-460497
-461121
-462434
-462653
-461431
-460456
-461041
-462353
-462679
-461428
-460545
-461051
-462464
-462713
-461519
-460555
-461126
-462333
-462627
-461536
-460583
-461177
-462530
-462846
-461664
-460673
-461252
-462947
-462886
-461694
-460937
-461287
-462831
-463020
-461665
-460767
-461357
-462570
-462950
-461828
-460884
-461504
-462897
-463125
-461986
-460989
-461669
-462993
-463259
-462063
-461143
-461735
-463181
-463379
-462249
-461287
-461901
-463345
-463522
-462388
-461500
-462057
-463462
-463760
-462596
-461594
-462306
-463629
-463836
-462655
-461719
-462386
-463821
-464040
-462907
-461902
-462516
-463933
-464223
-463072
-462103
-462731
-464113
-464435
-463198
-462263
-462796
-464240
-464513
-463267
-462456
-463015
-464434
-464640
-463454
-462486
-463102
-464554
-464723
-463627
-462721
-463362
-464768
-465004
-463762
-462811
-463559
-464835
-465036
-464246
-463122
-463626
-465013
-465312
-464035
-463140
-463809
-465245
-465458
-464251
-463269
-463975
-465384
-465614
-464383
-463495
-464185
-465511
-465568
-464546
-463606
-464137
-465631
-465849
-464543
-463719
-464316
-465793
-465997
-464762
-463939
-464479
-465959
-466058
-464903
-463982
-464718
-466004
-466277
-465034
-464158
-464754
-466147
-466387
-465282
-464295
-464915
-466279
-466587
-465386
-464428
-465040
-466446
-466721
-465468
-464451
-465159
-466514
-467070
-465697
-464756
-465320
-466759
-466989
-465769
-464896
-465466
-466845
-467071
-465909
-464995
-465672
-467027
-467277
-466049
-465167
-465753
-467139
-467365
-466245
-465358
-465944
-467367
-467623
-466342
-465474
-466210
-467618
-467830
-466585
-465761
-466415
-467735
-467995
-466772
-465897
-466576
-467953
-468225
-466973
-466035
-466687
-468113
-468400
-467043
-466152
-466845
-468221
-468451
-467279
-466313
-467042
-468460
-468657
-467274
-466533
-467130
-468588
-468748
-467552
-466729
-467421
-468779
-468922
-467772
-466944
-467512
-468965
-469206
-467959
-467088
-467746
-469174
-469324
-468097
-467211
-467912
-469318
-469472
-468240
-467379
-467894
-469386
-469630
-468479
-467583
-468190
-469615
-469802
-468611
-467708
-468304
-469676
-469852
-468665
-467702
-468320
-469764
-470007
-468745
-467890
-468576
-469913
-470147
-468939
-468024
-468679
-470062
-470302
-469092
-468239
-468849
-470230
-470468
-469214
-468413
-469111
-470453
-470659
-469441
-468641
-469307
-470688
-470901
-469677
-468792
-469501
-470896
-471095
-469966
-469058
-469743
-471168
-471397
-470167
-469227
-469922
-471360
-471528
-470330
-469479
-470179
-471506
-471705
-470488
-469577
-470244
-471669
-471869
-470692
-469761
-470438
-471867
-472013
-470789
-469890
-470562
-471915
-472068
-470871
-470041
-470749
-472089
-472206
-470981
-470047
-470646
-472000
-472115
-470831
-469852
-470390
-471732
-471709
-470303
-469245
-469772
-470987
-470961
-469544
-468442
-468947
-470032
-470014
-468491
-467313
-467731
-468892
-468803
-467291
-466152
-466559
-467701
-467566
-466029
-464884
-465302
-466457
-466403
-464973
-463854
-464271
-465451
-465359
-463972
-462929
-463426
-464616
-464522
-463186
-462131
-462683
-463849
-463914
-462540
-461541
-462055
-463405
-463343
-462003
-461022
-461585
-462916
-462883
-461523
-460647
-461191
-462483
-462638
-461253
-460280
-460831
-462142
-462220
-461008
-459978
-460594
-461952
-462012
-460704
-459783
-460325
-461820
-461821
-460445
-459514
-460069
-461453
-461464
-460171
-459254
-459854
-461124
-461228
-459948
-458966
-459624
-460873
-460918
-459567
-458657
-459310
-460622
-460655
-459356
-458397
-458956
-460293
-460355
-459056
-458133
-458708
-459994
-460020
-458765
-457866
-458513
-459795
-459913
-458629
-457706
-458305
-459639
-459724
-458447
-457591
-458318
-459677
-459743
-458466
-457661
-458377
-459740
-459837
-458617
-457661
-458450
-459840
-460007
-458834
-457936
-458778
-460223
-460289
-459144
-458295
-458953
-460459
-460565
-459346
-458805
-459325
-460700
-460897
-459630
-458737
-459488
-460968
-461080
-459802
-458873
-459673
-461059
-461118
-459938
-459059
-459791
-461127
-461218
-459997
-459197
-459872
-461233
-461202
-460041
-459175
-459842
-461178
-461295
-460094
-459186
-459917
-461255
-461354
-460068
-459205
-459873
-461253
-461339
-460056
-459227
-459919
-461276
-461374
-460029
-459200
-459826
-461210
-461287
-460056
-459263
-459886
-461303
-461405
-460374
-459405
-459996
-461415
-461434
-460230
-459401
-460052
-461463
-461604
-460323
-459461
-460175
-461543
-461731
-460504
-459649
-460370
-461765
-461843
-460641
-459734
-460449
-461869
-461934
-460806
-459999
-460684
-461980
-462189
-460781
-460093
-460793
-462150
-462411
-461131
-460351
-460995
-462440
-462543
-461359
-460529
-461286
-462589
-462527
-461473
-460671
-461252
-462737
-462911
-461666
-460865
-461591
-463032
-463117
-461869
-461087
-461801
-463195
-463291
-462081
-461285
-461971
-463389
-463457
-462217
-461373
-462109
-463619
-463671
-462455
-461633
-462292
-463691
-463784
-462584
-461796
-462531
-463923
-464059
-462778
-461918
-462680
-464132
-464182
-462975
-462164
-462923
-464314
-464331
-463169
-462312
-462984
-464479
-464518
-463295
-462541
-463253
-464609
-464689
-463406
-462608
-463358
-464778
-464870
-463652
-462757
-463558
-464916
-465045
-463796
-463017
-463769
-465099
-465147
-464050
-463252
-463940
-465393
-465462
-464169
-463430
-464144
-465548
-465682
-464380
-463590
-464364
-465711
-465818
-464569
-463777
-464500
-465974
-466031
-464836
-464027
-464638
-466128
-466271
-465011
-464239
-464886
-466353
-466435
-465133
-464366
-465083
-466478
-466503
-465292
-464503
-465279
-466616
-466707
-465542
-464732
-465472
-466882
-466993
-465682
-464961
-465632
-467076
-467133
-465827
-465147
-465846
-467258
-467371
-466120
-465365
-466089
-467401
-467500
-466215
-465457
-466281
-467587
-467735
-466421
-465674
-466373
-467795
-468203
-466851
-465962
-466736
-468080
-468156
-466939
-466157
-466860
-468238
-468354
-467160
-466301
-467110
-468536
-468573
-467280
-466532
-467233
-468553
-468656
-467406
-466638
-467402
-468750
-468903
-467667
-466691
-467525
-468960
-469029
-467828
-467083
-467752
-469236
-469290
-468063
-467303
-467969
-469372
-469418
-468221
-467389
-468213
-469520
-469620
-468396
-467582
-468370
-469726
-469812
-468689
-467930
-468615
-470012
-470094
-468823
-468070
-468800
-470169
-470223
-468970
-468151
-468882
-470379
-470383
-469124
-468390
-469185
-470502
-470611
-469396
-468550
-469341
-470762
-470803
-469535
-468788
-469754
-470988
-470954
-469782
-468913
-469758
-471101
-471215
-469976
-469182
-469955
-471340
-471405
-470080
-469355
-470074
-471434
-471522
-470329
-469519
-470349
-471712
-471791
-470580
-469742
-470547
-471941
-472026
-470771
-470018
-470729
-472122
-472160
-470879
-470109
-470879
-472328
-472365
-471097
-470365
-471048
-472429
-472492
-471336
-470593
-471293
-472553
-472744
-471499
-470721
-471510
-472828
-472882
-471699
-470885
-471644
-473036
-473011
-471808
-471005
-471717
-473028
-473012
-471795
-470996
-471711
-472977
-472956
-471581
-470595
-471211
-472463
-472293
-470955
-469943
-470417
-471643
-471478
-469958
-468901
-469442
-470555
-470301
-468767
-467702
-468166
-469288
-469050
-467550
-466256
-466805
-468088
-467932
-466325
-465340
-465883
-466970
-466786
-465269
-464306
-464821
-465973
-465847
-464376
-463423
-464010
-465572
-465167
-463649
-462681
-463298
-464588
-464523
-463100
-462157
-462850
-464157
-464068
-462676
-461828
-462513
-463715
-463914
-462411
-461560
-462145
-463452
-463388
-462022
-461313
-461967
-463312
-463296
-461956
-461244
-461892
-463195
-463223
-461918
-461034
-461802
-463020
-462993
-461664
-460785
-461580
-462913
-462988
-461619
-460787
-461458
-462730
-462637
-461359
-460522
-461190
-462561
-462422
-461123
-460291
-461041
-462296
-462211
-460878
-460020
-460697
-461985
-461947
-460654
-459811
-460512
-461857
-461801
-460429
-459580
-460299
-461530
-461506
-460239
-459442
-460128
-461443
-461474
-460164
-459429
-460172
-461514
-461528
-460194
-459485
-460283
-461658
-461665
-460408
-459742
-460542
-461831
-461903
-460690
-459949
-460651
-462105
-462199
-460941
-460203
-461011
-462466
-462515
-461213
-460513
-461210
-462624
-462685
-461411
-460701
-461405
-462773
-462703
-461566
-460795
-461551
-462919
-462918
-461632
-460819
-461540
-462936
-462976
-461691
-460854
-461612
-463042
-462977
-461719
-460907
-461692
-463110
-463121
-461695
-460939
-461741
-462971
-463029
-461691
-460972
-461695
-462985
-463306
-461745
-460936
-461658
-462986
-462911
-461674
-460975
-461696
-463263
-463115
-461750
-460992
-461673
-463042
-463046
-461720
-460999
-461759
-463066
-463065
-461789
-461126
-461855
-463233
-463193
-461937
-461186
-461936
-463362
-462009
-461294
-462073
-463487
-463412
-462253
-461490
-462214
-463634
-463546
-462286
-461534
-462346
-463729
-463864
-462558
-461791
-462539
-463917
-463964
-462693
-461945
-462742
-464149
-464051
-462817
-462123
-462915
-464243
-464283
-462976
-462232
-463101
-464431
-464465
-463238
-462480
-463295
-464689
-464652
-463329
-462635
-463422
-464761
-464779
-463558
-462827
-463698
-464903
-464942
-463764
-463030
-463865
-465268
-465194
-463983
-463234
-464090
-465442
-465435
-464185
-463496
-464268
-465633
-465580
-464365
-463653
-464449
-465867
-465906
-464613
-463973
-464683
-466065
-466050
-464784
-464105
-464894
-466263
-466301
-465069
-464377
-465198
-466554
-466514
-465237
-464570
-465415
-466815
-466801
-465492
-464838
-465643
-467071
-467065
-465726
-465031
-465947
-467213
-467263
-465968
-465216
-466091
-467417
-467497
-466278
-465560
-466352
-467752
-467788
-466474
-465739
-466626
-467983
-467953
-466723
-466002
-466834
-468560
-468334
-466964
-466189
-467003
-468392
-468379
-467138
-466373
-467201
-468609
-468612
-467428
-466706
-467512
-468816
-468839
-467552
-466837
-467697
-469002
-469020
-467744
-467390
-467994
-469309
-469385
-467957
-467214
-467999
-469327
-469386
-468085
-467394
-468284
-469569
-469532
-468352
-467690
-468465
-469793
-469803
-468494
-467826
-468687
-469877
-469852
-468614
-467944
-468830
-470189
-470204
-468935
-468190
-468949
-470248
-470290
-468960
-468306
-469102
-470434
-470543
-469169
-468498
-469287
-470718
-470655
-469401
-468679
-469529
-470874
-470826
-469597
-468864
-469650
-471004
-470952
-469739
-469038
-469897
-471259
-471184
-469876
-469178
-470035
-471359
-471304
-470076
-469375
-470193
-471626
-471648
-470303
-469649
-470425
-471861
-471820
-470464
-469835
-470714
-472045
-471986
-470664
-469952
-470739
-472128
-472093
-470825
-470206
-471085
-472404
-472469
-471106
-470437
-471244
-472637
-472665
-471547
-470720
-471481
-473190
-472931
-471590
-470834
-471678
-473119
-473149
-471852
-471189
-471992
-473429
-473370
-472116
-471479
-472274
-473660
-473659
-472433
-471815
-472588
-473945
-473804
-472580
-471989
-472750
-474142
-474157
-472861
-472198
-473042
-474403
-474388
-473141
-472396
-473249
-474552
-474534
-473305
-472545
-473448
-474822
-474754
-473616
-472833
-473640
-474962
-474949
-473673
-472934
-473713
-475073
-475007
-473667
-472934
-473690
-475055
-474946
-473472
-472635
-473383
-474522
-474321
-472807
-471999
-472693
-473792
-473513
-471999
-471152
-471767
-472876
-472614
-471010
-470029
-470592
-471683
-471312
-469829
-468884
-469529
-470504
-470223
-468723
-467843
-468421
-469502
-469269
-467722
-466820
-467461
-468617
-468333
-466772
-465923
-466615
-467806
-467556
-466166
-465221
-465939
-467247
-467061
-465546
-464725
-465478
-466711
-465076
-466138
-464822
-466100
-465866
-465773
-464349
-463677
-464697
-465738
-465619
-464209
-463490
-464299
-465610
-465413
-464073
-463306
-464176
-465379
-465281
-463913
-463193
-463924
-465255
-465116
-463747
-462974
-463777
-465074
-464813
-463605
-462789
-463540
-464704
-464638
-463295
-462536
-463300
-464613
-464422
-463117
-462342
-463151
-464419
-464305
-462943
-462261
-463029
-464340
-464212
-462933
-462157
-463023
-464413
-464325
-462963
-462330
-463182
-464481
-464454
-463168
-462502
-463403
-464751
-464619
-463357
-462683
-463549
-464861
-464854
-463561
-463182
-463913
-465212
-465150
-463836
-463145
-463972
-465251
-465188
-463934
-463202
-464126
-465501
-465392
-464018
-463380
-464308
-465596
-465460
-464096
-463444
-464287
-465589
-465478
-464114
-463442
-464297
-465585
-465418
-464090
-463367
-464249
-465557
-465431
-464046
-463361
-464200
-465558
-465433
-464072
-463373
-464200
-465452
-465365
-463985
-463394
-464240
-465541
-465312
-464051
-463422
-464204
-465472
-465349
-464036
-463235
-464237
-465535
-465405
-464157
-463458
-464360
-465661
-465596
-464260
-463566
-464342
-465751
-465945
-464395
-463735
-464562
-465803
-465700
-464442
-463942
-464773
-466184
-466072
-464847
-464276
-465180
-466454
-466239
-464804
-464226
-464973
-466207
-466053
-464810
-464185
-465023
-466438
-466396
-465147
-464492
-465357
-466781
-466695
-465438
-464660
-465559
-466854
-466748
-465419
-464759
-465608
-466912
-466837
-465516
-464931
-465810
-467115
-467062
-465671
-465095
-465911
-467334
-467166
-465812
-465093
-465990
-467212
-467132
-465895
-465272
-466090
-467423
-467312
-466087
-465438
-466246
-467593
-467506
-466215
-465533
-466464
-467717
-467703
-466339
-465659
-466578
-467966
-467761
-466491
-465876
-466810
-468155
-468060
-466733
-466101
-466973
-468310
-468150
-466804
-466183
-467074
-468404
-468292
-466990
-466319
-467273
-468486
-468365
-467061
-466533
-467363
-468729
-468646
-467569
-466757
-467611
-468869
-468751
-467473
-466862
-467666
-469049
-468940
-467649
-467005
-467843
-469195
-469092
-467773
-467030
-467945
-469322
-469279
-467968
-467261
-468097
-469404
-469248
-467976
-467366
-468199
-469590
-469441
-468155
-467493
-468440
-469815
-469638
-468380
-467692
-468591
-469905
-469789
-468494
-467865
-468801
-470106
-470015
-468698
-468021
-468950
-470265
-470163
-468916
-468324
-469186
-470550
-470400
-469072
-468500
-469386
-470684
-470660
-469269
-468711
-469564
-470940
-470779
-469463
-468870
-469811
-471107
-471017
-469668
-469097
-470033
-471294
-471213
-469796
-469195
-470137
-471476
-471314
-470014
-469434
-470301
-471644
-471510
-469839
-470748
-472082
-471885
-470595
-469991
-470957
-472230
-472088
-470826
-470146
-471079
-472463
-472290
-470996
-470342
-471277
-472646
-472481
-471090
-470539
-471393
-472728
-472653
-471327
-470721
-471523
-472917
-472769
-471444
-470805
-471721
-473066
-472853
-471568
-470969
-471902
-473214
-473053
-471730
-472242
-473554
-473428
-472117
-471477
-472403
-473716
-473647
-472293
-471662
-472609
-473902
-473782
-472465
-471872
-472810
-474206
-474017
-472686
-472002
-472980
-474232
-474173
-472855
-472319
-473101
-474467
-474327
-473008
-472456
-473348
-474633
-474471
-473183
-472530
-473420
-474809
-474658
-473382
-472751
-474985
-474870
-473546
-473002
-473880
-475254
-475015
-473727
-473121
-473971
-475346
-475169
-473849
-473264
-474188
-475536
-475262
-473969
-473332
-474172
-475405
-475165
-473770
-473106
-473980
-475255
-474878
-473347
-472599
-473350
-474494
-474327
-472642
-471756
-472438
-473448
-473100
-471529
-470645
-471320
-472355
-471905
-470270
-469423
-470003
-471044
-470568
-469079
-468137
-468851
-469872
-469433
-467899
-467039
-467946
-468869
-468383
-466766
-465957
-466694
-467775
-467421
-465870
-465014
-465832
-466966
-466596
-465066
-464379
-465148
-466311
-466018
-464562
-463847
-464615
-465828
-465504
-464091
-463401
-464186
-465341
-465060
-463727
-462975
-463768
-464984
-464759
-463304
-462713
-463514
-464732
-464398
-463088
-462351
-463120
-464364
-464003
-462715
-462016
-462936
-464132
-463782
-462530
-461747
-462454
-463668
-463353
-461887
-461262
-462054
-463201
-462932
-461503
-460868
-461593
-462689
-462387
-460977
-460199
-461100
-462261
-461886
-460344
-459722
-460561
-461715
-461360
-459920
-459312
-460179
-461354
-461059
-459617
-459000
-459772
-461039
-460699
-459377
-458770
-459644
-460895
-460594
-459239
-458706
-459626
-460852
-460655
-459310
-458744
-459639
-460989
-460769
-459504
-458931
-459855
-461167
-461014
-460016
-460322
-459801
-460730
-460505
-462207
-461999
-460644
-460045
-460971
-462233
-461975
-460665
-460056
-460917
