PPG
-383446
-383316
-383337
-383645
-383846
-383732
-383638
-383625
-383808
-384035
-384016
-383810
-383825
-384076
-384312
-384237
-384061
-384017
-384275
-384470
-384431
-384220
-384216
-384406
-384592
-384574
-384324
-384303
-384594
-384845
-384777
-384512
-384456
-384763
-385042
-384983
-384726
-384735
-384973
-385157
-385072
-384890
-384895
-385212
-385424
-385327
-385112
-384999
-385404
-385607
-385498
-385331
-385409
-385653
-385889
-385750
-385557
-385937
-386034
-386187
-386110
-385919
-386005
-386238
-386446
-386414
-386164
-386308
-386593
-386814
-386766
-386767
-386634
-386909
-387142
-387032
-386844
-386907
-387214
-387435
-387353
-387223
-387248
-387542
-387774
-387729
-387490
-387571
-387781
-388021
-387995
-387838
-387937
-388244
-388454
-388395
-388243
-388285
-388593
-388860
-388952
-388574
-388645
-388838
-389040
-388877
-388680
-388573
-388901
-388849
-388526
-388084
-387770
-387481
-387168
-386500
-385585
-384903
-384306
-383551
-382533
-381264
-380212
-379322
-378383
-377126
-375722
-374618
-373629
-372667
-371488
-370167
-369098
-368229
-367438
-366302
-365140
-364299
-363643
-363030
-362141
-361250
-360562
-360121
-359699
-359085
-358387
-357984
-357682
-357554
-357097
-356664
-356412
-356395
-356428
-356153
-355875
-355787
-355938
-356079
-355985
-355790
-355953
-356205
-356532
-356495
-356472
-356592
-357028
-357344
-357404
-357395
-357632
-358036
-358372
-358562
-358673
-358904
-359361
-359754
-359819
-359893
-360122
-360538
-360931
-361089
-361127
-361396
-361824
-362209
-362305
-362278
-362524
-362942
-363246
-363354
-363353
-363529
-363808
-364179
-364246
-364245
-364338
-364701
-365038
-365094
-365075
-365228
-365602
-365895
-365907
-365942
-366156
-366476
-366803
-366883
-366871
-367092
-367420
-367743
-367899
-367911
-368108
-368457
-368800
-368855
-368880
-369144
-369520
-369870
-369952
-369932
-370110
-370535
-370831
-370851
-370863
-371028
-371349
-371641
-371615
-371574
-371662
-371969
-372221
-372247
-372140
-372182
-372457
-372674
-372573
-372391
-372441
-372673
-372803
-372667
-372556
-372579
-372692
-372863
-372737
-372505
-372445
-372602
-372715
-372531
-372311
-372298
-372380
-372504
-372237
-371989
-371985
-372095
-372227
-372091
-371797
-371675
-371868
-371879
-371775
-371544
-371425
-371577
-371674
-371535
-371198
-371230
-371372
-371507
-371361
-371202
-371164
-371331
-371487
-371380
-371246
-371271
-371414
-371596
-371461
-371315
-371402
-371618
-371692
-371684
-371541
-371595
-371900
-372048
-371920
-371874
-372027
-372264
-372384
-372433
-372286
-372435
-372719
-372900
-372844
-372864
-372972
-373270
-373426
-373460
-373420
-373590
-373875
-374107
-374056
-373993
-374149
-374407
-374709
-374723
-374668
-374893
-375176
-375410
-375422
-375390
-375576
-375895
-376164
-376225
-376108
-376246
-376595
-376835
-376885
-376849
-376979
-377275
-377580
-377546
-377473
-377669
-377964
-378244
-378195
-378192
-378328
-378578
-378810
-378875
-378776
-378934
-379245
-379487
-379380
-379359
-379518
-379796
-379920
-380007
-379975
-380070
-380325
-380550
-380523
-380484
-380597
-380900
-381018
-380911
-380878
-380965
-381228
-381505
-381386
-381338
-381430
-381768
-381969
-381873
-381770
-381853
-382104
-382342
-382316
-382201
-382354
-382549
-382775
-382741
-382662
-382725
-382964
-383105
-383059
-382924
-383065
-383298
-383436
-383368
-383285
-383381
-383551
-383707
-383631
-383527
-383600
-383861
-383947
-383880
-383760
-383776
-383963
-384059
-384040
-383909
-383931
-384121
-384292
-384159
-384015
-384122
-384356
-384507
-384324
-384281
-384221
-384432
-384601
-384511
-384385
-384479
-384652
-384813
-384684
-384555
-384594
-384910
-385128
-384953
-384830
-385037
-385231
-385379
-385297
-385185
-385269
-385533
-385668
-385619
-385424
-385540
-385826
-385990
-385860
-385773
-385889
-386181
-386378
-386255
-386153
-386278
-386574
-386714
-386672
-386577
-386759
-386947
-387133
-387053
-386940
-387052
-387395
-387535
-387435
-387341
-387419
-387767
-387944
-387808
-387729
-387870
-388138
-388259
-388135
-388076
-388161
-388493
-388611
-388459
-388387
-388463
-388685
-388832
-388678
-388545
-388575
-388675
-388674
-388417
-388047
-387860
-387706
-387498
-386931
-386220
-385677
-385203
-384465
-383489
-382470
-381581
-380818
-379925
-378711
-377458
-376471
-375508
-374491
-373279
-372105
-371178
-370263
-369361
-368264
-367193
-366352
-365658
-364895
-363892
-363046
-362324
-361822
-361268
-360594
-359844
-359391
-359123
-358766
-358230
-357729
-357544
-357454
-357233
-356939
-356657
-356568
-356689
-356750
-356552
-356445
-356558
-356740
-356949
-356868
-356901
-357060
-357409
-357626
-357675
-357745
-357992
-358464
-358788
-358843
-358952
-359316
-359737
-360089
-360207
-360314
-360613
-361066
-361488
-361628
-361680
-362025
-362462
-362814
-362869
-362949
-363279
-363776
-364116
-364184
-364281
-364503
-365027
-365276
-365361
-365419
-365685
-366174
-366434
-366505
-366619
-366843
-367263
-367604
-367711
-367749
-368028
-368365
-368705
-368695
-368854
-369107
-369587
-369881
-369919
-370004
-370307
-370721
-370964
-371055
-371082
-371373
-371715
-371968
-371996
-372100
-372309
-372698
-372888
-372924
-372911
-373123
-373408
-373592
-373536
-373449
-373562
-373887
-373963
-373853
-373742
-373858
-374120
-374125
-373945
-373763
-373867
-374107
-374117
-373885
-373700
-373728
-373895
-373904
-373653
-373413
-373350
-373493
-373458
-373246
-372950
-372962
-373061
-373043
-372808
-372596
-372539
-372690
-372605
-372348
-372126
-372034
-372148
-372076
-371878
-371678
-371686
-371767
-371731
-371575
-371359
-371322
-371467
-371414
-371211
-371069
-371032
-371165
-371180
-371055
-370854
-370829
-371068
-371117
-370929
-370832
-370910
-371109
-371205
-371034
-370887
-371094
-371317
-371434
-371302
-371236
-371377
-371622
-371676
-371639
-371492
-371667
-371952
-372088
-371950
-371922
-372096
-372461
-372618
-372449
-372508
-372693
-372975
-373195
-373100
-373115
-373352
-373631
-373836
-373795
-373712
-373928
-374209
-374434
-374369
-374409
-374595
-374953
-375068
-375076
-374991
-375246
-375547
-375746
-375710
-375618
-375869
-376182
-376361
-376327
-376314
-376485
-376822
-377053
-376998
-377017
-377150
-377452
-377683
-377655
-377588
-377791
-378060
-378261
-378210
-378231
-378430
-378710
-378824
-378750
-378730
-378829
-379189
-379331
-379280
-379197
-379324
-379627
-379801
-379685
-379635
-379830
-380072
-380166
-380154
-380075
-380105
-380381
-380533
-380456
-380348
-380556
-380830
-380879
-380732
-380620
-380728
-380973
-381098
-381031
-380898
-381042
-381222
-381318
-381198
-381065
-381206
-381454
-381522
-381356
-381352
-381360
-381564
-381649
-381510
-381372
-381425
-381678
-381753
-381571
-381432
-381479
-381681
-381732
-381531
-381400
-381527
-381705
-381690
-381572
-381387
-381498
-381815
-381770
-381577
-381492
-381561
-381744
-381861
-381708
-381521
-381684
-381872
-381876
-381779
-381592
-381736
-381953
-381982
-381930
-381720
-381833
-382131
-382212
-381988
-381883
-382015
-382223
-382317
-382153
-382033
-382163
-382285
-382449
-382273
-382144
-382288
-382510
-382649
-382439
-382362
-382430
-382734
-382807
-382620
-382572
-382723
-382938
-382973
-382885
-382782
-382912
-383038
-383168
-383042
-382954
-383065
-383279
-383329
-383199
-383168
-383213
-383498
-383618
-383418
-383269
-383413
-383708
-383745
-383576
-383507
-383628
-383877
-383810
-383626
-383517
-383625
-383832
-383830
-383584
-383392
-383400
-383525
-383432
-383056
-382632
-382473
-382320
-381858
-381185
-380527
-380053
-379515
-378841
-377841
-376907
-376093
-375463
-374501
-373410
-372258
-371474
-370650
-369765
-368588
-367539
-366699
-366028
-365163
-364187
-363386
-362604
-362036
-361360
-360483
-359779
-359348
-358913
-358443
-357779
-357233
-356950
-356708
-356388
-355972
-355560
-355485
-355349
-355327
-355047
-354801
-354886
-355029
-355062
-354985
-354800
-355077
-355374
-355518
-355504
-355484
-355821
-356192
-356466
-356632
-356624
-357068
-357518
-357672
-357830
-358061
-358418
-358954
-359299
-359455
-359687
-360118
-360676
-361013
-361173
-361400
-361778
-362351
-362639
-362737
-362949
-363499
-363984
-364325
-364472
-364699
-365066
-365621
-366001
-366038
-366252
-366670
-367136
-367496
-367578
-367873
-368227
-368793
-369050
-369225
-369424
-369799
-370220
-370616
-370712
-370895
-371242
-371793
-372066
-372139
-372273
-372616
-373098
-373294
-373304
-373416
-373709
-374054
-374276
-374181
-374246
-374437
-374769
-374848
-374719
-374751
-374894
-375060
-375087
-374946
-374811
-374931
-375089
-375072
-374858
-374625
-374713
-374796
-374695
-374380
-374177
-374245
-374296
-374165
-373887
-373836
-373680
-373675
-373581
-373196
-372965
-372825
-372922
-372747
-372378
-372182
-372123
-372168
-371993
-371667
-371418
-371459
-371499
-371333
-371067
-370902
-370847
-370908
-370775
-370475
-370338
-370317
-370418
-370406
-370392
-370021
-370070
-370175
-370144
-369967
-369990
-369959
-370121
-370110
-369901
-369809
-369877
-370069
-370137
-369905
-369877
-370076
-370292
-370379
-370216
-370141
-370359
-370668
-370747
-370671
-370628
-370907
-371187
-371277
-371161
-371149
-371458
-371729
-371872
-371748
-371770
-372065
-372356
-372580
-372450
-372517
-372765
-373055
-373221
-373291
-373547
-373941
-374061
-374024
-374147
-374389
-374736
-374867
-374910
-374984
-375242
-375610
-375701
-375759
-375893
-376152
-376512
-376684
-376663
-376747
-377071
-377356
-377516
-377436
-377563
-377885
-378290
-378457
-378477
-378572
-378884
-379304
-379472
-379516
-379652
-379944
-380363
-380494
-380474
-380566
-380889
-381307
-381459
-381425
-381503
-381783
-382172
-382343
-382242
-382227
-382623
-382947
-383082
-382967
-383049
-383221
-383561
-383591
-383466
-383521
-383741
-384052
-384066
-383885
-383894
-384143
-384278
-384315
-384181
-384107
-384252
-384534
-384457
-384337
-384250
-384369
-384649
-384642
-384395
-384299
-384480
-384735
-384745
-384588
-384459
-384640
-384859
-384861
-384682
-384563
-384689
-384969
-384870
-384671
-384658
-384767
-384941
-384952
-384740
-384720
-384879
-385094
-385023
-384819
-384776
-384912
-385111
-385091
-384897
-384804
-385008
-385279
-385256
-385115
-384986
-385199
-385395
-385422
-385285
-385160
-385347
-385588
-385556
-385419
-385340
-385530
-385723
-385728
-385622
-385510
-385712
-385921
-385910
-385715
-385637
-385858
-386090
-386102
-385915
-385921
-386064
-386301
-386363
-386137
-386076
-386202
-386453
-386491
-386261
-386292
-386433
-386651
-386670
-386519
-386446
-386723
-386961
-386918
-386785
-386770
-386973
-387246
-387279
-387045
-386947
-387374
-387443
-387327
-387099
-386883
-387000
-387025
-386831
-386424
-386024
-385808
-385527
-385049
-384291
-383560
-382920
-382289
-381412
-380289
-379301
-378430
-377578
-376548
-375290
-374197
-373193
-372362
-371284
-370039
-368979
-368129
-367390
-366443
-365342
-364393
-363679
-363090
-362285
-361400
-360647
-360116
-359769
-359159
-358438
-357875
-357504
-357336
-356953
-356422
-356109
-355979
-356009
-355813
-355419
-355267
-355360
-355642
-355517
-355294
-355330
-355558
-355825
-355937
-355846
-355940
-356309
-356674
-356799
-356848
-357055
-357466
-357923
-358087
-358034
-358317
-358818
-359370
-359590
-359718
-360033
-360400
-360884
-361116
-361214
-361477
-361906
-362367
-362634
-362664
-362942
-363279
-363730
-363982
-364037
-364218
-364618
-365088
-365289
-365281
-365442
-365902
-366304
-366446
-366513
-366635
-366993
-367445
-367605
-367630
-367802
-368199
-368602
-368729
-368795
-368985
-369313
-369730
-369917
-369869
-370063
-370406
-370803
-370973
-371013
-371170
-371502
-371857
-371987
-371981
-372071
-372411
-372760
-372856
-372759
-372825
-373086
-373451
-373488
-373391
-373456
-373679
-373873
-373868
-373741
-373733
-373891
-374113
-374070
-373811
-373745
-373903
-374019
-373954
-373649
-373576
-373731
-373755
-373600
-373357
-373201
-373313
-373440
-373358
-372984
-372829
-372975
-373004
-372857
-372612
-372421
-372536
-372656
-372482
-372254
-372124
-372137
-372291
-372117
-371822
-371713
-371783
-371911
-371836
-371550
-371434
-371557
-371694
-371645
-371389
-371297
-371372
-371523
-371686
-371342
-371169
-371318
-371524
-371452
-371262
-371246
-371405
-371592
-371582
-371484
-371455
-371709
-371880
-371875
-371808
-371802
-372045
-372277
-372378
-372181
-372207
-372523
-372802
-372631
-372680
-373058
-373315
-373330
-373273
-373362
-373638
-373933
-374063
-373931
-373971
-374303
-374621
-374686
-374614
-374697
-374994
-375336
-375414
-375310
-375497
-375824
-376116
-376173
-376113
-376232
-376559
-376967
-376981
-376881
-376955
-377365
-377646
-377675
-377610
-377706
-378042
-378356
-378418
-378413
-378471
-378716
-379064
-379121
-379051
-379111
-379516
-379836
-379909
-379768
-379871
-380141
-380444
-380501
-380418
-380548
-380785
-381144
-381118
-381058
-381034
-381411
-381698
-381724
-381643
-381626
-381872
-382163
-382208
-382081
-382123
-382339
-382640
-382648
-382579
-382572
-382829
-383082
-383056
-382979
-383046
-383240
-383532
-383475
-383368
-383321
-383527
-383771
-383795
-383612
-383664
-383947
-384052
-383995
-383897
-383857
-383981
-384216
-384270
-384074
-384107
-384303
-384438
-384446
-384279
-384143
-384324
-384586
-384490
-384321
-384338
-384564
-384765
-384696
-384533
-384539
-384664
-384835
-384829
-384624
-384629
-384831
-385045
-385000
-384827
-384802
-385017
-385215
-385136
-385018
-385028
-385238
-385502
-385415
-385272
-385240
-385494
-385707
-385737
-385559
-385582
-385808
-386006
-386050
-385840
-385927
-386183
-386445
-386393
-386195
-386238
-386465
-386709
-386682
-386543
-386558
-386781
-386936
-386856
-386740
-386802
-387026
-387225
-387248
-387145
-387109
-387398
-387568
-387585
-387350
-387408
-387664
-387877
-387868
-387692
-387675
-387968
-388221
-388302
-388018
-387989
-388269
-388387
-388354
-388178
-388144
-388304
-388349
-388152
-387789
-387558
-387501
-387321
-386872
-386125
-385522
-385050
-384514
-383591
-382538
-381530
-380759
-379814
-378705
-377344
-376203
-375197
-374211
-372991
-371604
-370487
-369530
-368605
-367472
-366225
-365157
-364434
-363636
-362663
-361642
-360875
-360248
-359668
-358927
-358081
-357546
-357198
-356843
-356375
-355731
-355344
-355194
-354940
-354747
-354401
-354192
-354320
-354384
-354141
-353978
-353959
-354134
-354297
-354268
-354164
-354327
-354684
-354931
-355067
-355055
-355261
-355641
-356068
-356202
-356326
-356559
-356958
-357398
-357537
-357610
-357966
-358387
-358859
-359025
-359195
-359373
-359892
-360280
-360526
-360582
-360902
-361303
-361669
-361832
-361870
-362156
-362592
-362929
-363090
-363135
-363371
-363732
-364090
-364190
-364275
-364489
-364840
-365179
-365297
-365572
-365608
-365919
-366290
-366322
-366407
-366652
-366972
-367345
-367487
-367478
-367702
-368137
-368512
-368650
-368657
-368782
-369159
-369531
-369655
-369645
-369938
-370266
-370563
-370621
-370598
-370802
-371225
-371472
-371536
-371452
-371624
-371877
-372110
-372164
-371964
-372053
-372296
-372519
-372491
-372340
-372325
-372581
-372694
-372569
-372480
-372382
-372552
-372638
-372504
-372339
-372288
-372438
-372517
-372324
-372121
-372054
-372148
-372180
-371983
-371744
-371645
-371742
-371799
-371895
-371446
-371250
-371359
-371382
-371187
-370944
-370817
-370961
-371038
-370863
-370620
-370472
-370633
-370747
-370557
-370384
-370322
-370424
-370533
-370411
-370198
-370216
-370361
-370495
-370466
-370167
-370143
-370361
-370484
-370472
-370321
-370353
-370548
-370761
-370686
-370519
-370675
-370800
-371007
-370998
-370923
-371058
-371568
-371628
-371516
-371413
-371564
-371708
-372023
-372007
-371950
-372128
-372425
-372651
-372674
-372656
-372786
-373117
-373401
-373399
-373320
-373523
-373842
-374115
-374118
-374078
-374215
-374551
-374885
-374919
-374780
-374984
-375306
-375520
-375617
-375609
-375798
-376087
-376362
-376421
-376359
-376566
-376864
-377168
-377173
-377130
-377270
-377663
-377908
-377957
-377894
-378030
-378369
-378725
-378696
-378612
-378795
-379111
-379317
-379394
-379309
-379390
-379681
-379922
-379916
-379817
-380018
-380334
-380534
-380462
-380413
-380528
-380829
-381098
-381066
-380911
-381049
-381359
-381600
-381484
-381386
-381446
-381764
-381924
-381858
-381758
-381845
-382114
-382327
-382204
-382061
-382187
-382416
-382602
-382508
-382334
-382414
-382536
-382699
-382602
-382433
-382483
-382740
-382874
-382743
-382628
-382672
-382849
-382941
-382871
-382707
-382746
-382939
-383042
-382940
-382697
-382803
-382995
-383135
-383002
-382805
-382774
-382970
-383026
-382979
-382799
-382794
-383091
-383150
-383066
-382878
-382849
-383096
-383270
-383070
-382953
-382970
-383156
-383267
-383250
-383040
-383100
-383175
-383396
-383339
-383111
-383151
-383361
-383547
-383487
-383343
-383382
-383567
-383705
-383655
-383409
-383459
-383705
-383811
-383665
-383574
-383651
-383884
-384033
-383899
-383682
-383754
-384004
-384149
-384034
-383810
-383893
-384130
-384288
-384193
-384094
-384082
-384284
-384470
-384335
-384181
-384328
-384548
-384730
-384592
-384442
-384501
-384771
-384904
-384825
-384710
-384734
-384994
-385126
-385037
-384822
-384755
-385066
-385130
-384984
-384708
-384642
-384725
-384623
-384245
-383703
-383406
-383202
-382787
-382057
-381246
-380559
-379987
-379217
-378149
-377014
-376070
-375258
-374356
-373213
-372293
-371092
-370218
-369246
-368142
-366997
-366038
-365306
-364513
-363582
-362528
-361732
-361140
-360549
-359718
-358893
-358307
-357871
-357429
-356891
-356231
-355826
-355661
-355413
-354983
-354555
-354379
-354339
-354266
-354007
-353698
-353677
-353813
-353913
-353753
-353645
-353750
-354047
-354262
-354170
-354164
-354372
-354854
-355057
-355101
-355211
-355522
-355909
-356253
-356452
-356561
-356915
-357362
-357754
-357927
-358022
-358400
-358915
-359345
-359534
-359711
-360124
-360654
-360999
-361208
-361357
-361746
-362277
-362738
-362874
-363023
-363364
-363915
-364304
-364433
-364587
-364967
-365466
-365679
-365980
-366135
-366462
-366974
-367433
-367466
-367637
-368031
-368511
-368875
-368981
-369076
-369420
-369863
-370301
-370428
-370503
-370735
-371242
-371596
-371615
-371725
-371958
-372357
-372614
-372674
-372622
-372837
-373185
-373396
-373337
-373290
-373422
-373683
-373814
-373721
-373532
-373660
-373781
-373859
-373622
-373496
-373449
-373556
-373598
-373371
-373072
-373003
-373059
-373079
-372755
-372447
-372385
-372411
-372395
-372142
-371747
-371641
-371698
-371645
-371321
-370992
-370909
-370922
-370953
-370548
-370117
-370056
-370106
-370049
-369787
-369422
-369349
-369326
-369491
-369118
-368757
-368647
-368706
-368645
-368335
-368063
-368017
-368108
-368112
-367847
-367612
-367602
-367754
-367806
-367561
-367322
-367370
-367554
-367702
-367478
-367226
-367310
-367535
-367621
-367434
-367267
-367399
-367550
-367713
-367645
-367554
-367599
-367913
-368017
-367895
-367814
-367986
-368216
-368410
-368337
-368259
-368382
-368728
-368896
-368891
-368805
-369013
-369273
-369516
-369517
-369498
-369695
-370017
-370184
-370111
-370103
-370305
-370735
-370946
-370919
-370876
-371114
-371403
-371617
-371593
-371522
-371769
-372025
-372244
-372263
-372175
-372410
-372747
-372962
-372952
-372911
-373112
-373473
-373576
-373550
-373526
-373702
-374075
-374278
-374246
-374166
-374439
-374673
-374899
-374762
-374779
-374850
-375173
-375304
-375286
-375123
-375353
-375576
-375788
-375682
-375638
-375765
-376074
-376231
-376105
-375953
-376110
-376416
-376531
-376370
-376294
-376452
-376679
-376760
-376694
-376596
-376652
-376921
-377042
-376937
-376815
-376912
-377151
-377209
-377098
-376972
-377132
-377390
-377378
-377324
-377126
-377184
-377458
-377603
-377380
-377256
-377342
-377534
-377600
-377566
-377419
-377476
-377705
-377794
-377634
-377463
-377562
-377744
-377856
-377740
-377639
-377740
-377892
-378106
-377879
-377723
-377824
-378074
-378200
-377982
-377897
-377978
-378209
-378255
-378113
-378053
-378186
-378321
-378364
-378251
-378101
-378150
-378350
-378463
-378214
-378107
-378220
-378430
-378467
-378333
-378108
-378244
-378480
-378557
-378365
-378231
-378414
-378557
-378567
-378373
-378253
-378360
-378576
-378642
-378511
-378319
-378338
-378655
-378704
-378538
-378436
-378493
-378729
-378722
-378555
-378378
-378457
-378626
-378644
-378435
-378177
-378128
-378270
-378162
-377800
-377447
-377207
-377020
-376696
-376072
-375392
-374816
-374393
-373708
-372714
-371750
-370958
-370128
-369201
-368116
-366970
-366278
-365254
-364242
-363092
-361919
-360954
-360202
-359348
-358293
-357183
-356410
-355754
-355014
-354094
-353197
-352623
-352182
-351608
-350885
-350181
-349700
-349514
-349101
-348556
-348105
-347940
-347775
-347643
-347232
-346929
-346914
-347001
-346968
-346759
-346621
-346765
-346955
-347014
-347012
-346868
-347189
-347582
-347767
-347820
-347868
-348224
-348660
-348936
-349022
-349162
-349469
-349966
-350362
-350554
-350709
-351107
-351576
-351946
-352109
-352358
-352773
-353251
-353646
-353813
-354055
-354538
-354972
-355326
-355467
-355631
-356031
-356596
-356949
-357054
-357498
-357698
-358165
-358268
-358428
-358718
-359041
-359453
-359876
-360008
-360185
-360539
-360868
-361277
-361453
-361567
-361866
-362369
-362671
-362766
-362849
-363595
-363866
-364070
-364063
-364173
-364506
-364926
-365127
-365151
-365209
-365491
-365827
-365994
-365995
-365956
-366161
-366522
-366611
-366576
-366485
-366558
-366786
-366854
-366648
-366541
-366656
-366772
-366815
-366564
-366366
-366349
-366527
-366460
-366193
-366004
-365999
-365960
-365917
-365655
-365333
-365379
-365486
-365327
-364881
-364677
-364606
-364728
-364540
-364217
-364242
-363947
-363858
-363793
-363457
-363095
-363069
-363149
-363050
-362667
-362356
-362268
-362336
-362358
-361942
-361743
-361897
-361820
-361693
-361356
-361206
-361201
-361292
-361233
-360971
-360830
-360875
-360975
-360948
-360754
-360565
-360658
-360881
-360855
-360706
-360592
-360637
-360886
-360978
-360754
-360643
-360811
-360971
-361089
-360949
-360866
-361089
-361375
-361425
-361264
-361202
-361410
-361647
-361815
-361773
-361627
-361842
-362085
-362248
-362186
-362160
-362313
-362596
-362780
-362724
-362650
-362893
-363209
-363374
-363301
-363254
-363457
-363752
-363947
-363891
-363850
-364126
-364377
-364474
-364384
-364461
-364684
-364941
-365089
-365048
-365011
-365185
-365495
-365679
-365586
-365593
-365722
-365996
-366132
-366065
-366095
-366249
-366526
-366673
-366561
-366509
-366789
-367049
-367144
-367065
-366990
-367197
-367475
-367824
-367497
-367380
-367517
-367818
-367918
-367749
-367716
-367889
-368159
-368297
-368080
-368041
-368213
-368401
-368489
-368312
-368227
-368434
-368729
-368750
-368604
-368474
-368630
-368803
-368912
-368710
-368597
-368742
-369013
-368991
-368855
-368692
-368812
-369022
-369063
-368846
-368718
-368797
-369041
-369242
-368933
-368780
-368880
-369120
-369161
-368993
-368872
-368927
-369172
-369179
-368976
-368871
-369006
-369182
-369164
-368960
-368854
-368921
-369123
-369206
-368966
-368831
-369007
-369254
-369218
-369008
-368848
-368993
-369211
-369203
-369021
-368861
-368991
-369211
-369200
-369084
-368904
-368983
-369242
-369284
-369037
-368943
-369067
-369270
-369334
-369158
-368884
-369104
-369397
-369366
-369138
-369036
-369211
-369420
-369448
-369281
-369189
-369329
-369610
-369529
-369425
-369281
-369360
-369582
-369586
-369392
-369166
-369301
-369328
-369207
-368811
-368452
-368221
-368076
-367672
-366964
-366186
-365710
-365219
-364443
-363399
-362435
-361659
-360811
-359799
-358589
-357389
-356473
-355578
-354516
-353297
-352213
-351244
-350514
-349591
-348429
-347431
-346668
-345963
-345215
-344177
-343366
-342812
-342353
-341831
-341038
-340405
-340026
-339765
-339365
-338746
-338351
-338134
-338096
-337911
-337588
-337312
-337279
-337447
-337353
-337029
-336959
-337186
-337418
-337511
-337431
-337557
-337761
-338197
-338352
-338325
-338475
-338806
-339234
-339801
-339623
-339808
-340212
-340657
-340888
-341020
-341276
-341668
-342150
-342444
-342403
-342725
-343157
-343685
-344008
-344076
-344247
-344658
-345171
-345387
-345533
-345778
-346078
-346574
-346810
-346908
-347063
-347457
-347830
-348055
-348081
-348167
-348638
-349072
-349256
-349311
-349440
-349772
-350165
-350401
-350448
-350529
-350834
-351309
-351540
-351534
-351649
-352031
-352328
-352559
-352503
-352727
-353106
-353488
-353671
-353612
-353629
-354016
-354416
-354507
-354493
-354513
-354770
-355051
-355149
-355072
-355060
-355234
-355528
-355562
-355358
-355321
-355519
-355698
-355672
-355459
-355383
-355464
-355607
-355512
-355318
-355118
-355194
-355364
-355163
-354961
-354861
-354939
-355007
-354850
-354664
-354501
-354575
-354630
-354512
-354218
-354036
-354191
-354228
-354105
-353838
-353685
-353732
-353822
-353730
-353473
-353262
-353309
-353462
-353276
-353104
-352939
-353034
-353187
-353132
-352875
-352758
-352852
-353023
-352971
-352739
-352647
-352778
-352986
-352916
-352778
-352767
-352839
-353071
-353082
-352878
-352813
-353076
-353225
-353285
-353100
-353077
-353290
-353548
-353630
-353390
-353494
-353726
-353989
-354042
-353986
-353984
-354271
-354527
-354639
-354582
-354641
-354825
-355153
-355264
-355184
-355211
-355432
-355792
-355844
-355763
-355867
-356149
-356518
-356635
-356484
-356574
-356871
-357231
-357239
-357171
-357241
-357549
-357917
-358074
-357944
-357968
-358263
-358592
-358714
-358627
-358724
-359006
-359299
-359400
-359396
-359444
-359638
-359982
-360139
-360024
-360127
-360409
-360748
-360769
-360711
-360733
-361001
-361285
-361384
-361285
-361302
-361585
-361851
-361892
-361799
-361773
-362072
-362380
-362393
-362297
-362375
-362624
-362836
-362868
-362724
-362733
-362950
-363224
-363294
-363137
-363161
-363383
-363591
-363602
-363524
-363508
-363767
-363901
-363945
-363846
-363825
-363999
-364195
-364214
-364041
-364007
-364184
-364469
-364441
-364314
-364253
-364437
-364687
-364691
-364509
-364483
-364662
-364864
-364859
-364674
-364610
-364828
-365130
-365042
-364913
-364874
-365116
-365323
-365253
-365089
-365039
-365274
-365481
-365519
-365382
-365346
-365572
-365797
-365788
-365622
-365599
-365766
-365998
-366066
-365890
-365918
-366098
-366290
-366267
-366184
-366174
-366326
-366509
-366589
-366439
-366359
-366591
-366759
-366763
-366626
-366570
-366770
-367071
-367050
-366884
-366888
-367108
-367344
-367328
-367189
-367118
-367341
-367531
-367314
-367338
-367447
-367671
-367574
-367350
-367217
-367185
-367281
-367069
-366570
-366338
-366032
-365734
-365040
-364244
-363470
-362878
-362221
-361289
-360166
-359105
-358246
-357353
-356313
-355034
-353906
-353012
-352335
-351068
-349680
-348678
-347854
-347086
-346078
-345005
-344125
-343440
-342819
-342045
-341203
-340448
-340006
-339596
-339035
-338336
-337844
-337602
-337443
-336997
-336545
-336102
-336081
-336140
-335912
-335674
-335551
-335670
-335757
-335974
-335591
-335582
-335808
-336150
-336196
-336070
-336248
-336525
-336941
-337090
-337084
-337325
-337741
-338163
-338397
-338441
-338602
-339069
-339519
-339784
-339807
-340015
-340573
-340983
-341211
-341306
-341505
-341981
-342446
-342647
-342692
-342898
-343299
-343770
-343922
-343998
-344144
-344515
-344940
-345150
-345199
-345315
-345669
-346078
-346263
-346221
-346383
-346745
-347158
-347262
-347233
-347390
-347744
-348072
-348287
-348305
-348454
-348894
-349274
-349384
-349399
-349523
-349917
-350322
-350486
-350408
-350606
-350970
-351334
-351445
-351548
-351680
-351945
-352321
-352350
-352311
-352452
-352649
-352942
-352956
-352859
-352930
-353079
-353362
-353357
-353222
-353225
-353382
-353623
-353521
-353264
-353184
-353384
-353583
-353412
-353197
-353188
-353267
-353377
-353230
-353024
-352924
-353026
-353140
-353003
-352718
-352690
-352662
-352808
-352674
-352403
-352310
-352421
-352518
-352306
-352060
-351943
-352040
-352146
-351968
-351748
-351644
-351745
-351875
-351697
-351433
-351385
-351446
-351612
-351553
-351271
-351282
-351371
-351531
-351457
-351318
-351252
-351477
-351683
-351565
-351434
-351400
-351621
-351907
-351901
-351694
-351738
-352087
-352207
-352166
-351987
-352019
-352321
-352571
-352564
-352460
-352506
-352738
-353033
-353045
-352981
-353095
-353362
-353605
-353610
-353494
-353606
-353912
-354508
-354373
-354183
-354286
-354786
-354879
-354888
-354782
-354947
-355200
-355569
-355702
-355589
-355695
-355951
-356272
-356330
-356295
-356706
-356703
-357015
-357079
-356989
-357099
-357403
-358011
-357892
-357757
-357878
-358170
-358437
-358558
-358457
-358555
-358795
-359124
-359218
-359191
-359296
-359526
-359791
-359909
-359879
-359929
-360206
-360532
-360557
-360388
-360494
-361054
-361053
-361038
-360976
-361131
-361298
-361610
-361600
-361518
-361606
-361856
-362106
-362094
-361985
-362097
-362354
-362477
-362506
-362350
-362461
-362649
-362936
-362877
-362780
-362743
-362991
-363221
-363263
-363139
-363059
-363265
-363541
-363508
-363392
-363393
-363607
-363780
-363765
-363607
-363657
-363865
-364023
-363960
-363866
-363841
-364090
-364281
-364145
-364042
-363995
-364107
-364360
-364321
-364193
-364240
-364437
-364549
-364513
-364325
-364367
-364572
-364756
-364689
-364532
-364469
-364713
-364925
-364854
-364810
-364825
-365004
-365188
-365151
-364988
-365009
-365231
-365420
-365432
-365283
-365317
-365557
-365773
-365736
-365593
-365558
-365758
-366009
-365988
-365874
-365882
-366101
-366337
-366201
-366104
-366116
-366298
-366574
-366570
-366360
-366420
-366612
-366844
-366767
-366605
-366651
-366841
-367025
-367038
-366923
-366886
-367120
-367408
-367328
-367181
-367176
-367486
-367670
-367687
-367545
-367521
-367766
-367975
-367918
-367766
-367738
-367971
-368183
-368087
-367891
-367783
-367918
-368067
-367756
-367360
-367097
-366877
-366584
-365967
-365147
-364428
-363861
-363169
-362039
-360881
-359842
-358897
-357967
-356806
-355446
-354247
-353291
-352298
-351051
-349802
-348720
-347817
-346890
-345933
-344694
-343763
-343069
-342415
-341545
-340530
-339791
-339349
-338976
-338304
-337636
-337174
-336836
-336564
-336084
-335694
-335331
-335326
-335280
-335066
-334657
-334614
-334763
-334746
-334549
-334627
-334886
-335170
-335222
-335105
-335283
-335633
-335943
-336041
-336094
-336274
-336656
-337046
-337240
-337334
-337579
-338029
-338412
-338611
-338741
-338956
-339383
-339853
-339966
-340087
-340277
-340760
-341172
-341333
-341389
-341596
-341951
-342407
-342506
-342585
-342739
-343128
-343536
-343559
-343636
-343861
-344209
-344545
-344690
-344715
-344911
-345282
-345583
-345677
-345775
-345969
-346317
-346596
-346724
-346715
-346943
-347317
-347673
-347846
-347836
-347973
-348410
-348728
-348871
-348860
-349024
-349466
-349832
-350000
-349880
-350061
-350425
-350716
-350809
-350737
-350865
-351193
-351470
-351494
-351424
-351603
-351849
-352119
-352022
-351939
-352038
-352202
-352394
-352267
-352116
-352425
-352381
-352478
-352325
-352103
-352146
-352583
-352460
-352266
-351972
-351999
-352077
-352106
-352039
-351769
-351721
-351905
-351936
-351707
-351448
-351439
-351575
-351635
-351304
-351187
-351083
-351206
-351278
-351132
-350866
-350816
-350944
-351045
-350875
-350608
-350543
-350709
-350833
-350699
-350451
-350460
-350624
-350721
-350636
-350586
-350472
-350596
-350808
-350675
-350566
-350589
-350866
-351063
-350952
-350790
-350764
-351074
-351305
-351241
-351164
-351242
-351462
-351713
-351679
-351610
-351724
-351891
-352170
-352175
-352058
-352187
-352456
-352679
-352722
-352616
-352808
-353061
-353375
-353403
-353311
-353495
-353782
-354070
-354099
-354013
-354176
-354486
-354733
-354752
-354754
-354920
-355227
-355447
-355527
-355477
-355646
-355937
-356223
-356242
-356188
-356363
-356655
-356939
-356959
-356994
-357064
-357397
-357662
-357617
-358159
-358380
-358358
-358492
-358730
-359077
-359116
-359010
-359144
-359462
-359775
-359738
-359644
-359721
-360087
-360320
-360384
-360320
-360361
-360713
-360954
-360883
-360769
-360918
-361129
-361436
-361448
-361373
-361420
-361747
-361966
-361929
-361762
-361874
-362138
-362331
-362312
-362171
-362289
-362498
-362667
-362619
-362497
-362618
-362835
-362973
-362958
-362767
-362813
-362999
-363197
-363090
-363021
-363045
-363221
-363386
-363265
-363135
-363154
-363409
-363554
-363454
-363300
-363353
-363545
-363741
-363724
-363478
-363517
-363743
-364005
-363834
-363780
-363879
-364091
-364115
-364085
-363962
-363969
-364250
-364440
-364311
-364197
-364233
-364412
-364645
-364549
-364341
-364462
-364603
-364854
-364825
-364705
-364831
-365055
-365214
-365125
-364963
-365092
-365369
-365492
-365420
-365275
-365338
-365697
-365863
-365742
-365624
-365700
-365993
-366096
-366049
-365889
-366002
-366263
-366427
-366340
-366158
-366259
-366516
-366699
-366681
-366546
-366622
-366843
-367087
-367032
-366875
-366882
-367177
-367640
-367621
-367236
-367275
-367488
-367615
-367492
-367241
-367182
-367331
-367330
-367087
-366837
-366455
-366178
-365919
-365323
-364543
-363951
-363385
-362654
-361564
-360465
-359521
-358664
-357653
-356370
-355071
-353935
-353204
-352068
-350640
-349519
-348380
-347556
-346664
-345535
-344429
-343611
-342910
-342105
-341373
-340335
-339642
-339163
-338710
-337989
-337263
-336789
-336635
-336347
-335842
-335349
-335075
-334959
-334715
-334374
-334283
-334394
-334523
-334317
-334198
-334286
-334533
-334750
-334759
-334678
-334887
-335235
-335506
-335640
-335684
-335864
-336319
-336594
-336751
-336834
-337118
-337589
-337963
-338134
-338278
-338528
-338975
-339343
-339502
-339573
-339864
-340345
-340684
-340859
-340945
-341234
-341736
-342073
-342220
-342288
-342512
-342946
-343255
-343332
-343379
-343632
-344006
-344317
-344325
-344358
-344657
-345035
-345330
-345390
-345410
-345649
-346010
-346374
-346433
-346461
-346693
-347107
-347468
-347512
-347548
-347870
-348251
-348497
-348599
-348687
-348924
-349297
-349648
-349652
-349680
-349866
-350298
-350553
-350570
-350535
-350729
-351069
-351335
-351270
-351222
-351380
-351670
-351794
-351761
-351741
-351786
-351999
-352114
-352031
-351977
-352014
-352159
-352285
-352122
-351927
-351945
-352057
-352137
-351966
-351729
-351719
-351910
-351942
-351777
-351569
-351491
-351618
-351636
-351451
-351172
-351192
-351270
-351306
-351096
-350843
-350896
-350910
-350947
-350757
-350503
-350509
-350608
-350601
-350436
-350224
-350229
-350421
-350450
-350250
-350077
-350130
-350333
-350381
-350195
-350037
-350114
-350271
-350385
-350315
-350133
-350243
-350450
-350609
-350563
-350336
-350450
-350758
-350859
-350877
-350716
-350843
-351106
-351338
-351245
-351140
-351303
-351620
-351831
-351816
-351748
-351902
-352158
-352378
-352348
-352317
-352511
-352760
-353017
-353006
-352950
-353163
-353442
-353725
-353635
-353604
-353785
-354065
-354309
-354411
-354366
-354536
-354909
-355147
-355101
-355136
-355300
-355580
-355907
-355964
-355845
-356106
-356440
-356692
-356685
-356693
-356812
-357233
-357410
-357457
-357379
-357595
-357925
-358126
-358103
-358288
-358645
-358859
-358768
-358734
-358886
-359240
-359483
-359447
-359381
-359527
-359906
-360114
-360063
-360036
-360219
-360474
-360781
-360721
-360587
-360719
-360969
-361179
-361120
-360966
-361114
-361418
-361590
-361585
-361504
-361623
-361871
-362086
-361891
-361783
-361905
-362117
-362302
-362227
-362094
-362165
-362408
-362583
-362442
-362285
-362409
-362619
-362714
-362629
-362455
-362532
-362796
-362885
-362785
-362668
-362716
-362947
-363066
-362981
-362811
-362902
-363170
-363203
-363184
-363033
-363039
-363357
-363547
-363381
-363217
-363437
-363661
-363749
-363627
-363537
-363638
-363865
-363952
-363881
-363725
-363845
-364296
-364307
-364135
-364020
-364150
-364452
-364555
-364460
-364325
-364360
-364746
-364800
-364713
-364596
-364700
-364979
-365080
-364938
-364932
-365052
-365283
-365431
-365352
-365229
-365270
-365501
-365596
-365589
-365496
-365544
-365787
-365953
-365910
-365727
-365822
-366037
-366138
-366079
-365966
-366065
-366315
-366427
-366239
-366133
-366081
-366286
-366235
-365980
-365583
-365377
-365262
-364978
-364348
-363658
-363115
-362599
-361952
-360934
-359980
-359010
-358187
-357184
-356113
-354834
-353835
-352905
-351957
-350740
-349560
-348610
-347768
-346881
-345688
-344614
-343814
-343179
-342463
-341542
-341026
-340091
-339600
-339053
-338326
-337679
-337242
-337020
-336665
-336217
-335684
-335506
-335457
-335312
-335087
-334784
-334774
-334852
-334866
-334672
-334568
-334744
-335031
-335161
-335031
-335067
-335333
-335770
-335978
-336029
-336126
-336424
-336834
-337177
-337281
-337533
-337801
-338248
-338578
-338662
-338818
-339200
-339676
-340043
-340246
-340289
-340670
-341185
-341555
-341685
-341813
-342196
-342709
-343021
-343121
-343250
-343531
-343940
-344280
-344375
-344530
-344874
-345306
-345556
-345699
-345765
-346051
-346532
-346788
-346842
-347024
-347352
-347760
-348042
-348163
-348327
-348563
-349147
-349415
-349528
-349557
-349892
-350304
-350560
-350669
-351000
-351124
-351552
-351826
-351877
-351908
-352157
-352539
-352712
-352687
-352690
-352946
-353193
-353430
-353407
-353320
-353453
-353803
-353907
-353798
-353688
-353818
-354033
-354068
-353904
-353804
-353859
-354061
-354030
-353838
-353621
-353643
-353805
-353759
-353569
-353300
-353335
-353450
-353440
-353190
-352979
-352923
-353083
-353000
-352730
-352460
-352431
-352518
-352415
-352292
-351997
-351970
-352072
-352060
-351808
-351595
-351541
-351744
-351687
-351485
-351244
-351291
-351445
-351411
-351207
-351097
-351083
-351318
-351320
-351134
-351005
-351056
-351274
-351339
-351147
-351041
-351106
-351362
-351437
-351333
-351158
-351302
-351648
-351694
-351629
-351550
-351655
-351954
-352071
-352021
-351984
-352129
-352499
-352575
-352604
-352519
-352730
-352989
-353215
-353211
-353205
-353472
-353767
-353956
-353808
-353777
-354065
-354344
-354614
-354616
-354563
-354773
-355188
-355368
-355374
-355593
-355945
-356117
-356104
-356139
-356338
-356669
-356860
-356851
-356914
-357121
-357470
-357641
-357621
-357583
-357845
-358187
-358419
-358370
-358348
-358617
-358894
-359161
-359046
-359107
-359313
-359634
-359831
-359776
-359767
-359951
-360309
-360479
-360425
-360423
-360611
-360938
-361070
-361081
-361028
-361175
-361540
-361697
-361666
-361578
-361714
-361994
-362160
-362120
-362051
-362229
-362462
-362694
-362578
-362516
-362710
-362868
-363094
-363031
-362956
-363104
-363347
-363494
-363388
-363285
-363449
-363758
-363843
-363772
-363709
-363864
-364056
-364179
-364058
-363889
-364101
-364307
-364417
-364278
-364204
-364254
-364543
-364630
-364517
-364407
-364511
-364705
-364788
-364677
-364507
-364612
-364775
-364917
-364732
-364671
-364747
-365023
-365091
-364935
-364821
-364874
-365084
-365152
-364978
-364803
-364955
-365197
-365117
-365114
-365024
-365124
-365339
-365467
-365298
-365194
-365380
-365590
-365706
-365495
-365453
-365529
-365805
-365878
-365755
-365653
-365773
-366013
-366132
-366002
-365962
-366054
-366302
-366363
-366259
-366248
-366346
-366634
-366675
-366555
-366446
-366596
-366894
-366942
-366852
-366769
-366877
-367116
-367274
-367108
-367060
-367214
-367443
-367514
-367389
-367367
-367436
-367757
-367794
-367641
-367551
-367706
-368021
-368045
-367946
-367799
-367931
-368167
-368313
-368161
-368045
-368129
-368371
-368472
-368339
-368135
-368253
-368472
-368414
-368134
-367898
-367812
-367756
-367583
-367005
-366429
-365956
-365596
-364910
-364020
-363032
-362328
-361619
-360640
-359467
-358238
-357384
-356412
-355369
-354093
-352886
-351859
-351000
-349964
-348831
-347691
-346903
-346207
-345363
-344295
-343336
-342661
-342201
-341557
-340709
-340032
-339546
-339206
-338802
-338209
-337769
-337442
-337349
-337104
-336661
-336413
-336353
-336297
-336279
-336031
-335928
-336029
-336240
-336394
-336541
-336315
-336516
-336868
-337101
-337052
-337199
-337518
-338026
-338309
-338448
-338535
-338959
-339455
-339806
-340022
-340214
-340637
-341159
-341509
-341735
-341953
-342360
-342976
-343345
-343612
-343854
-344309
-344863
-345308
-345503
-345741
-346203
-346817
-347208
-347361
-347609
-348107
-348629
-348994
-349254
-349480
-349896
-350392
-350749
-351012
-351174
-351610
-352172
-352501
-352616
-352867
-353271
-353796
-354198
-354339
-354517
-354868
-355375
-355652
-355697
-355849
-356200
-356646
-356920
-356942
-357025
-357350
-357695
-357886
-357851
-357852
-358058
-358346
-358404
-358287
-358210
-358279
-358547
-358599
-358372
-358161
-358275
-358386
-358368
-358075
-357806
-357755
-357900
-357776
-357490
-357215
-357154
-357196
-357075
-356686
-356382
-356272
-356310
-356185
-355791
-355491
-355436
-355408
-355235
-354879
-354517
-354499
-354466
-354340
-353928
-353689
-353647
-353625
-353530
-353211
-352883
-352910
-352957
-352846
-352593
-352345
-352249
-352310
-352272
-352016
-351806
-351804
-351988
-351912
-351644
-351478
-351484
-351644
-351699
-351466
-351382
-351476
-351746
-351705
-351556
-351494
-351585
-351845
-351894
-351780
-351773
-351933
-352192
-352294
-352217
-352096
-352285
-352623
-352737
-352615
-352637
-352886
-353166
-353257
-353210
-353205
-353373
-353792
-353983
-353955
-353917
-354124
-354467
-354669
-354647
-354738
-354972
-355335
-355488
-355446
-355533
-355826
-356167
-356279
-356316
-356426
-356682
-357073
-357162
-357115
-357240
-357486
-357823
-357968
-358001
-357989
-358302
-358644
-358739
-358710
-358714
-359038
-359321
-359463
-359408
-359393
-359653
-360019
-360193
-360104
-360080
-360317
-360681
-360711
-360698
-360479
-360803
-361052
-361194
-361103
-361072
-361329
-361606
-361703
-361594
-361531
-361796
-361973
-362068
-361961
-361831
-362011
-362322
-362394
-362264
-362135
-362310
-362622
-362618
-362537
-362403
-362568
-362860
-362852
-362752
-362583
-362768
-363028
-363056
-362879
-362736
-362880
-363124
-363110
-362940
-362756
-362851
-363130
-363146
-362907
-362773
-362871
-363093
-363068
-362859
-362732
-362900
-363092
-363095
-362896
-362864
-362926
-363147
-363183
-362972
-362879
-362994
-363219
-363233
-362996
-362974
-363062
-363265
-363328
-363127
-363046
-363161
-363448
-363487
-363320
-363104
-363265
-363476
-363525
-363329
-363243
-363342
-363543
-363573
-363367
-363232
-363420
-363567
-363591
-363360
-363258
-363355
-363648
-363693
-363472
-363431
-363510
-363762
-363657
-363523
-363705
-363911
-363853
-364053
-363734
-363829
-364009
-364028
-363808
-363734
-363832
-364035
-364021
-363817
-363658
-363827
-363929
-363830
-363627
-363414
-363338
-363374
-363167
-362707
-362202
-361975
-361737
-361213
-360489
-359688
-359105
-358557
-357737
-356682
-355637
-354902
-354173
-353231
-352055
-350975
-350150
-349342
-348447
-347249
-346250
-345547
-344854
-343995
-342956
-342088
-341425
-340979
-340320
-339420
-338776
-338316
-337963
-337500
-336805
-336303
-336077
-335941
-335632
-335131
-334855
-334701
-334805
-334618
-334388
-334251
-334225
-334485
-334490
-334359
-334320
-334590
-334873
-334967
-334962
-335052
-335351
-335784
-336064
-336053
-336265
-336578
-337104
-337423
-337572
-337765
-338560
-338864
-339161
-339238
-339512
-340196
-340586
-340942
-341075
-341337
-341792
-342427
-342760
-342925
-343201
-343629
-344198
-344526
-344696
-344979
-345453
-345974
-346267
-346531
-346746
-347234
-347771
-348100
-348275
-348491
-348859
-349455
-349788
-349893
-350119
-350603
-351096
-351398
-351565
-351734
-352133
-352672
-352921
-353007
-353163
-353651
-354046
-354345
-354313
-354461
-354740
-355383
-355656
-355966
-356072
-355964
-355988
-356134
-356351
-356336
-356216
-356138
-356270
-356429
-356403
-356150
-355961
-356030
-356126
-356027
-355727
-355545
-355571
-355644
-355469
-355152
-354909
-354860
-354912
-354758
-354419
-354139
-354057
-354221
-353980
-353658
-353360
-353290
-353375
-353076
-352733
-352448
-352423
-352449
-352299
-351905
-351679
-351647
-351734
-351602
-351268
-351098
-351049
-351173
-351053
-350760
-350567
-350651
-350751
-350686
-350425
-350236
-350351
-350468
-350336
-350178
-349990
-350020
-350152
-350149
-349975
-349910
-350111
-350315
-350311
-350169
-350085
-350511
-350681
-350629
-350490
-350501
-350644
-350938
-350993
-350912
-350886
-351092
-351425
-351478
-351414
-351462
-351707
-351953
-352120
-352042
-352098
-352361
-352637
-352795
-352724
-352730
-353038
-353314
-353436
-353340
-353373
-353601
-353989
-354166
-354103
-354181
-354420
-354741
-354905
-354866
-355118
-355269
-355571
-355713
-355617
-355682
-355936
-356335
-356413
-356403
-356395
-356711
-357029
-357186
-357126
-357272
-357459
-357810
-357889
-357806
-357872
-358142
-358426
-358583
-358421
-358455
-358708
-359059
-359103
-359026
-359071
-359336
-359673
-359720
-359638
-359573
-359848
-360135
-360181
-360084
-360112
-360385
-360607
-360712
-360481
-360502
-360702
-361071
-361077
-361036
-360945
-361172
-361410
-361487
-361381
-361271
-361662
-361829
-361811
-361615
-361551
-361722
-361975
-361960
-361823
-361754
-361920
-362128
-362189
-361944
-361916
-362097
-362249
-362298
-362002
-361938
-362079
-362332
-362358
-362163
-362105
-362276
-362535
-362448
-362294
-362226
-362310
-362609
-362664
-362444
-362390
-362550
-362766
-362769
-362553
-362479
-362653
-362803
-362856
-362670
-362636
-362793
-363069
-363108
-362959
-363155
-363166
-363352
-363316
-363172
-363165
-363345
-363552
-363870
-363492
-363250
-363442
-363705
-363780
-363585
-363495
-363671
-363935
-363922
-363741
-363671
-363819
-364120
-364135
-363981
-363852
-363974
-364191
-364235
-364101
-364062
-364214
-364412
-364413
-364170
-364114
-364189
-364418
-364383
-364081
-363893
-363912
-363983
-363602
-362980
-362633
-362362
-361926
-361383
-360841
-359788
-359121
-358368
-357397
-356214
-355072
-354186
-353302
-352023
-350829
-349638
-348590
-347810
-346669
-345460
-344311
-343573
-342744
-342002
-340797
-339841
-339142
-338572
-337794
-336977
-336274
-335761
-335455
-334878
-334241
-333725
-333381
-333272
-332890
-332469
-332129
-332037
-332195
-331971
-331661
-331527
-331829
-331862
-331703
-331748
-331975
-332265
-332358
-332362
-332543
-332874
-333277
-333444
-333516
-333674
-334097
-334551
-334772
-334965
-335207
-335644
-336111
-336434
-336528
-336786
-337254
-337868
-338106
-338243
-338506
-338994
-339450
-339768
-339899
-340101
-340575
-341063
-341336
-341378
-341656
-342042
-342569
-342826
-342901
-343104
-343391
-343873
-344079
-344156
-344321
-344768
-345231
-345489
-345482
-345666
-346052
-346581
-346763
-346780
-346910
-347283
-347772
-348023
-348079
-348233
-348641
-349052
-349243
-349310
-349389
-349781
-350187
-350373
-350313
-350446
-350770
-351057
-351184
-351121
-351216
-351372
-351699
-351729
-351597
-351630
-351761
-351976
-352000
-351857
-351783
-351883
-352076
-352046
-351739
-351646
-351792
-351924
-351743
-351483
-351288
-351368
-351411
-351335
-351047
-350864
-350903
-350953
-350832
-350482
-350327
-350301
-350464
-350297
-349990
-349765
-349807
-349862
-349765
-349472
-349226
-349195
-349171
-349163
-348900
-348791
-348870
-348929
-348784
-348573
-348434
-348467
-348559
-348546
-348315
-348290
-348286
-348733
-348490
-348199
-348217
-348299
-348491
-348560
-348545
-348333
-348424
-348588
-348557
-348522
-348448
-348685
-348880
-348933
-348759
-348793
-349003
-349263
-349283
-349194
-349258
-349508
-349770
-349843
-349825
-349786
-350075
-350386
-350477
-350465
-350409
-350677
-350977
-351044
-350997
-351045
-351311
-351642
-351822
-351781
-351850
-352144
-352483
-352583
-352558
-352583
-352827
-353108
-353275
-353204
-353301
-353611
-353940
-354135
-354010
-354125
-354420
-354692
-354848
-354748
-354797
-355153
-355548
-355579
-355552
-355592
-355920
-356278
-356339
-356309
-356389
-356694
-356955
-357111
-356933
-357123
-357370
-357631
-357683
-357662
-357671
-357961
-358332
-358369
-358264
-358302
-358599
-358836
-359012
-358815
-358821
-359114
-359351
-359449
-359349
-359376
-359586
-359846
-359923
-359793
-359779
-360005
-360271
-360215
-360078
-360097
-360326
-360585
-360556
-360405
-360378
-360621
-360822
-360831
-360739
-360639
-360792
-360968
-361025
-360843
-360825
-360987
-361174
-361151
-360976
-360862
-361061
-361379
-361310
-361165
-361079
-361239
-361474
-361424
-361290
-361247
-361370
-361578
-361568
-361364
-361371
-361513
-361778
-361696
-361543
-361517
-361727
-361981
-362000
-361754
-361746
-361924
-362153
-362168
-362010
-361942
-362185
-362391
-362437
-362434
-362261
-362454
-362707
-362654
-362450
-362428
-362651
-362954
-362903
-362801
-362728
-362924
-363180
-363126
-363016
-362993
-363187
-363383
-363337
-363216
-363473
-363419
-363556
-363516
-363335
-363357
-363452
-363710
-363627
-363443
-363490
-363656
-363891
-363860
-363695
-363676
-363844
-364035
-364070
-363841
-363864
-364048
-364188
-364171
-363900
-363889
-363893
-363994
-363752
-363313
-362940
-362748
-362460
-361865
-361036
-360243
-359646
-358962
-358014
-356790
-355597
-354799
-353834
-352558
-351325
-350093
-349145
-348135
-347014
-345711
-344641
-343662
-342796
-341847
-340713
-339733
-339016
-338387
-337522
-336600
-335829
-335288
-334929
-334323
-333628
-333006
-332725
-332449
-332073
-331596
-331240
-331195
-331154
-330925
-330575
-330438
-330530
-330640
-330663
-330493
-330479
-330684
-330945
-331058
-331035
-331140
-331456
-331791
-331957
-332022
-332194
-332642
-333103
-333247
-333352
-333564
-334068
-334532
-334781
-334925
-335168
-335616
-336064
-336337
-336481
-336730
-337167
-337675
-337918
-337969
-338189
-338626
-339085
-339364
-339400
-339637
-339981
-340418
-340601
-340683
-340929
-341256
-341660
-341872
-341847
-342097
-342481
-342843
-343008
-343041
-343152
-343580
-344029
-344180
-344198
-344425
-344766
-345180
-345396
-345436
-345603
-346055
-346426
-346597
-346611
-346751
-347166
-347475
-347683
-347744
-347812
-348211
-348539
-348672
-348626
-348715
-348999
-349304
-349405
-349250
-349274
-349553
-349747
-349803
-349631
-349673
-350056
-350114
-350022
-349773
-349785
-349864
-350099
-349954
-349737
-349685
-349768
-349884
-349736
-349358
-349324
-349249
-349418
-349303
-349019
-348895
-348963
-349068
-348881
-348552
-348475
-348526
-348826
-348514
-348128
-348024
-348092
-348242
-348082
-347804
-347700
-347718
-347867
-347747
-347462
-347317
-347406
-347550
-347420
-347132
-347093
-347230
-347411
-347322
-347137
-347070
-347280
-347401
-347338
-347190
-347128
-347370
-347586
-347629
-347427
-347404
-347626
-347834
-347882
-347756
-347741
-347987
-348298
-348277
-348192
-348284
-348520
-348820
-348829
-348679
-348726
-349051
-349377
-349428
-349256
-349384
-349701
-350024
-350092
-349975
-350077
-350341
-350679
-350738
-351509
-351465
-351481
-351758
-352097
-352227
-352205
-352231
-352479
-352825
-352994
-352857
-352945
-353285
-353555
-353600
-353536
-353659
-353927
-354241
-354337
-354314
-354326
-354580
-354942
-355075
-355000
-355020
-355281
-355579
-355623
-355602
-355645
-355957
-356260
-356153
-356277
-356521
-356804
-356842
-356773
-356853
-357063
-357314
-357391
-357278
-357368
-357597
-357847
-357930
-357779
-357776
-358031
-358314
-358297
-358144
-358180
-358435
-358633
-358628
-358480
-358517
-358791
-359044
-359029
-358916
-358860
-359129
-359309
-359312
-359107
-359153
-359377
-359533
-359482
-359332
-359371
-359538
-359777
-359732
-359546
-359528
-359697
-359971
-359903
-359781
-359731
-359943
-360131
-360066
-359870
-359883
-360094
-360336
-360270
-360114
-360042
-360312
-360537
-360475
-360377
-360363
-360558
-360728
-360776
-360608
-360567
-360800
-361032
-361069
-360818
-360810
-361048
-361259
-361197
-361042
-361308
-361505
-361462
-361319
-361344
-361567
-361805
-361626
-361543
-361593
-361754
-362046
-362171
-361847
-361867
-362036
-362347
-362315
-362151
-362163
-362325
-362588
-362497
-362395
-362354
-362596
-362846
-362828
-362672
-362675
-362920
-363134
-363035
-362955
-362920
-363139
-363364
-363304
-363107
-363057
-363222
-363427
-363321
-363057
-362885
-362869
-362895
-362501
-361961
-361527
-361167
-360828
-360070
-359093
-358264
-357523
-356688
-355624
-354351
-353181
-352233
-351256
-350025
-348760
-347561
-346596
-345641
-344466
-343205
-342093
-341308
-340559
-339558
-338511
-337593
-337056
-336492
-335676
-334869
-334184
-333678
-333344
-332872
-332292
-331795
-331619
-331474
-331140
-330713
-330568
-330591
-330623
-330443
-330202
-330123
-330306
-330502
-330505
-330446
-330472
-330723
-331072
-331201
-331249
-331314
-331700
-332404
-332374
-332413
-332575
-332965
-333441
-333671
-333732
-333942
-334455
-334886
-335088
-335251
-335519
-335974
-336444
-336601
-336652
-336817
-337301
-337826
-338004
-338071
-338310
-338663
-339126
-339296
-339278
-339431
-339865
-340207
-340295
-340386
-340640
-340962
-341361
-341488
-341484
-341639
-342019
-342383
-342482
-342629
-342987
-343369
-343425
-343543
-343670
-344073
-344425
-344579
-344639
-344820
-345393
-345589
-345989
-345764
-345915
-346144
-346554
-346666
-346617
-346803
-347039
-347486
-347534
-347383
-347427
-347762
-348061
-348099
-347926
-348017
-348236
-348460
-348408
-348300
-348528
-348488
-348691
-348504
-348350
-348385
-348502
-348692
-348608
-348351
-348290
-348391
-348496
-348319
-348293
-348045
-348113
-348259
-348100
-347813
-347758
-347810
-347922
-347768
-347549
-347431
-347505
-347585
-347422
-347171
-347112
-347122
-347236
-347005
-346833
-346744
-346832
-346978
-346863
-346575
-346455
-346560
-346773
-346656
-346394
-346404
-346552
-346728
-346508
-346421
-346278
-346525
-346744
-346711
-346534
-346449
-346698
-346980
-346902
-346698
-346739
-346984
-347198
-347199
-347090
-347119
-347401
-347626
-347667
-347572
-347517
-347887
-348195
-348275
-348111
-348204
-348535
-348759
-348796
-348703
-349138
-349261
-349505
-349553
-349408
-349502
-349880
-350379
-350337
-350232
-350351
-350634
-350925
-351032
-350982
-351105
-351421
-351769
-351752
-351928
-352219
-352464
-352509
-352514
-352618
-352862
-353213
-353263
-353427
-353400
-353668
-353873
-353972
-354221
-354188
-354430
-354705
-354726
-354750
-354817
-355115
-355275
-355361
-355472
-355508
-355773
-356067
-356015
-355911
-356045
-356436
-356880
-356667
-356522
-356623
-356869
-357093
-357074
-356904
-357005
-357369
-357620
-357524
-357487
-357771
-357811
-358086
-358074
-357931
-357971
-358215
-358425
-358452
-358284
-358183
-358405
-359039
-358818
-358599
-358603
-358818
-359024
-358989
-358860
-358872
-359052
-359476
-359302
-358935
-358952
-359166
-359350
-359333
-359142
-359211
-359384
-359587
-359509
-359252
-359468
-359548
-359733
-359657
-359452
-359462
-359715
-359970
-359857
-359690
-359721
-359907
-360020
-360121
-360313
-360303
-360572
-360428
-360343
-360117
-360156
-360263
-360503
-360516
-360289
-360330
-360575
-360815
-360804
-360633
-360741
-360919
-361192
-361181
-360892
-361029
-361231
-361459
-361497
-361288
-361343
-361593
-361835
-361791
-361719
-361675
-361952
-362018
-362094
-361966
-361959
-362228
-362361
-362384
-362259
-362332
-362548
-362759
-362728
-362564
-362627
-362896
-363082
-363015
-362851
-362839
-363061
-363289
-363202
-363075
-363040
-363198
-363330
-363162
-362925
-362767
-362797
-362779
-362412
-361895
-361484
-361232
-360828
-360115
-359142
-358306
-357647
-356883
-355812
-354559
-353391
-352565
-351555
-350361
-349018
-347890
-346977
-346004
-344852
-343679
-342687
-341850
-341077
-340110
-339024
-338220
-337588
-336987
-336233
-335405
-334760
-334361
-333984
-333414
-332808
-332400
-331736
-331388
-331145
-331138
-331187
-331027
-330828
-330803
-330895
-331082
-331068
-330974
-331013
-331339
-331649
-331725
-331709
-331888
-332302
-332721
-332895
-332929
-333200
-333638
-334075
-334292
-334450
-334709
-335145
-335560
-335835
-335896
-336211
-336691
-337131
-337346
-337468
-337710
-338229
-338629
-338819
-338975
-339212
-339638
-340079
-340246
-340292
-340527
-340955
-341435
-341615
-341620
-341870
-342261
-342678
-342827
-342853
-343070
-343514
-343952
-344023
-344080
-344304
-344730
-345117
-345248
-345346
-345512
-345978
-346396
-346551
-346641
-346898
-347330
-347657
-347850
-347912
-348068
-348459
-348826
-348933
-348903
-349099
-349475
-349731
-349792
-349730
-349885
-350144
-350436
-350392
-350232
-350313
-350568
-350767
-350692
-350547
-350536
-350725
-350829
-350696
-350472
-350497
-350678
-350812
-350584
-350313
-350220
-350328
-350429
-350228
-349957
-349897
-350031
-350085
-349871
-349593
-349467
-349491
-349550
-349389
-349132
-348976
-349078
-349055
-348885
-348552
-348428
-348579
-348639
-348442
-348121
-348010
-348132
-348229
-348087
-347739
-347682
-347785
-347922
-347760
-347538
-347553
-347723
-347778
-347650
-347448
-347447
-347592
-347772
-347637
-347447
-347437
-347700
-347825
-347745
-347592
-347672
-347904
-348132
-348102
-347985
-347993
-348225
-348455
-348438
-348378
-348462
-348766
-348985
-348993
-348889
-349050
-349330
-349581
-349574
-349485
-349619
-349969
-350243
-350215
-350118
-350320
-350632
-350900
-350976
-350930
-350987
-351313
-351598
-351635
-351552
-351730
-352154
-352405
-352422
-352435
-352528
-352894
-353162
-353202
-353218
-353297
-353640
-353901
-353981
-353908
-354075
-354436
-354679
-354689
-354645
-354758
-355058
-355398
-355404
-355437
-355487
-355830
-356065
-356080
-356010
-356135
-356449
-356729
-356672
-356587
-356737
-356990
-357211
-357231
-357174
-357197
-357502
-357785
-357728
-357622
-357669
-357920
-358165
-358076
-357977
-358090
-358361
-358561
-358491
-358363
-358428
-358638
-358814
-358729
-358598
-358658
-358845
-359053
-358953
-358750
-358813
-359000
-359178
-359110
-358931
-358880
-359092
-359247
-359165
-359015
-359023
-359171
-359392
-359256
-359038
-359055
-359245
-359411
-359327
-359187
-359083
-359336
-359458
-359333
-359097
-359102
-359201
-359441
-359328
-359165
-359180
-359406
-359520
-359410
-359210
-359233
-359442
-359638
-359474
-359292
-359338
-359519
-359634
-359605
-359366
-359464
-359669
-359818
-359709
-359617
-359600
-359807
-360033
-359861
-359684
-359779
-359991
-360119
-360037
-359832
-359836
-360025
-360245
-360139
-359927
-359973
-360150
-360325
-360309
-360124
-360203
-360499
-360617
-360432
-360263
-360366
-360602
-360830
-360784
-360534
-360654
-360833
-360951
-360952
-360729
-360781
-360985
-361167
-361074
-360869
-360821
-361076
-361182
-360971
-360811
-360711
-360767
-360724
-360480
-360020
-359685
-359526
-359259
-358717
-357984
-357340
-356914
-356308
-355395
-354327
-353424
-352722
-351925
-350869
-349655
-348712
-347908
-347153
-345982
-344890
-343983
-343240
-342500
-341583
-340642
-339811
-339226
-338667
-337890
-336995
-336449
-336023
-335645
-335070
-334431
-334043
-333825
-333663
-333201
-332735
-332535
-332506
-332543
-332254
-332000
-331896
-331957
-332143
-332109
-331918
-331926
-332218
-332517
-332526
-332552
-332696
-333037
-333401
-333543
-333619
-333894
-334323
-334724
-334953
-335063
-335421
-335845
-336325
-336582
-336703
-337073
-337553
-338069
-338295
-338517
-338833
-339369
-339913
-340100
-340307
-340649
-341182
-341731
-341942
-342042
-342419
-342898
-343378
-343567
-343814
-344157
-344707
-345141
-345389
-345450
-345826
-346371
-346876
-347058
-347149
-347488
-347946
-348438
-348593
-348686
-349013
-349485
-349893
-350095
-350118
-350387
-350790
-351127
-351286
-351205
-351462
-351829
-352112
-352136
-352023
-352087
-352403
-352701
-352594
-352377
-352495
-352673
-352841
-352710
-352405
-352451
-352495
-352509
-352334
-352061
-351921
-352005
-351988
-351754
-351453
-351334
-351284
-351310
-351054
-350715
-350550
-350521
-350504
-350227
-349820
-349652
-349653
-349616
-349344
-348954
-348785
-348829
-348733
-348515
-348141
-347991
-347989
-348026
-347765
-347424
-347290
-347385
-347446
-347217
-346856
-346788
-346883
-346990
-346761
-346450
-346412
-346549
-346654
-346523
-346305
-346471
-346564
-346462
-346283
-346370
-346574
-346761
-346645
-346439
-346475
-346745
-347014
-346908
-346722
-346822
-347049
-347300
-347273
-347159
-347273
-347577
-347772
-347831
-347741
-347893
-348173
-348472
-348476
-348462
-348623
-348916
-349303
-349703
-349966
-349991
-349945
-350147
-350436
-350676
-350765
-350685
-350893
-351190
-351400
-351526
-351456
-351607
-351969
-352270
-352246
-352427
-352725
-353003
-353036
-353019
-353199
-353493
-353741
-353758
-353793
-353908
-354225
-354454
-354415
-354386
-354512
-354892
-355065
-355124
-355019
-355107
-355387
-355710
-355614
-355551
-355630
-355919
-356106
-356171
-356053
-356115
-356449
-356715
-356659
-356510
-356548
-356854
-357091
-357072
-356996
-357006
-357318
-357515
-357479
-357280
-357379
-357574
-357780
-357689
-357597
-357625
-357858
-358037
-358001
-357845
-357857
-358137
-358268
-358264
-358066
-358057
-358310
-358505
-358364
-358208
-358275
-358459
-358651
-358583
-358359
-358388
-358642
-358742
-358740
-358541
-358596
-358838
-359007
-358833
-358768
-358795
-359005
-359214
-359088
-358945
-358933
-359223
-359401
-359251
-359094
-359231
-359368
-359582
-359457
-359305
-359409
-359587
-359815
-359717
-359483
-359556
-359771
-359979
-359896
-359677
-359735
-359972
-360153
-360102
-359929
-359931
-360179
-360350
-360277
-360175
-360149
-360390
-360508
-360408
-360274
-360362
-360578
-360757
-360617
-360527
-360551
-360799
-360935
-360856
-360760
-360877
-361077
-361221
-361148
-360997
-361013
-361217
-361447
-361312
-361166
-361206
-361379
-361489
-361353
-361027
-361065
-361081
-361079
-360793
-360301
-359989
-359743
-359429
-358749
-357917
-357194
-356631
-355906
-354880
-353817
-352770
-351897
-350975
-349891
-348625
-347514
-346647
-345697
-344569
-343378
-342399
-341541
-340794
-339761
-338735
-337948
-337333
-336700
-335918
-335059
-334482
-334101
-333704
-333080
-332448
-332014
-331782
-331610
-331261
-330836
-330626
-330630
-330613
-330359
-330157
-330115
-330303
-330478
-330398
-330248
-330412
-330689
-330882
-330985
-331005
-331171
-331612
-331954
-332083
-332158
-332397
-332866
-333266
-333428
-333593
-333891
-334360
-334831
-335015
-335155
-335523
-336045
-336436
-336699
-336764
-337092
-337592
-337999
-338288
-338388
-338662
-339157
-339504
-339733
-339850
-340149
-340561
-340947
-341105
-341190
-341429
-341929
-342254
-342350
-342463
-342698
-343070
-343500
-343676
-343769
-343958
-344356
-344717
-344851
-344882
-345154
-345593
-345922
-346029
-346106
-346341
-346704
-347055
-347187
-347213
-347477
-347848
-348160
-348214
-348195
-348335
-348670
-348946
-348962
-348895
-349058
-349318
-349515
-349412
-349318
-349390
-349578
-349766
-349674
-349479
-349485
-349601
-349760
-349530
-349347
-349373
-349423
-349437
-349259
-348985
-348884
-348942
-349036
-348783
-348560
-348512
-348510
-348599
-348338
-348037
-347925
-348031
-348000
-347830
-347534
-347430
-347494
-347505
-347265
-347013
-346979
-346993
-346984
-346847
-346686
-346584
-346651
-346808
-346637
-346336
-346347
-346461
-346495
-346368
-346176
-346232
-346390
-346535
-346391
-346252
-346209
-346404
-346584
-346482
-346354
-346389
-346634
-346802
-346816
-346727
-346750
-346984
-347181
-347175
-347037
-347176
-347415
-347625
-347606
-347597
-347745
-348016
-348267
-348272
-348233
-348375
-348638
-348896
-348942
-348853
-349074
-349392
-349614
-349696
-349588
-349816
-350141
-350336
-350418
-350391
-350568
-350958
-351203
-351257
-351381
-351487
-351757
-352051
-352014
-352009
-352145
-352590
-352784
-352777
-352754
-352938
-353242
-353480
-353503
-353487
-353685
-353944
-354220
-354277
-354252
-354376
-354651
-354929
-354938
-354897
-355020
-355361
-355576
-355588
-355536
-355692
-355935
-356166
-356158
-356116
-356324
-356570
-356774
-356735
-356733
-356824
-357045
-357316
-357347
-357295
-357332
-357548
-357758
-357770
-357668
-357747
-358058
-358236
-358179
-358082
-358188
-358363
-358537
-358542
-358387
-358435
-358687
-358933
-358784
-358716
-358816
-359034
-359195
-359152
-359018
-359040
-359180
-359300
-359248
-359093
-359210
-359409
-359447
-359351
-359334
-359298
-359510
-359656
-359506
-359373
-359442
-359648
-359738
-359645
-359498
-359548
-359781
-359885
-359817
-359724
-359731
-359865
-360050
-359975
-359856
-359839
-360078
-360142
-360082
-359920
-360259
-360184
-360327
-360217
-360118
-360208
-360371
-360423
-360343
-360179
-360268
-360433
-360613
-360482
-360453
-360515
-360684
-360837
-360801
-360698
-360744
-360924
-361050
-360991
-360949
-360961
-361144
-361216
-361288
-361217
-361293
-361410
-361599
-361555
-361440
-361509
-361759
-361891
-361851
-361746
-361777
-362024
-362137
-362108
-362049
-362046
-362227
-362433
-362358
-362340
-362348
-362601
-362678
-362630
-362407
-362496
-362652
-362707
-362576
-362280
-362211
-362091
-361921
-361446
-360909
-360423
-359982
-359345
-358459
-357482
-356574
-355750
-354769
-353539
-352283
-351113
-350108
-349071
-347752
-346500
-345364
-344361
-343339
-342182
-340955
-339967
-339132
-338257
-337266
-336359
-335506
-334888
-334239
-333501
-332775
-332168
-331759
-331300
-330794
-330269
-329854
-329705
-329521
-329199
-328871
-328686
-328739
-328695
-328467
-328399
-328439
-328567
-328743
-328719
-328781
-328930
-329205
-329412
-329572
-329701
-329954
-330352
-330671
-330883
-330898
-331287
-331766
-332210
-332397
-332604
-332943
-333384
-333797
-334037
-334173
-334508
-334870
-335339
-335530
-335749
-335971
-336377
-336781
-336979
-337052
-337283
-337679
-337979
-338101
-338310
-338507
-338865
-339127
-339272
-339263
-339521
-339893
-340144
-340220
-340313
-340554
-340859
-341106
-341242
-341234
-341507
-341800
-342005
-342217
-342280
-342540
-342911
-343195
-343271
-343405
-343632
-343956
-344267
-344331
-344455
-344643
-344993
-345263
-345327
-345464
-345630
-345866
-346102
-346152
-346217
-346374
-346668
-346853
-346831
-346790
-346980
-347187
-347351
-347304
-347164
-347310
-347373
-347566
-347517
-347335
-347395
-347570
-347649
-347570
-347397
-347520
-347625
-347676
-347575
-347355
-347327
-347376
-347497
-347406
-347218
-347141
-347271
-347336
-347221
-347042
-347037
-347105
-347177
-347089
-346901
-346902
-347034
-347107
-346932
-346781
-346786
-346864
-347007
-346890
-346684
-346666
-346814
-346893
-346815
-346686
-346723
-346885
-346948
-346827
-346675
-346753
-346853
-347006
-346908
-346765
-346822
-346987
-347079
-347048
-346900
-346941
-347215
-347301
-347265
-347073
-347213
-347429
-347607
-347531
-347486
-347559
-347752
-347939
-347934
-347858
-347945
-348225
-348452
-348338
-348321
-348460
-348701
-348863
-348793
-348765
-348869
-349172
-349296
-349386
-349273
-349410
-349750
-349935
-349912
-349921
-350033
-350399
-350617
-350605
-350578
-350687
-351127
-351405
-351407
-351347
-351539
-351942
-352156
-352148
-352231
-352462
-352831
-353121
-353135
-353240
-353399
-353753
-354017
-354072
-354084
-354293
-354641
-354871
-354926
-354940
-355146
-355442
-355794
-355850
-355827
-355988
-356345
-356583
-356709
-356610
-356846
-357194
-357393
-357548
-357465
-357719
-358076
-358264
-358324
-358272
-358461
-358816
-359093
-359081
-359076
-359274
-359592
-359819
-359818
-359753
-359918
-360272
-360508
-360581
-360497
-360754
-361050
-361242
-361258
-361193
-361371
-361629
-361929
-361917
-361872
-362011
-362256
-362471
-362428
-362278
-362454
-362891
-362859
-362710
-362573
-362719
-362857
-363052
-362875
-362744
-362724
-362868
-363010
-362908
-362714
-362680
-362905
-363024
-362841
-362607
-362637
-362820
-362905
-362804
-362882
-362685
-362830
-362874
-362765
-362490
-362575
-362756
-362849
-362708
-362484
-362523
-362726
-362821
-362620
-362469
-362481
-362715
-362757
-362625
-362489
-362486
-362666
-362786
-362637
-362469
-362534
-362607
-362812
-362689
-362461
-362576
-362695
-362731
-362579
-362427
-362379
-362593
-362675
-362530
-362330
-362328
-362464
-362497
-362310
-362004
-362026
-362251
-362216
-362039
-361811
-361738
-361852
-361794
-361523
-361161
-360983
-360954
-360811
-360389
-359829
-359440
-359145
-358623
-357828
-356862
-356087
-355618
-354713
-353523
-352338
-351321
-350410
-349441
-348186
-346780
-345734
-344802
-343781
-342505
-341088
-340159
-339374
-338717
-337383
-336258
-335373
-334635
-333953
-333049
-332113
-331524
-331185
-330618
-329824
-329087
-328644
-328483
-328231
-327746
-327193
-326956
-326934
-326930
-326630
-326289
-326225
-326374
-326371
-326283
-326198
-326311
-326526
-326747
-326721
-326701
-326913
-327307
-327635
-327770
-327883
-328088
-328640
-328996
-329154
-329346
-329709
-330236
-330661
-330847
-331086
-331631
-332040
-332479
-332733
-332885
-333344
-333905
-334334
-334555
-334702
-335081
-335647
-336108
-336347
-336467
-336895
-337417
-337765
-337914
-337975
-338385
-338838
-339249
-339394
-339548
-339820
-340271
-340663
-340770
-340922
-341183
-341645
-341959
-341994
-342124
-342335
-342769
-343044
-343196
-343214
-343367
-343714
-343963
-343964
-344008
-344129
-344404
-344656
-344569
-344443
-344503
-344770
-344901
-344753
-344613
-344664
-344829
-344912
-344735
-344532
-344498
-344618
-344631
-344419
-344186
-344176
-344270
-344237
-343984
-343749
-343710
-343700
-343766
-343551
-343217
-343134
-343148
-343180
-342966
-342610
-342655
-342632
-342678
-342482
-342194
-342042
-342223
-342262
-342064
-341833
-341721
-341871
-341888
-341687
-341342
-341321
-341455
-341538
-341327
-341100
-341012
-341194
-341228
-341024
-340787
-340797
-340959
-340969
-340765
-340602
-340618
-340811
-340831
-340645
-340410
-340501
-340748
-340813
-340648
-340487
-340590
-340850
-340920
-340740
-340653
-340753
-340935
-341022
-340917
-340752
-340815
-341021
-341170
-340997
-340874
-340938
-341160
-341314
-341210
-341100
-341124
-341356
-341450
-341338
-341246
-341308
-341546
-341683
-341571
-341388
-341502
-341750
-341854
-341761
-341541
-341644
-341810
-341969
-341823
-341715
-341792
-341992
-342114
-342037
-341854
-341937
-342175
-342342
-342194
-342046
-342209
-342347
-342488
-342417
-342261
-342410
-342608
-342711
-342675
-342556
-342685
-342927
-342993
-342934
-342875
-343015
-343243
-343387
-343282
-343215
-343336
-343561
-343772
-343690
-343658
-343776
-344088
-344266
-344210
-344219
-344310
-344654
-344813
-344975
-347187
-347597
-347794
-347887
-347826
-347979
-348300
-348544
-348718
-349009
-349137
-349153
-349274
-349519
-349825
-349769
-349734
-349925
-350190
-350351
-350246
-350183
-350338
-350608
-350869
-350834
-350734
-350928
-351220
-351361
-351343
-351543
-351546
-351957
-352038
-351916
-351815
-351863
-352084
-352323
-352316
-352098
-352334
-352531
-352636
-352541
-352477
-352520
-352748
-352854
-352811
-352634
-352758
-352872
-353007
-352854
-352692
-352845
-352930
-353029
-352843
-352743
-352755
-352992
-353062
-352875
-352737
-352866
-352856
-352659
-352611
-352504
-352643
-352651
-352388
-352239
-352247
-352421
-352509
-352327
-352096
-352054
-352222
-352219
-352062
-351818
-351710
-351794
-351638
-351347
-350949
-350692
-350463
-350077
-349413
-348702
-348050
-347479
-346774
-345746
-344674
-343770
-343128
-342007
-340826
-339574
-338462
-337639
-336617
-335432
-334301
-333396
-332567
-331665
-330635
-329654
-328809
-328255
-327579
-326790
-326008
-325487
-325077
-324581
-324044
-323464
-323047
-322973
-322715
-322303
-321960
-321856
-321892
-321821
-321609
-321458
-321471
-321638
-321647
-321643
-321634
-321805
-321939
-322220
-322368
-322462
-322688
-323000
-323338
-323496
-323600
-323980
-324441
-324789
-324884
-325132
-325510
-325957
-326327
-326518
-326704
-327014
-327512
-327860
-328071
-328509
-328612
-329034
-329308
-329507
-329669
-329906
-330344
-330571
-331007
-330889
-331072
-331433
-331674
-331690
-331748
-332007
-332314
-332522
-332539
-332570
-332804
-333063
-333344
-333284
-333320
-333491
-333841
-333973
-333975
-333961
-334148
-334474
-334703
-334749
-334807
-334905
-335138
-335398
-335367
-335453
-335628
-335845
-336088
-336120
-336158
-336287
-336544
-336732
-336620
-336685
-336834
-337074
-337182
-337218
-337126
-337209
-337374
-337451
-337382
-337267
-337342
-337534
-337537
-337389
-337268
-337302
-337416
-337367
-337221
-337056
-337072
-337177
-337125
-336842
-336694
-336651
-336733
-336700
-336525
-336255
-336282
-336276
-336289
-336099
-335932
-335884
-335868
-335892
-335691
-335512
-335418
-335480
-335451
-335232
-335046
-335044
-335042
-335114
-334927
-334730
-334664
-334738
-334728
-334549
-334385
-334396
-334394
-334472
-334325
-334256
-334255
-334374
-334403
-334334
-334186
-334274
-334385
-334487
-334353
-334472
-334693
-334742
-334637
-334647
-334777
-335002
-335162
-335122
-335148
-335325
-335596
-335772
-335756
-335733
-335920
-336191
-336398
-336444
-336492
-336619
-336948
-337118
-337139
-337168
-337337
-337522
-337733
-337794
-337817
-337983
-338278
-338436
-338511
-338487
-338685
-338939
-338954
-339054
-339166
-339294
-339566
-339757
-339823
-339890
-340045
-340324
-340534
-340623
-340633
-340858
-341148
-341299
-341336
-341393
-341569
-341833
-341981
-341991
-342069
-342285
-342541
-342702
-342717
-342619
-342827
-343113
-343269
-343198
-343221
-343408
-343570
-343681
-343701
-343648
-343818
-343956
-344067
-344036
-343994
-344076
-344288
-344424
-344285
-344208
-344549
-344543
-344591
-344538
-344404
-344534
-344624
-344785
-344622
-344698
-345248
-345085
-344860
-344775
-344901
-345044
-345121
-345093
-344976
-345110
-345203
-345384
-345401
-345288
-345384
-345654
-345692
-345655
-345584
-345740
-345903
-345997
-345983
-345879
-346061
-346187
-346337
-346269
-346182
-346300
-346564
-346614
-346566
-346500
-346610
-346788
-346855
-346853
-346751
-346805
-347070
-347145
-347049
-347008
-347079
-347313
-347370
-347342
-347245
-347328
-347584
-347668
-347666
-347578
-347656
-347901
-348029
-347912
-347888
-347968
-348194
-348237
-348230
-348124
-348179
-348434
-348470
-348498
-348394
-348509
-348710
-348809
-348753
-348697
-348750
-348959
-349059
-348997
-348918
-348964
-349176
-349247
-349158
-349094
-349181
-349408
-349445
-349572
-349308
-349368
-349462
-349515
-349422
-349345
-349375
-349542
-349593
-349457
-349347
-349427
-349526
-349639
-349469
-349279
-349275
-349403
-349343
-349129
-348940
-348844
-348811
-348514
-348124
-347598
-347149
-346804
-346153
-345374
-344606
-343840
-343138
-342266
-341181
-340004
-339092
-338227
-337244
-336052
-334740
-333865
-332976
-332101
-330929
-329861
-329053
-328345
-327595
-326602
-325970
-325250
-324581
-323984
-323272
-322552
-322135
-321892
-321589
-321052
-320607
-320266
-320240
-320062
-319763
-319436
-319423
-319548
-319766
-319737
-319967
-320311
-320608
-320650
-320686
-321028
-321460
-321802
-321914
-322046
-322442
-322930
-323211
-323354
-323541
-323876
-324377
-324764
-324888
-325129
-325420
-325894
-326298
-326435
-326606
-326931
-327426
-327740
-327887
-327950
-328253
-328665
-328980
-329029
-329087
-329425
-329795
-330043
-330076
-330102
-330359
-330747
-331013
-330979
-331004
-331212
-331562
-331749
-331744
-331770
-331928
-332309
-332516
-332415
-332518
-332684
-332995
-333204
-333236
-333202
-333352
-333627
-333849
-333814
-333768
-333960
-334283
-334398
-334337
-334210
-334375
-334558
-334702
-334627
-334488
-334519
-334698
-334820
-334669
-334521
-334524
-334616
-334661
-334476
-334619
-334391
-334419
-334336
-334170
-333956
-333958
-334032
-333995
-333761
-333542
-333507
-333517
-333526
-333304
-333025
-332995
-333079
-332984
-332745
-332561
-332479
-332586
-332557
-332328
-332114
-332123
-332260
-332229
-331977
-331841
-331875
-332049
-331988
-331828
-331667
-331707
-331900
-332009
-331837
-331736
-331793
-332016
-332059
-332048
-331924
-332044
-332292
-332494
-332432
-332383
-332520
-332814
-333008
-333258
-333033
-333142
-333473
-333653
-333687
-333713
-333837
-334194
-334450
-334480
-334510
-334729
-335058
-335282
-335327
-335355
-335592
-335937
-336186
-336207
-336185
-336482
-336853
-337076
-337104
-337046
-337315
-337743
-337950
-337919
-337996
-338191
-338466
-338713
-338783
-338849
-339076
-339430
-339690
-339640
-339670
-339928
-340261
-340428
-340442
-340449
-340736
-341084
-341361
-341392
-341412
-341608
-342023
-342154
-342226
-342203
-342458
-342781
-342943
-342858
-342857
-343129
-343404
-343677
-343579
-343491
-343718
-343997
-344106
-344077
-344283
-344546
-344751
-344670
-344565
-344718
-344935
-345094
-344961
-344855
-345025
-345283
-345397
-345203
-345315
-345293
-345504
-345610
-345427
-345331
-345366
-345602
-345662
-345570
-345372
-345475
-345643
-345794
-345611
-345420
-345507
-345742
-345778
-345653
-345503
-345618
-345752
-345913
-345784
-345613
-345656
-345832
-345947
-345832
-345680
-345732
-345978
-346076
-345878
-345742
-345820
-346311
-346222
-346012
-345867
-346047
-346204
-346324
-346307
-346140
-346272
-346561
-346679
-346581
-346438
-346576
-346877
-346980
-346968
-346859
-346963
-347278
-347432
-347364
-347293
-347398
-347730
-347833
-347791
-347763
-347871
-348131
-348352
-348231
-348219
-348407
-348648
-348751
-348710
-348638
-348823
-349079
-349235
-349213
-349157
-349300
-349553
-349761
-349692
-349573
-349833
-350042
-350224
-350119
-350131
-350282
-350626
-350753
-350653
-350621
-350757
-351074
-351277
-351175
-351312
-351296
-351614
-351690
-351661
-351453
-351687
-351994
-352148
-352122
-352075
-352171
-352502
-352603
-352562
-352468
-352590
-352805
-352913
-352815
-352681
-352778
-352962
-353025
-352787
-352539
-352403
-352431
-352240
-351743
-351159
-350890
-350588
-350033
-349194
-348389
-347824
-347273
-346577
-345557
-344666
-343867
-343181
-342381
-341384
-340382
-339648
-339107
-338295
-337355
-336544
-335879
-335280
-334804
-334097
-333323
-332893
-332623
-332212
-331568
-331042
-330761
-330638
-330400
-329988
-329586
-329473
-329448
-329395
-329108
-328897
-328886
-329075
-329149
-329104
-328967
-329120
-329416
-329564
-329557
-329577
-329825
-330220
-330399
-330546
-330616
-330934
-331448
-331708
-331836
-331999
-332387
-332847
-333239
-333351
-333576
-333967
-334485
-334832
-334955
-335194
-335580
-336086
-336515
-336617
-336870
-337246
-337764
-338150
-338172
-338642
-338905
-339351
-339633
-339846
-340008
-340394
-340880
-341235
-341383
-341530
-341850
-342383
-342741
-342838
-342976
-343395
-343756
-344143
-344323
-344394
-344770
-345276
-345558
-345606
-345767
-346068
-346543
-346846
-346877
-346991
-347256
-347641
-347922
-347946
-347959
-348187
-348601
-348749
-348745
-348719
-348810
-349088
-349277
-349130
-349043
-349207
-349442
-349498
-349329
-349140
-349250
-349349
-349459
-349281
-349085
-349049
-349186
-349167
-348965
-348709
-348677
-348764
-348755
-348516
-348565
-348325
-348383
-348253
-348024
-347706
-347643
-347781
-347659
-347424
-347223
-347116
-347150
-347138
-346853
-346642
-346837
-346780
-346741
-346518
-346263
-346189
-346292
-346297
-346064
-345852
-345793
-345991
-346028
-345819
-345609
-345699
-345831
-345928
-345687
-345530
-345586
-345831
-345782
-345690
-345566
-345663
-345902
-345985
-345796
-345738
-345834
-346114
-346216
-346098
-345925
-346049
-346349
-346474
-346345
-346330
-346454
-346698
-346856
-346764
-346757
-346860
-347195
-347362
-347219
-347207
-347394
-347757
-347909
-347908
-347838
-348036
-348309
-348437
-348418
-348325
-348660
-349021
-349187
-349153
-349188
-349340
-349675
-349874
-349827
-349785
-350045
-350352
-350519
-350511
-350492
-350715
-351091
-351245
-351126
-351105
-351262
-351575
-351715
-351627
-351570
-351748
-352122
-352257
-352158
-352191
-352328
-352564
-352813
-352756
-352703
-352843
-353169
-353320
-353311
-353246
-353408
-353754
-353882
-353844
-353914
-354136
-354394
-354645
-354633
-354558
-354761
-355151
-355312
-355313
-355263
-355526
-355856
-356044
-356001
-356024
-356296
-356679
-356830
-356801
-356828
-357020
-357434
-357643
-357605
-357579
-357944
-358219
-358398
-358375
-358367
-358609
-358937
-359123
-359017
-358955
-359235
-359626
-359718
-359611
-359584
-359789
-360328
-360266
-360164
-360093
-360198
-360544
-360625
-360549
-360547
-360661
-360930
-361044
-360979
-360838
-361175
-361311
-361347
-361274
-361183
-361294
-361598
-361722
-361588
-361443
-361559
-361812
-361873
-361766
-361629
-361788
-362068
-362128
-362035
-361895
-362055
-362331
-362378
-362281
-362032
-362213
-362382
-362462
-362300
-362222
-362216
-362496
-362576
-362418
-362170
-362308
-362570
-362589
-362411
-362225
-362253
-362582
-362650
-362433
-362202
-362344
-362497
-362557
-362330
-362205
-362282
-362488
-362538
-362332
-362169
-362374
-362512
-362451
-362290
-362129
-362182
-362394
-362387
-362156
-362098
-362190
-362375
-362463
-362232
-362109
-362157
-362326
-362366
-362077
-361917
-361923
-362030
-361936
-361643
-361318
-361220
-361196
-360842
-360252
-359819
-359411
-359053
-358583
-357802
-357060
-356414
-355891
-355218
-354228
-353342
-352667
-351969
-351240
-350290
-349401
-348734
-348144
-347473
-346611
-345839
-345217
-344778
-344168
-343447
-342777
-342344
-342090
-341585
-341077
-340544
-340300
-340140
-339891
-339307
-338937
-338734
-338854
-338673
-338375
-338152
-338118
-338232
-338248
-338098
-337953
-338088
-338302
-338361
-338247
-338276
-338418
-338730
-338914
-338908
-338995
-339356
-339750
-340024
-340061
-340089
-340516
-341011
-341343
-341506
-341661
-342047
-342488
-342866
-343020
-343271
-343717
-344209
-344626
-344772
-344983
-345442
-345947
-346396
-346524
-346771
-347244
-347746
-348123
-348359
-348553
-349115
-349635
-350045
-350198
-350383
-350749
-351387
-351767
-351989
-352164
-352656
-353103
-353538
-353645
-353855
-354255
-354750
-355091
-355179
-355324
-355661
-356177
-356546
-356581
-356763
-357069
-357516
-357773
-357734
-357776
-358097
-358416
-358621
-358574
-358598
-358776
-359117
-359178
-359042
-359003
-359069
-359200
-359303
-359192
-359025
-359068
-359163
-359234
-359020
-358770
-358771
-358858
-358791
-358531
-358211
-358187
-358180
-358134
-357788
-357538
-357400
-357448
-357255
-356922
-356609
-356461
-356476
-356329
-355891
-355579
-355474
-355472
-355323
-354980
-354699
-354588
-354668
-354525
-354153
-353801
-353809
-353834
-353763
-353435
-353139
-353174
-353207
-353113
-352914
-352675
-352665
-352854
-352855
-352647
-352432
-352513
-352737
-352753
-352608
-352380
-352554
-352836
-352848
-352719
-352604
-352741
-353053
-353077
-353085
-353036
-353220
-353424
-353542
-353458
-353528
-353642
-354172
-354434
-354095
-354108
-354255
-354572
-354754
-354689
-354676
-354914
-355215
-355363
-355339
-355307
-355560
-355917
-356054
-355987
-356064
-356221
-356510
-356750
-356645
-356652
-356892
-357255
-357429
-357358
-357326
-357675
-358025
-358138
-358051
-358113
-358305
-358657
-358866
-358828
-358853
-359117
-359451
-359607
-359596
-359647
-359834
-360183
-360320
-360315
-360331
-360603
-360931
-361057
-361019
-361090
-361281
-361609
-361751
-361730
-361675
-361895
-362187
-362319
-362307
-362233
-362431
-362819
-362921
-362873
-362706
-362845
-363230
-363300
-363197
-363194
-363329
-363611
-363734
-363615
-363510
-363684
-363979
-364046
-363883
-363722
-363887
-364183
-364252
-364086
-363938
-364086
-364377
-364457
-364256
-364169
-364282
-364538
-364543
-364394
-364353
-364438
-364739
-364775
-364651
-364596
-364705
-364991
-365045
-364978
-364850
-364991
-365254
-365319
-365207
-365164
-365353
-365635
-365711
-365638
-365630
-365751
-365981
-366127
-366073
-366066
-366199
-366507
-366685
-366464
-366494
-366649
-367003
-367109
-367018
-366934
-367133
-367522
-367649
-367541
-367475
-367679
-367962
-368115
-367996
-368005
-368130
-368406
-368495
-368424
-368371
-368554
-368849
-368879
-368816
-368729
-368913
-369220
-369309
-369164
-369131
-369287
-369498
-369602
-369458
-369289
-369518
-369825
-369792
-369594
-369468
-369630
-369829
-369933
-369769
-369575
-369784
-369985
-369889
-369686
-369466
-369387
-369451
-369226
-368807
-368315
-367991
-367773
-367255
-366441
-365612
-365014
-364378
-363607
-362532
-361542
-360520
-359880
-358919
-357757
-356688
-355715
-354974
-354065
-353020
-351948
-351169
-350420
-349622
-348676
-347774
-347126
-346620
-345920
-345150
-344389
-343887
-343608
-343117
-342481
-342261
-341734
-341512
-341244
-340750
-340363
-340270
-340269
-340219
-339980
-339725
-339852
-340027
-340141
-339998
-339937
-340098
-340440
-340581
-340594
-340621
-340967
-341423
-341661
-341854
-342045
-342367
-342842
-343225
-343489
-343678
-344111
-344680
-345075
-345338
-345640
-346114
-346766
-347086
-347362
-347653
-348183
-348757
-349167
-349377
-349682
-350151
-350747
-351123
-351335
-351594
-352042
-352574
-352986
-353177
-353381
-353812
-354252
-354705
-354876
-355042
-355483
-355964
-356225
-356437
-356562
-356962
-357403
-357661
-357802
-357948
-358278
-358737
-359002
-359125
-359205
-359525
-359952
-360186
-360226
-360305
-360562
-360925
-361137
-361142
-361197
-361393
-361714
-361896
-361888
-361837
-362030
-362325
-362705
-362325
-362330
-362245
-362391
-362314
-362173
-362041
-361993
-362071
-362011
-361700
-361467
-361483
-361505
-361364
-361404
-360886
-360641
-360626
-360470
-360098
-359783
-359578
-359596
-359349
-358985
-358577
-358483
-358412
-358238
-357753
-357452
-357335
-357292
-357018
-356608
-356312
-356155
-356145
-356021
-355633
-355324
-355330
-355380
-355233
-354966
-354743
-354754
-354917
-354834
-354652
-354543
-354602
-354784
-354865
-354705
-354598
-354829
-355123
-355284
-355224
-355209
-355458
-355860
-356023
-356107
-356146
-356457
-356825
-357126
-357228
-357358
-357648
-358186
-358503
-358709
-358910
-359314
-359791
-360117
-360243
-360471
-360944
-361397
-361742
-361895
-362088
-362580
-363107
-363442
-363618
-363777
-364271
-364743
-365078
-365217
-365322
-365774
-366268
-366564
-366687
-366849
-367244
-367706
-368038
-368116
-368249
-368582
-369006
-369250
-369277
-369362
-369597
-370012
-370270
-370215
-370333
-370610
-371003
-371139
-370939
-370997
-371315
-371616
-371768
-371747
-371980
-371884
-372062
-372214
-372079
-372090
-372230
-372435
-372525
-372345
-372248
-372442
-372610
-372650
-372523
-372400
-372505
-372741
-372781
-372572
-372464
-372562
-372773
-372766
-372623
-372556
-372630
-372911
-372818
-372595
-372502
-372667
-372796
-372878
-372692
-372612
-372693
-372866
-372946
-372846
-372754
-372837
-373034
-373106
-372927
-372807
-372965
-373270
-373296
-373140
-373065
-373129
-373337
-373385
-373299
-373255
-373370
-373623
-373624
-373512
-373450
-373608
-373895
-373859
-373785
-373720
-373811
-374151
-374208
-374089
-374007
-374132
-374396
-374456
-374373
-374228
-374347
-374608
-374685
-374556
-374498
-374642
-374850
-374931
-374797
-374741
-375089
-375111
-375087
-374918
-374837
-374926
-375173
-375003
-374910
-375038
-375267
-375300
-375104
-375009
-375078
-375258
-375379
-375162
-375029
-375115
-375264
-375362
-375230
-375113
-375173
-375433
-375513
-375361
-375280
-375347
-375632
-375607
-375566
-375498
-375591
-375846
-375865
-375781
-375679
-375907
-376149
-376225
-376028
-375932
-376112
-376250
-376015
-375716
-375668
-375627
-375414
-374853
-374338
-373831
-373384
-372726
-371746
-370833
-369924
-369162
-368182
-366901
-365635
-364673
-363711
-362602
-361217
-360023
-359048
-358063
-356910
-355754
-354612
-353695
-352874
-351899
-350830
-349817
-349076
-348490
-347798
-346861
-346065
-345499
-345127
-344570
-343922
-343356
-343073
-342877
-342566
-342154
-341789
-341627
-341663
-341568
-341332
-341100
-341184
-341330
-341384
-341271
-341225
-341374
-341728
-341825
-341810
-341945
-342200
-342673
-342857
-342947
-343096
-343560
-343896
-344227
-344413
-344631
-345072
-345550
-345909
-346131
-346414
-346827
-347356
-347765
-348006
-348293
-348787
-349258
-349695
-349871
-350183
-350627
-351146
-351499
-351716
-351936
-352403
-352937
-353310
-353497
-353733
-354179
-354695
-354977
-355178
-355432
-355840
-356369
-356621
-356720
-356960
-357354
-357767
-358070
-358198
-358342
-358751
-359214
-359436
-359584
-359752
-360074
-360474
-360774
-360832
-360921
-361214
-361605
-361765
-361791
-361804
-362125
-362455
-362636
-362570
-362534
-362721
-363034
-363064
-362913
-362753
-362944
-363176
-363146
-362950
-362737
-362823
-362962
-362866
-362663
-362484
-362454
-362533
-362443
-362158
-361912
-361878
-361957
-361751
-361414
-361182
-361193
-361207
-360998
-360721
-360432
-360390
-360386
-360270
-359927
-359681
-359628
-359662
-359520
-359208
-358970
-358886
-359004
-358807
-358570
-358326
-358254
-358291
-358165
-357868
-357679
-357695
-357790
-357602
-357377
-357247
-357226
-357310
-357265
-356989
-356812
-356871
-357034
-356908
-356715
-356514
-356590
-356721
-356733
-356575
-356483
-356553
-356786
-356805
-356693
-356610
-356753
-356957
-356996
-356897
-356795
-356988
-357262
-357347
-357313
-357297
-357545
-357752
-357926
-357872
-357876
-358134
-358436
-358640
-358609
-358662
-358927
-359206
-359459
-359427
-359536
-359829
-360159
-360346
-360438
-360515
-360776
-361173
-361334
-361447
-361542
-361868
-362314
-362535
-362575
-362655
-362999
-363428
-363662
-363657
-363850
-364265
-364654
-364840
-364952
-365097
-365447
-365844
-366076
-366139
-366266
-366647
-367021
-367285
-367341
-367476
-367816
-368260
-368496
-368534
-368637
-368931
-369321
-369499
-369549
-369604
-369935
-370294
-370483
-370407
-370436
-370691
-370995
-371160
-371058
-371087
-371263
-371527
-371594
-371414
-371388
-371639
-371801
-371782
-371623
-371499
-371635
-371837
-371793
-371591
-371504
-371625
-371753
-371754
-371606
-371448
-371555
-371658
-371554
-371346
-371225
-371369
-371560
-371495
-371325
-371215
-371320
-371469
-371420
-371308
-371205
-371334
-371576
-371582
-371468
-371440
-371567
-371826
-371834
-371676
-371673
-371866
-372055
-372119
-371986
-371950
-372100
-372357
-372391
-372224
-372192
-372286
-372514
-372542
-372425
-372363
-372479
-372659
-372681
-372596
-372495
-372628
-372807
-372854
-372676
-372502
-372665
-372821
-372840
-372708
-372631
-372673
-372878
-372830
-372605
-372461
-372587
-372701
-372682
-372430
-372472
-372420
-372549
-372470
-372131
-371982
-372013
-371957
-371831
-371400
-371099
-370891
-370772
-370403
-369680
-368995
-368513
-367972
-367191
-366124
-365161
-364315
-363402
-362324
-361103
-359838
-358817
-357890
-356757
-355450
-354331
-353200
-352491
-351596
-350455
-349340
-348622
-347947
-347170
-346269
-345465
-344971
-344586
-344106
-343419
-343076
-342700
-342458
-342062
-341705
-341371
-341307
-341414
-341251
-341055
-340932
-341140
-341451
-341776
-341579
-341635
-341906
-342346
-342607
-342735
-343058
-343424
-343974
-344347
-344608
-344889
-345387
-346066
-346467
-346680
-346996
-347512
-348204
-348632
-348918
-349237
-349769
-350361
-350802
-351049
-351338
-351832
-352410
-352772
-352915
-353290
-353635
-354212
-354622
-354697
-354944
-355270
-355794
-356079
-356107
-356204
-356650
-356972
-357191
-357212
-357296
-357625
-357966
-358111
-358088
-358149
-358371
-358765
-358907
-358817
-358825
-359037
-359295
-359417
-359321
-359305
-359549
-359859
-359982
-359975
-359911
-360156
-360416
-360486
-360379
-360364
-360550
-360790
-360834
-360775
-360701
-360818
-361132
-361173
-361047
-361021
-361182
-361429
-361409
-361298
-361194
-361304
-361538
-361482
-361317
-361264
-361298
-361492
-361473
-361235
-361064
-361099
-361296
-361272
-361089
-360951
-360981
-361161
-361152
-360998
-360896
-360943
-361163
-361110
-360918
-360865
-360913
-361159
-361180
-361013
-360943
-361074
-361262
-361283
-361183
-361101
-361271
-361514
-361603
-361482
-361415
-361588
-361841
-361880
-361764
-361673
-361832
-362085
-362117
-362035
-362001
-362071
-362302
-362399
-362240
-362183
-362331
-362487
-362536
-362445
-362344
-362547
-362789
-362817
-362619
-362517
-362621
-362914
-362974
-362770
-362621
-362799
-363021
-363066
-362753
-362690
-362804
-362994
-363063
-362822
-362726
-362803
-362962
-362951
-362810
-362694
-362722
-362851
-362866
-362658
-362506
-362613
-362733
-362651
-362455
-362370
-362387
-362561
-362496
-362318
-362209
-362267
-362381
-362385
-362163
-362074
-362169
-362592
-362484
-362183
-362104
-362236
-362413
-362459
-362315
-362211
-362398
-362618
-362564
-362395
-362412
-362558
-362738
-362820
-362646
-362640
-362879
-363090
-363162
-363064
-363118
-363304
-363632
-363780
-363782
-363795
-364036
-364490
-364644
-364593
-364614
-364950
-365317
-365332
-365333
-365512
-365968
-366476
-366787
-366908
-367097
-367501
-367975
-368356
-368518
-368848
-369358
-369871
-370287
-370493
-370785
-371281
-371858
-372248
-372496
-372765
-373236
-373780
-374151
-374351
-374612
-375116
-375712
-376041
-376268
-376515
-376962
-377530
-377942
-378124
-378362
-378797
-379392
-379788
-379928
-380150
-380610
-381130
-381425
-381580
-381821
-382262
-382787
-383114
-383208
-383432
-383841
-384324
-384609
-384694
-384834
-385210
-385671
-385920
-385925
-386042
-386404
-386772
-386992
-386970
-387050
-387331
-387704
-387877
-387810
-387845
-388083
-388432
-388444
-388368
-388432
-388555
-388794
-388764
-388678
-388630
-388780
-388991
-388999
-388788
-388684
-388869
-388944
-388934
-388706
-388707
-388796
-388960
-388933
-388676
-388606
-388654
-388842
-388739
-388522
-388328
-388357
-388436
-388387
-388073
-387875
-387816
-387763
-387487
-386928
-386372
-385970
-385592
-384874
-383923
-382933
-382155
-381309
-380204
-378776
-377433
-376291
-375119
-373791
-372202
-370716
-369489
-368314
-367009
-365459
-364033
-362869
-361862
-360660
-359303
-357979
-357080
-356299
-355348
-354214
-353244
-352415
-351804
-351054
-350209
-349491
-348979
-348667
-348138
-347529
-346942
-346700
-346602
-346271
-345917
-345624
-345573
-345671
-345536
-345346
-345169
-345345
-345515
-345596
-345501
-345529
-345765
-346096
-346147
-346176
-346242
-346587
-346974
-347193
-347285
-347480
-347824
-348225
-348482
-348553
-348761
-349170
-349510
-349794
-349876
-350079
-350436
-350918
-351158
-351276
-351415
-351787
-352211
-352389
-352469
-352594
-353009
-353327
-353599
-353595
-353742
-354034
-354445
-354693
-354722
-354879
-355185
-355527
-355667
-355661
-355760
-356052
-356371
-356607
-356610
-356705
-357023
-357422
-357568
-357530
-357634
-357963
-358297
-358483
-358505
-358529
-358824
-359226
-359368
-359235
-359364
-359894
-360497
-360542
-360409
-360395
-360460
-360677
-360733
-360559
-360416
-360494
-360569
-360509
-360323
-360190
-360241
-360302
-360200
-359921
-359578
-359671
-359782
-359636
-359341
-359010
-359070
-359106
-358969
-358719
-358529
-358527
-358629
-358524
-358254
-358080
-358088
-358186
-358126
-357864
-357756
-357798
-357896
-357846
-357640
-357550
-357590
-357818
-357724
-357566
-357413
-357590
-357702
-357647
-357462
-357450
-357445
-357658
-357645
-357456
-357358
-357471
-357689
-357645
-357462
-357395
-357572
-357769
-357776
-357661
-357633
-357724
-357909
-357920
-357787
-357691
-357786
-358002
-358010
-357895
-357794
-357905
-358040
-358145
-358015
-357921
-358045
-358301
-358319
-358211
-358146
-358324
-358588
-358570
-358463
-358436
-358595
-358871
-358870
-358834
-358850
-359038
-359137
-359177
-359073
-359063
-359304
-359442
-359518
-359375
-359379
-359586
-359806
-359906
-359790
-359792
-359948
-360229
-360247
-360203
-360200
-360384
-360726
-360753
-360723
-360777
-360933
-361271
-361427
-361283
-361329
-361573
-361865
-362010
-361875
-361914
-362190
-362524
-362632
-362522
-362367
-362734
-363146
-363297
-363188
-363190
-363476
-363696
-363784
-363698
-363746
-363977
-364296
-364340
-364343
-364373
-364560
-364874
-364962
-364866
-364896
-365078
-365361
-365446
-365271
-365276
-365522
-365778
-365826
-365643
-365644
-365874
-366090
-366125
-365937
-365906
-366075
-366292
-366323
-366135
-366166
-366239
-366456
-366477
-366340
-366185
-366422
-366649
-366635
-366425
-366390
-366491
-366734
-366700
-366531
-366510
-366667
-366875
-366822
-366648
-366521
-366663
-366912
-366936
-366779
-366714
-366953
-367086
-367070
-366980
-366922
-367099
-367313
-367328
-367186
-367150
-367350
-367487
-367502
-367386
-367272
-367404
-367670
-367630
-367523
-367464
-367550
-367820
-367865
-367685
-367656
-367857
-368067
-368179
-367941
-367959
-368138
-368387
-368392
-368302
-368263
-368495
-368595
-368733
-368723
-368680
-368832
-369040
-369195
-369074
-368994
-369177
-369412
-369438
-369300
-369212
-369277
-369329
-369224
-368915
-368573
-368443
-368230
-367821
-367148
-366323
-365780
-365212
-364422
-363419
-362442
-361560
-360782
-359739
-358600
-357490
-356561
-355582
-354654
-353571
-352514
-351663
-350904
-349960
-348916
-347940
-347196
-346545
-345747
-344838
-344079
-343506
-343037
-342372
-341640
-341134
-340746
-340398
-340080
-339470
-339071
-338970
-338850
-338497
-338094
-337971
-338018
-338122
-338117
-337848
-337812
-337890
-338108
-338237
-338176
-338180
-338438
-338734
-338919
-338895
-339011
-339415
-339843
-339946
-340049
-340212
-340516
-340927
-341179
-341245
-341447
-341901
-342361
-342643
-342700
-342856
-343259
-343769
-343960
-344084
-344280
-344722
-345112
-345400
-345521
-345628
-345996
-346395
-346678
-346692
-346852
-347193
-347595
-347770
-347879
-347976
-348361
-348709
-348877
-348906
-349053
-349349
-349781
-349945
-349891
-350112
-350455
-350832
-351068
-351103
-351204
-351652
-352011
-352228
-352250
-352330
-352757
-353137
-353317
-353377
-353497
-353773
-354138
-354291
-354300
-354408
-354667
-354977
-355127
-355059
-355102
-355404
-355701
-355807
-355745
-355785
-356023
-356340
-356380
-356248
-356147
-356342
-356579
-356566
-356452
-356365
-356481
-356668
-356675
-356422
-356408
-356512
-356704
-356658
-356456
-356411
-356467
-356615
-356503
-356372
-356187
-356220
-356363
-356341
-356106
-355969
-356072
-356188
-356168
-355926
-355833
-355840
-356017
-356021
-355799
-355631
-355696
-355898
-355860
-355730
-355639
-355704
-355840
-355886
-355681
-355592
-355731
-355897
-355853
-355733
-355708
-355857
-356037
-356165
-356102
-355994
-356114
-356414
-356318
-356327
-356304
-356470
-356799
-356879
-356842
-356797
-356969
-357278
-357379
-357308
-357313
-357578
-357806
-357879
-357923
-358179
-358531
-358596
-358534
-358591
-358821
-359128
-359200
-359156
-359251
-359582
-359862
-359982
-359969
-360061
-360257
-360600
-360719
-360681
-360770
-361043
-361323
-361512
-361477
-361480
-361835
-362154
-362367
-362290
-362345
-362580
-363031
-363145
-363073
-363189
-363443
-363785
-363905
-363859
-363928
-364217
-364524
-364707
-364666
-364752
-364966
-365257
-365432
-365435
-365446
-365705
-366032
-366153
-366058
-366138
-366380
-366745
-366867
-366858
-366863
-367075
-367365
-367454
-367377
-367408
-367655
-367956
-368028
-367935
-367979
-368238
-368453
-368556
-368428
-368445
-368677
-369053
-369067
-368998
-369015
-369161
-369466
-369499
-369406
-369400
-369628
-369827
-369886
-369707
-369727
-369900
-370022
-370689
-371050
-371113
-371014
-371009
-371217
-371374
-371499
-371276
-371213
-371505
-371726
-371753
-371602
-371566
-371699
-371934
-372002
-371911
-371863
-372028
-372226
-372366
-372211
-372160
-372448
-372680
-372769
-372627
-372658
-372859
-373152
-373209
-373290
-373213
-373325
-373578
-373698
-373520
-373575
-373800
-374070
-374165
-374120
-374119
-374308
-374591
-374723
-374618
-374596
-374829
-375148
-375141
-375053
-375130
-375331
-375552
-375662
-375555
-375571
-375831
-376106
-376068
-376038
-376034
-376231
-376469
-376591
-376494
-376482
-376727
-376891
-376959
-376889
-376848
-377022
-377323
-377384
-377253
-377227
-377385
-377634
-377624
-377445
-377374
-377344
-377393
-377229
-376877
-376518
-376195
-375891
-375298
-374498
-373596
-372995
-372237
-371231
-370002
-368776
-367761
-366782
-365486
-364045
-362671
-361663
-360618
-359317
-357942
-356718
-355687
-354787
-353729
-352505
-351468
-350607
-349869
-348909
-347944
-347102
-346515
-346020
-345382
-344663
-344045
-343635
-343430
-342947
-342398
-342038
-341844
-341263
-341299
-341077
-341058
-341159
-341449
-341543
-341537
-341561
-341872
-342228
-342463
-342482
-342645
-342965
-343391
-343567
-343684
-343896
-344319
-344699
-344994
-345073
-345177
-345696
-346062
-346344
-346490
-346710
-347051
-347435
-347757
-347829
-347976
-348335
-348778
-348974
-349006
-349144
-349427
-349803
-350062
-350077
-350129
-350483
-350812
-350994
-351021
-351069
-351381
-351710
-351886
-351898
-351973
-352331
-352668
-352805
-352811
-352892
-353135
-353549
-353959
-353743
-353840
-354091
-354464
-354505
-354649
-354789
-355122
-355454
-355643
-355766
-355780
-356095
-356677
-356727
-356632
-356743
-357005
-357348
-357517
-357500
-357559
-357819
-358144
-358244
-358132
-358205
-358443
-358683
-358705
-358594
-358559
-358740
-358988
-358978
-358826
-358763
-358963
-359194
-359223
-358975
-358971
-359047
-359246
-359226
-359041
-358991
-359007
-359170
-359211
-358949
-358822
-358883
-359048
-358939
-358714
-358602
-358681
-358810
-358761
-358568
-358500
-358491
-358625
-358647
-358425
-358293
-358385
-358541
-358562
-358357
-358268
-358334
-358595
-358477
-358366
-358299
-358424
-358612
-358602
-358513
-358407
-358504
-358760
-358784
-358694
-358647
-358780
-359080
-359089
-358954
-358983
-359209
-359409
-359532
-359490
-359468
-359697
-360004
-360057
-359997
-360049
-360311
-360543
-360684
-360713
-360720
-361014
-361276
-361432
-361334
-361408
-361702
-362050
-362191
-362180
-362148
-362528
-362794
-362920
-362960
-363064
-363341
-363682
-363847
-363868
-363973
-364145
-364558
-364665
-364671
-364698
-364943
-365332
-365446
-365459
-365557
-365744
-366124
-366314
-366317
-366336
-366582
-366899
-367038
-367000
-367067
-367434
-367698
-367872
-367811
-367833
-368102
-368464
-368545
-368501
-368523
-368828
-369259
-369331
-369226
-369271
-369491
-369839
-369912
-369851
-369874
-370156
-370498
-370584
-370539
-370608
-370864
-371094
-371203
-371154
-371213
-371469
-371734
-371816
-371782
-371792
-372075
-372373
-372448
-372411
-372384
-372604
-372924
-373011
-372821
-372901
-373114
-373386
-373405
-373312
-373308
-373498
-373733
-373819
-373670
-373724
-373843
-374129
-374194
-374075
-373976
-374172
-374431
-374448
-374395
-374328
-374477
-374658
-374688
-374540
-374511
-374689
-374895
-374900
-374777
-374719
-374960
-375178
-375200
-375063
-375016
-375183
-375389
-375429
-375258
-375243
-375396
-375682
-375676
-375516
-375485
-375680
-376011
-375998
-375931
-375940
-376075
-376352
-376379
-376294
-376315
-376446
-376730
-376783
-376692
-376697
-376796
-377129
-377101
-377030
-376988
-377155
-377459
-377538
-377380
-377393
-377542
-377784
-377836
-377738
-377663
-377861
-378119
-378250
-378113
-378053
-378283
-378529
-378486
-378469
-378526
-378557
-378754
-378736
-378570
-378447
-378500
-378613
-378400
-378020
-377667
-377427
-377234
-376731
-375981
-375136
-374622
-373952
-372990
-371843
-370741
-369771
-368849
-367679
-366359
-365076
-363953
-362963
-361771
-360374
-359110
-358114
-357282
-356220
-354995
-353941
-353112
-352319
-351443
-350501
-349593
-349003
-348452
-347858
-347030
-346412
-345997
-345734
-345293
-344648
-344254
-344114
-344036
-343835
-343651
-343419
-343320
-343361
-343321
-343141
-343136
-343219
-343473
-343564
-343554
-343680
-343899
-344288
-344449
-344453
-344650
-344980
-345406
-345665
-345815
-345936
-346373
-346816
-347153
-347225
-347482
-347913
-348374
-348681
-348795
-349084
-349475
-349957
-350147
-350297
-350579
-351000
-351446
-351724
-351909
-351881
-352352
-352700
-352965
-353035
-353181
-353529
-353998
-354237
-354274
-354395
-354787
-355151
-355317
-355401
-355521
-355853
-356243
-356460
-356560
-356627
-356986
-357406
-357636
-357599
-357796
-358137
-358515
-358781
-358792
-359007
-359343
-359784
-360015
-360059
-360165
-360507
-360899
-361062
-361141
-361228
-361483
-361667
-361949
-361927
-361995
-362320
-362639
-362708
-362626
-362648
-362897
-363109
-363153
-362994
-362983
-363136
-363382
-363354
-363160
-363095
-363262
-363422
-363407
-363150
-363034
-363168
-363365
-363223
-362982
-362825
-362924
-363132
-362961
-362714
-362569
-362675
-362793
-362678
-362426
-362277
-362363
-362495
-362345
-362085
-361947
-361982
-362164
-362086
-361772
-361666
-361698
-361836
-361784
-361615
-361497
-361592
-361684
-361708
-361467
-361401
-361532
-361620
-361670
-361523
-361440
-361545
-361808
-361825
-361663
-361644
-361717
-361969
-362026
-361935
-361853
-362100
-362363
-362373
-362279
-362259
-362452
-362796
-362916
-362790
-363381
-363365
-363383
-363612
-363919
-364074
-364058
-364086
-364344
-364638
-364740
-364783
-364818
-365075
-365411
-365566
-365558
-365571
-365826
-366248
-366322
-366360
-366405
-366738
-367074
-367224
-367306
-367247
-367580
-367976
-368049
-368069
-368166
-368414
-368808
-368915
-368927
-368933
-369261
-369595
-369833
-369768
-369755
-370035
-370426
-370576
-370521
-370493
-370833
-371162
-371342
-371301
-371365
-371617
-371960
-372100
-372014
-372058
-372230
-372584
-372740
-372749
-372750
-373026
-373346
-373450
-373376
-373397
-373636
-373961
-374064
-373969
-373985
-374206
-374562
-374578
-374557
-374504
-374753
-374982
-375064
-374969
-374989
-375219
-375560
-375559
-375468
-375449
-375633
-375822
-375927
-375825
-375884
-375992
-376300
-376379
-376168
-376166
-376374
-376601
-376696
-376449
-376481
-376669
-376847
-376813
-376742
-376688
-376812
-377040
-376989
-376952
-376856
-376975
-377172
-377260
-377109
-376955
-377169
-377398
-377350
-377187
-377113
-377269
-377505
-377530
-377384
-377299
-377452
-377650
-377646
-377555
-377480
-377658
-377841
-377880
-377713
-377628
-377744
-377977
-378010
-377878
-377806
-377926
-378221
-378120
-378004
-377940
-378090
-378320
-378303
-378211
-378151
-378311
-378571
-378664
-378404
-378399
-378528
-378809
-378759
-378582
-378668
-378785
-378989
-378810
-378750
-378913
-379221
-379236
-379124
-379108
-379258
-379553
-379573
-379385
-379403
-379564
-379825
-379886
-379769
-379700
-379888
-380165
-380229
-380093
-380026
-380266
-380496
-380594
-380487
-380490
-380544
-380871
-381144
-380804
-380706
-380786
-380912
-380972
-380736
-380510
-380503
-380514
-380159
-379636
-379184
-378829
-378502
-377781
-376906
-376027
-375235
-374610
-373593
-372423
-371286
-370379
-369536
-368380
-367060
-365875
-364988
-364106
-363082
-361847
-360758
-359821
-359094
-358142
-357034
-356175
-355432
-354892
-354101
-353145
-352727
-352043
-351625
-351108
-350387
-349841
-349496
-349320
-349036
-348530
-348195
-348077
-348127
-347940
-347672
-347463
-347693
-347740
-347703
-347531
-347511
-347650
-348001
-348065
-348081
-348177
-348490
-349757
-351447
-351968
-352755
-353235
-353791
-354122
-354327
-354611
-355187
-355674
-356053
-356220
-356529
-357019
-357570
-357968
-358104
-358397
-358892
-359491
-359809
-359929
-360204
-360716
-361318
-361611
-361820
-362071
-362588
-363101
-363455
-363679
-363867
-364346
-364852
-365231
-365382
-365630
-366067
-366585
-366733
-366918
-366987
-367473
-368051
-368212
-368296
-368501
-368823
-369222
-369381
-369383
-369480
-369757
-370102
-370245
-370134
-370182
-370375
-370587
-370649
-370413
-370332
-370499
-370585
-370552
-370342
-370233
-370213
-370371
-370214
-369952
-369737
-369747
-369894
-369660
-369399
-369127
-369138
-369174
-368986
-368659
-368420
-368322
-368300
-368152
-367777
-367534
-367522
-367580
-367353
-367010
-366742
-366720
-366718
-366523
-366187
-365925
-365982
-366004
-365858
-365536
-365281
-365345
-365422
-365281
-365006
-364835
-364920
-364972
-364889
-364842
-364440
-364546
-364665
-364616
-364393
-364246
-364243
-364525
-364713
-364398
-364245
-364369
-364632
-364620
-364427
-364382
-364536
-364804
-364869
-364665
-364686
-364962
-365191
-365199
-365108
-365130
-365423
-365692
-365772
-365687
-365725
-366022
-366282
-366401
-366318
-366384
-366700
-366999
-367160
-367077
-367152
-367424
-367807
-367961
-367927
-367982
-368230
-368582
-368739
-368711
-368783
-369057
-369445
-369557
-369585
-369638
-369866
-370337
-370483
-370461
-370478
-370803
-371147
-371333
-371320
-371324
-371613
-371920
-372138
-372082
-372130
-372433
-372720
-372805
-372772
-372829
-373219
-373498
-373644
-373559
-373583
-373870
-374156
-374239
-374229
-374253
-374553
-374831
-374918
-374777
-374868
-375113
-375348
-375441
-375315
-375299
-375519
-375838
