PPG
-361591
-361465
-361452
-361501
-361407
-361353
-361321
-361266
-361315
-361310
-361264
-361261
-361278
-361291
-361268
-361278
-361237
-361201
-361274
-361313
-361332
-361366
-361350
-361476
-361471
-361528
-361486
-361571
-361841
-361794
-361795
-361825
-361937
-362053
-362137
-362236
-362292
-362477
-362597
-362719
-362854
-363022
-363137
-363465
-363591
-363772
-363871
-364062
-364342
-364547
-364731
-364851
-365062
-365322
-365508
-365638
-365778
-365968
-366144
-366385
-366498
-366602
-366804
-367008
-367108
-367165
-367270
-367399
-367558
-367634
-367770
-367767
-367736
-367930
-368015
-368039
-368059
-368103
-368176
-368259
-368264
-368234
-368286
-368380
-368326
-368320
-368309
-368367
-368404
-368407
-368419
-368420
-368365
-368469
-368511
-368476
-368431
-368461
-368502
-368588
-368563
-368569
-368555
-368694
-368716
-368735
-368670
-368782
-368889
-368874
-368843
-368917
-368933
-369144
-369150
-369171
-369188
-369224
-369369
-369442
-369516
-369480
-369580
-369745
-369796
-369843
-369865
-369947
-370004
-370141
-370211
-370291
-370334
-370473
-370603
-370655
-370778
-370819
-370867
-371070
-371085
-371183
-371326
-371414
-371526
-371606
-371703
-371753
-371894
-372048
-372159
-372150
-372346
-372495
-372563
-372669
-372685
-372739
-372912
-373064
-373145
-373209
-373351
-373513
-373504
-373703
-373722
-373846
-373961
-374103
-374141
-374150
-374347
-374529
-374633
-374726
-374709
-374865
-375011
-375160
-375190
-375264
-375370
-375571
-375596
-375695
-375769
-375871
-375998
-376059
-376167
-376180
-376315
-376480
-376553
-376564
-376594
-376671
-376820
-376930
-376955
-377100
-377262
-377241
-377316
-377294
-377291
-377437
-377612
-377628
-377735
-377869
-378043
-378078
-378110
-378195
-378219
-378227
-378322
-378434
-378433
-378494
-378584
-378662
-378774
-378750
-378849
-378858
-378898
-379092
-379078
-379167
-379168
-379233
-379259
-379348
-379386
-379464
-379534
-379633
-379731
-379779
-379715
-379850
-379972
-380033
-380024
-380072
-380286
-380327
-380368
-380386
-380485
-380573
-380594
-380715
-380722
-380822
-380931
-381012
-381149
-381068
-381101
-381211
-381315
-381359
-381427
-381474
-381658
-381625
-381752
-381695
-381834
-381932
-381910
-382012
-382043
-382186
-382269
-382342
-382434
-382394
-382447
-382448
-382598
-382609
-382641
-382804
-382904
-382953
-382999
-382265
-379973
-379545
-379201
-378736
-378321
-375359
-374971
-374424
-373943
-373464
-372890
-372550
-372054
-371597
-369731
-368483
-368219
-367850
-367146
-366820
-366497
-366226
-365908
-365697
-365399
-365235
-364970
-364762
-364599
-364379
-364179
-364046
-363887
-363773
-363563
-363529
-363394
-363268
-363146
-363034
-362980
-362950
-362892
-362742
-362733
-362770
-362727
-362600
-362602
-362873
-362680
-362601
-362599
-362600
-362494
-362584
-362595
-362583
-362599
-362604
-362825
-362668
-362649
-362745
-362706
-362841
-362877
-362873
-362956
-362950
-363099
-363110
-363128
-363220
-363296
-363374
-363579
-363626
-363766
-363745
-363914
-364082
-364236
-364332
-364490
-364622
-364806
-364939
-365146
-365224
-365406
-365611
-365833
-366034
-366220
-366397
-366570
-366732
-366978
-367629
-367811
-367915
-368140
-368294
-368394
-368491
-368816
-369000
-369047
-369109
-369216
-369266
-369321
-369500
-369417
-369484
-369492
-369431
-369393
-369447
-369432
-369499
-369473
-369415
-369389
-369422
-369454
-369503
-369410
-369483
-369442
-369406
-369393
-369261
-369276
-369271
-369334
-369363
-369292
-369321
-369319
-369230
-369304
-369301
-369360
-369369
-369426
-369413
-369493
-369468
-369511
-369586
-369500
-369599
-369679
-369728
-369710
-369838
-369923
-369979
-369998
-370046
-370154
-370183
-370259
-370351
-370360
-370370
-370478
-370628
-370675
-370712
-370798
-370857
-370978
-371082
-371198
-371171
-371362
-371445
-371535
-371594
-371585
-371706
-371850
-371915
-372076
-372087
-372270
-372419
-372417
-372511
-372523
-372704
-372829
-372913
-372997
-373139
-373301
-373378
-373449
-373536
-373657
-373782
-373865
-373997
-374098
-374172
-374364
-374439
-374547
-374522
-374585
-374780
-374902
-374982
-375097
-375171
-375308
-375461
-375515
-375576
-375679
-375790
-375929
-375921
-376037
-376075
-376285
-376317
-376371
-376411
-376451
-376588
-376720
-376806
-376836
-376930
-376980
-377070
-377078
-377117
-377180
-377271
-377390
-377413
-377459
-377554
-377596
-377665
-377739
-377736
-377783
-377888
-377927
-378054
-378100
-378090
-378244
-378255
-378261
-378249
-378329
-378290
-378434
-378423
-378526
-378543
-378586
-378605
-378622
-378580
-378669
-378753
-378728
-378760
-378782
-378941
-378959
-378955
-378932
-378938
-379013
-379111
-379139
-379184
-379251
-379403
-379438
-379504
-379493
-379505
-379530
-379684
-379733
-379712
-379828
-379928
-379903
-379961
-380019
-380139
-380196
-380191
-380241
-380237
-380371
-380374
-380417
-380432
-380376
-380514
-380589
-380556
-380611
-380640
-380615
-380756
-380742
-380812
-380778
-380867
-380913
-380915
-380921
-380977
-381034
-381087
-381101
-381019
-381002
-381048
-380952
-380971
-380942
-380814
-380858
-380660
-380569
-380324
-380091
-379848
-379661
-379427
-379095
-378838
-378512
-378165
-377819
-377392
-376958
-376606
-376065
-375599
-375205
-374737
-374361
-373773
-373299
-372794
-372296
-371922
-371429
-370961
-370513
-370015
-369643
-369193
-368761
-368377
-368162
-367679
-367297
-366841
-366549
-366256
-365961
-365668
-365379
-365008
-364822
-364618
-364367
-364149
-363778
-363694
-363579
-363352
-363092
-363105
-362882
-362782
-362689
-362574
-362399
-362231
-362255
-362151
-362058
-361989
-361859
-361865
-361849
-361771
-361740
-361735
-361697
-361636
-361586
-361507
-361508
-361447
-361448
-361447
-361436
-361419
-361482
-361464
-361444
-361401
-361413
-361446
-361472
-361423
-361414
-361496
-361598
-361624
-361602
-361639
-361656
-361722
-361771
-361821
-361866
-361950
-362097
-362219
-362256
-362271
-362412
-362602
-362741
-362881
-362998
-363169
-363424
-363534
-363689
-363815
-363954
-364205
-364376
-364548
-364740
-364923
-365202
-365380
-365538
-365706
-365865
-366075
-366295
-366392
-366522
-366703
-366923
-367059
-367225
-367217
-367347
-367443
-367655
-367750
-367860
-367911
-368073
-368118
-368164
-368222
-368260
-368355
-368419
-368479
-368510
-368535
-368625
-368658
-368622
-368558
-368577
-368679
-368954
-368724
-368639
-368663
-368713
-368734
-368640
-368654
-368648
-368647
-368644
-368716
-368673
-368707
-368675
-368709
-368738
-368763
-368780
-368834
-368845
-368789
-368810
-368884
-369075
-369056
-369039
-369084
-369041
-369156
-369251
-369271
-369362
-369417
-369519
-369565
-369669
-369695
-369729
-369849
-369883
-370006
-370095
-370149
-370290
-370389
-370474
-370462
-370609
-370706
-370789
-370827
-370939
-371026
-371202
-371240
-371334
-371413
-371461
-371529
-371643
-371774
-371868
-371985
-372120
-372154
-372263
-372418
-372958
-372785
-372838
-372870
-372946
-373159
-373237
-373310
-373392
-373558
-373695
-373813
-373947
-373988
-374260
-374351
-374402
-374528
-374559
-374748
-374870
-374926
-375077
-375141
-375320
-375417
-375841
-375688
-375702
-375762
-375894
-376048
-376143
-376255
-376389
-376484
-376604
-376676
-376727
-376853
-376961
-376993
-377066
-377118
-377217
-377315
-377383
-377494
-377488
-377570
-377654
-377742
-377828
-377883
-377928
-378046
-378098
-378173
-378184
-378261
-378330
-378371
-378456
-378559
-378619
-378705
-378825
-378830
-378846
-378856
-378977
-378963
-379011
-379068
-379129
-379231
-379277
-379328
-379326
-379388
-379472
-379532
-379634
-379597
-379653
-379831
-379881
-379902
-379845
-379964
-380113
-380104
-380110
-380180
-380251
-380416
-380436
-380499
-380472
-380576
-380590
-380702
-380794
-380811
-380966
-381180
-381160
-381211
-381283
-381421
-381560
-381570
-381630
-381632
-381737
-381868
-381901
-382010
-382027
-382163
-382194
-382253
-382336
-382292
-382426
-382584
-382638
-382701
-382660
-382834
-382930
-383029
-383093
-383226
-383354
-383389
-383482
-383449
-383567
-383673
-383720
-383823
-383759
-383841
-383843
-383932
-383843
-383814
-383771
-383758
-383648
-383538
-383367
-383319
-383102
-382954
-382749
-382319
-382059
-381742
-381354
-381007
-380596
-380237
-379866
-379360
-378915
-378392
-377926
-377465
-376869
-376398
-375855
-375518
-374975
-374402
-373890
-373397
-372907
-372428
-371857
-371310
-370860
-370430
-370295
-369645
-369247
-368704
-368363
-368050
-367657
-367270
-366930
-366673
-366339
-365995
-365695
-365404
-365127
-365013
-364716
-364532
-364071
-363824
-363722
-363506
-363377
-363192
-363014
-362859
-362844
-362794
-362671
-362585
-362459
-362427
-362425
-362278
-362293
-362322
-362289
-362200
-362245
-362127
-362131
-362152
-362177
-362169
-362121
-362237
-362245
-362171
-362204
-362178
-362210
-362224
-362243
-362251
-362250
-362360
-362493
-362464
-362463
-362494
-362569
-362644
-362698
-362838
-362894
-363040
-363070
-363101
-363307
-363336
-363496
-363675
-363779
-363997
-364110
-364367
-364511
-364669
-364823
-364943
-365159
-365329
-365440
-365676
-365882
-366105
-366222
-366345
-366515
-366652
-366854
-367154
-367229
-367413
-367634
-367741
-367772
-367876
-367911
-368046
-368225
-368247
-368347
-368414
-368484
-368536
-368507
-368538
-368596
-368648
-368666
-368647
-368688
-368560
-368684
-368644
-368541
-368561
-368489
-368445
-368475
-368417
-368430
-368341
-368379
-368369
-368346
-368396
-368340
-368370
-368384
-368312
-368311
-368298
-368511
-368572
-368765
-368823
-368903
-368976
-369442
-369437
-369541
-369620
-369906
-370015
-370034
-370092
-370199
-370342
-370471
-370515
-370549
-370554
-370679
-370855
-371029
-371218
-371358
-371610
-371732
-371856
-372074
-372214
-372277
-372316
-372308
-372495
-372683
-372735
-372791
-372950
-373751
-374134
-374447
-374551
-374666
-374914
-375005
-374871
-375014
-375134
-375181
-375355
-375381
-375448
-375559
-375637
-375693
-375767
-375793
-375795
-375936
-376017
-376091
-376058
-376069
-376196
-376239
-376256
-376317
-376332
-376383
-376490
-376554
-376521
-376504
-376618
-376754
-376772
-376649
-376692
-376818
-376891
-376856
-376918
-376939
-377036
-377122
-377124
-377137
-377152
-377274
-377298
-377337
-377345
-377405
-377578
-377565
-377620
-377576
-377608
-377747
-377867
-377919
-377988
-378033
-378186
-378196
-378259
-378269
-378341
-378477
-378624
-378641
-378781
-378818
-378944
-379002
-379113
-379032
-379124
-379162
-379303
-379416
-379490
-379526
-379678
-379750
-379832
-379785
-379848
-379988
-380046
-380174
-380160
-380256
-380379
-380438
-380452
-380502
-380594
-380597
-380735
-380699
-380773
-380689
-380814
-380864
-380921
-380813
-380809
-380802
-380676
-380686
-380558
-380366
-380393
-380121
-379924
-379676
-379395
-379128
-378899
-378558
-378109
-377730
-377381
-376936
-376504
-375930
-375496
-375068
-374624
-374095
-373643
-373048
-372599
-372050
-371468
-370995
-370478
-370058
-369554
-369088
-368615
-368151
-367806
-367348
-366999
-366479
-366118
-365749
-365504
-365404
-364819
-364452
-364248
-363937
-363673
-363350
-363146
-362982
-362776
-362522
-362307
-362165
-362090
-361977
-361814
-361586
-361481
-361420
-361336
-361209
-361133
-360989
-361046
-360913
-360866
-360747
-360758
-360681
-360640
-360732
-360633
-360572
-360626
-360682
-360561
-360500
-360497
-360553
-360575
-360540
-360531
-360557
-360566
-360658
-360745
-360622
-360577
-360636
-360680
-360780
-360769
-360735
-360864
-360867
-360832
-360761
-360868
-361028
-361093
-361142
-361198
-361265
-361475
-361781
-361643
-361677
-361703
-361885
-362003
-362188
-362313
-362563
-362642
-362734
-362930
-363059
-363268
-363403
-363538
-363740
-363918
-364101
-364357
-364527
-364667
-364809
-364986
-365019
-365287
-365515
-365592
-365753
-366009
-366084
-366174
-366251
-366390
-366492
-366596
-366686
-366725
-366745
-366916
-366986
-366923
-366926
-366976
-367065
-367130
-367164
-367105
-367148
-367224
-367225
-367133
-367074
-367062
-367114
-367092
-367085
-367258
-367214
-367169
-367167
-367085
-367046
-367094
-367221
-367229
-367258
-367188
-367246
-367369
-367426
-367428
-367432
-367424
-367519
-367551
-367647
-367573
-367641
-367788
-367800
-367776
-367841
-367898
-368018
-368140
-368185
-368317
-368532
-368596
-368683
-368675
-368833
-368889
-369020
-369099
-369084
-369227
-369387
-369500
-369625
-369205
-369559
-369725
-369969
-370090
-370051
-370100
-370280
-370393
-370434
-370517
-370651
-370810
-370845
-370969
-370991
-371140
-371352
-371446
-371433
-371464
-371591
-371690
-371811
-371854
-371919
-372038
-372267
-372262
-372597
-372495
-372469
-372654
-372752
-372818
-372922
-372895
-373157
-373143
-373262
-373295
-373472
-373607
-374030
-374112
-374132
-374159
-374271
-374343
-374495
-374583
-375040
-375705
-375795
-375762
-375867
-376037
-376004
-376161
-376181
-376178
-376338
-376427
-376652
-376699
-376713
-376910
-376928
-377262
-377140
-377149
-377174
-377132
-377235
-377349
-377362
-377476
-377396
-377502
-377596
-377667
-377741
-377847
-377873
-377780
-377925
-377900
-377957
-378149
-378304
-378382
-378450
-378499
-378609
-378662
-378707
-378783
-378799
-378958
-379031
-379011
-378961
-379135
-379166
-379235
-379312
-379238
-379353
-379450
-379512
-379561
-379632
-379755
-379792
-379872
-379976
-380094
-380141
-380196
-380218
-380328
-380463
-380491
-380514
-380518
-380655
-380785
-380740
-380813
-380747
-380808
-380841
-380788
-380740
-380619
-380637
-380625
-380430
-380259
-380082
-379933
-379756
-379370
-379125
-378873
-378601
-378269
-377885
-377454
-377001
-376545
-376112
-375683
-375117
-374588
-374126
-373664
-373174
-372689
-372116
-371645
-371194
-370677
-370164
-369599
-369168
-368780
-368220
-367757
-367370
-366864
-366573
-366122
-365752
-365472
-365155
-364815
-364459
-364147
-363800
-363577
-363346
-363091
-362853
-362651
-362453
-362293
-362043
-361910
-361701
-361554
-361479
-361285
-361252
-361061
-361044
-360940
-360846
-360627
-360571
-360508
-360437
-360357
-360279
-360329
-360280
-360197
-360159
-360081
-360115
-360125
-360035
-360084
-360037
-360053
-360098
-360052
-360060
-360044
-359992
-360080
-360027
-360116
-360082
-360128
-360164
-360160
-360186
-360175
-360213
-360313
-360338
-360379
-360404
-360536
-360610
-360677
-360691
-360770
-360850
-360963
-361086
-361179
-361228
-361400
-361602
-361686
-361813
-361981
-362153
-362366
-362493
-362618
-362805
-363025
-363234
-363374
-363556
-363704
-363871
-364028
-364244
-364394
-364568
-364749
-364901
-364992
-365251
-365279
-365454
-365619
-365677
-365829
-365866
-366016
-366169
-366256
-366281
-366329
-366438
-366521
-366599
-366646
-366659
-366742
-366758
-366776
-366775
-366730
-366841
-366898
-366856
-366884
-366890
-367007
-366995
-366991
-367004
-366973
-367023
-367087
-367076
-367130
-367088
-367176
-367247
-367161
-367163
-367198
-367356
-367327
-367381
-367458
-367437
-367571
-367554
-367615
-367677
-367693
-367786
-367907
-368014
-368085
-368051
-368197
-368372
-368366
-368404
-368445
-368561
-368659
-368742
-368874
-368870
-369045
-369172
-369138
-369249
-369256
-369404
-369574
-369670
-369741
-369821
-369969
-370096
-370233
-370146
-370286
-370344
-370520
-370668
-370793
-370882
-371082
-371156
-371205
-371283
-371346
-371493
-371660
-371738
-371858
-372242
-372150
-372182
-372180
-372326
-372417
-372547
-372645
-372787
-373146
-373300
-374000
-374385
-374525
-374683
-374767
-375072
-375191
-375321
-375456
-375526
-375617
-375733
-375891
-375979
-375969
-376030
-376081
-376334
-376338
-376426
-376463
-376588
-376657
-376726
-376647
-376589
-376733
-376871
-376997
-377065
-377052
-377116
-377293
-377254
-377217
-377181
-377377
-377397
-377485
-377546
-377564
-377653
-377683
-377688
-377611
-377627
-377720
-377836
-377817
-377885
-377972
-378053
-378096
-378067
-378071
-378054
-378169
-378268
-378323
-378328
-378298
-378454
-378543
-378534
-378580
-378627
-378705
-378797
-378772
-378874
-378875
-379052
-379100
-379116
-379180
-379200
-379286
-379419
-379446
-379513
-379563
-379688
-379705
-379791
-379808
-379825
-379940
-379955
-380060
-380174
-380161
-380359
-380377
-380376
-380427
-380443
-380617
-380703
-380541
-380700
-380760
-380907
-380988
-380938
-380978
-380960
-381116
-381182
-381205
-381227
-381166
-381280
-381254
-381210
-381075
-381088
-381051
-380947
-380710
-380651
-380321
-380232
-379975
-379651
-379320
-378956
-378666
-378351
-377880
-377512
-377028
-376620
-376159
-375606
-375071
-374575
-374130
-373625
-373149
-372617
-372100
-371616
-371123
-370550
-370295
-369650
-369155
-368676
-368237
-367751
-367340
-367023
-366548
-366161
-365738
-365405
-365091
-364756
-364468
-364165
-363850
-363676
-363392
-363149
-362858
-362672
-362469
-362311
-362149
-362003
-361702
-361663
-361481
-361364
-361184
-361096
-361000
-360923
-360806
-360676
-360619
-360609
-360635
-360518
-360462
-360400
-360414
-360413
-360302
-360311
-360282
-360370
-360300
-360323
-360220
-360210
-360306
-360348
-360330
-360371
-360362
-360360
-360475
-360408
-360514
-360496
-360556
-360684
-360646
-360720
-360781
-360890
-360932
-361013
-361027
-361138
-361279
-361374
-361445
-361541
-361602
-361797
-361920
-361998
-362169
-362282
-362455
-362652
-362739
-363040
-363219
-363593
-363894
-364345
-364490
-364678
-364891
-365057
-365367
-365676
-365757
-365873
-366460
-366611
-366681
-366927
-367041
-367130
-367180
-367260
-367347
-367407
-367560
-367568
-367821
-367889
-367909
-370004
-370113
-370218
-370276
-370352
-370592
-370634
-370616
-370702
-370831
-370917
-371059
-371165
-371245
-371281
-371447
-371564
-371677
-371701
-371815
-371955
-372067
-372255
-372265
-372455
-372570
-372689
-372813
-372864
-372959
-373152
-373331
-373492
-373622
-373808
-373945
-373993
-374031
-374153
-374345
-374417
-374539
-374609
-375000
-375273
-375415
-375559
-375679
-375773
-375822
-375979
-376125
-376128
-376126
-376258
-376401
-376578
-376676
-376775
-376827
-376970
-377074
-377230
-377224
-377323
-377375
-377497
-377621
-377629
-377696
-377781
-377905
-377948
-378020
-378010
-378097
-378187
-378293
-378337
-378381
-378446
-378577
-378593
-378635
-378629
-378603
-378733
-378840
-378847
-379078
-379068
-379075
-379140
-379105
-379157
-379302
-379329
-379377
-379369
-379449
-379568
-379567
-379596
-379608
-379663
-379773
-379891
-379897
-379937
-380142
-380177
-380141
-380237
-380320
-380410
-380505
-380617
-380757
-381068
-380969
-380874
-380967
-381015
-381046
-381118
-381167
-381284
-381387
-381463
-381520
-381543
-381551
-381722
-381770
-381847
-381861
-381915
-382068
-382136
-382212
-382193
-382215
-382316
-382355
-382468
-382482
-382544
-382665
-382664
-382788
-382706
-382825
-382887
-382920
-382981
-382964
-383055
-383144
-383225
-383245
-383139
-383472
-383350
-383267
-383268
-383094
-383134
-383096
-382968
-382814
-382619
-382492
-382290
-382040
-381865
-381427
-381177
-380933
-380525
-380104
-379721
-379339
-378876
-378415
-377989
-377365
-376933
-376485
-375945
-375349
-374765
-374426
-373919
-373298
-372829
-372380
-371940
-371424
-370973
-370463
-369919
-369590
-369176
-368797
-368433
-368006
-367721
-367440
-367072
-366801
-366455
-366212
-365944
-365659
-365442
-365226
-365054
-364885
-364652
-364524
-364309
-364165
-364094
-363935
-363840
-363733
-363642
-363675
-363536
-363422
-363340
-363316
-363305
-363284
-363326
-363216
-363180
-363234
-363249
-363138
-363069
-363137
-363200
-363166
-363215
-363205
-363251
-363355
-363280
-363351
-363334
-363374
-363479
-363547
-363528
-363599
-363744
-363817
-363826
-363948
-364035
-364106
-364194
-364226
-364364
-364476
-364648
-364740
-364807
-365021
-365176
-365332
-365461
-365539
-365761
-365902
-366131
-366366
-366529
-366798
-366884
-367099
-367243
-367484
-367659
-367774
-367977
-368158
-368352
-368539
-368688
-368841
-368948
-369130
-369237
-369392
-369548
-369664
-369756
-369868
-369866
-370053
-370046
-370103
-370154
-370183
-370317
-370345
-370367
-370411
-370325
-370378
-370427
-370421
-370330
-370432
-370371
-370398
-370361
-370345
-370269
-370307
-370282
-370218
-370200
-370179
-370197
-370167
-370155
-370116
-370086
-370120
-370109
-370123
-370116
-370038
-370093
-370189
-370162
-370179
-370117
-370126
-370194
-370189
-370149
-370200
-370335
-370365
-370398
-370413
-370419
-370710
-370592
-370645
-370643
-370639
-370709
-370897
-370842
-370905
-370955
-371064
-371168
-371218
-371288
-371310
-371513
-371624
-371667
-371768
-371719
-371801
-372022
-372057
-372119
-372197
-372327
-372447
-372581
-372666
-372731
-372805
-373006
-373128
-373226
-373285
-373408
-373535
-373539
-373681
-373682
-373836
-374069
-374061
-374302
-374668
-374594
-374564
-374661
-374831
-374809
-374978
-375149
-375190
-375268
-375364
-375559
-375703
-375747
-375802
-375865
-375955
-376125
-376200
-376308
-376408
-376541
-376599
-376691
-376766
-376772
-376925
-377057
-377073
-377147
-377256
-377433
-377550
-377638
-377680
-377715
-377767
-377936
-378002
-378080
-378067
-378190
-378300
-378324
-378415
-378451
-378560
-378661
-378704
-378816
-378780
-378901
-378984
-378964
-379005
-379038
-379131
-379221
-379270
-379293
-379297
-379457
-379493
-379541
-379542
-379530
-379596
-379730
-379739
-379828
-379834
-379919
-379992
-380041
-379919
-380022
-380439
-380310
-380293
-380226
-380367
-380470
-380512
-380518
-380613
-380606
-380690
-380739
-380777
-380827
-380878
-381041
-381110
-381074
-381121
-381191
-381208
-381333
-381507
-381454
-381503
-381657
-381681
-381736
-381743
-381774
-381903
-382008
-382042
-382104
-382140
-382316
-382392
-382373
-382131
-382317
-382494
-382612
-382605
-382665
-382630
-382788
-382851
-382888
-382950
-382926
-382956
-383020
-382993
-383042
-383032
-383006
-382959
-382840
-382776
-382633
-382593
-382446
-382280
-382086
-381870
-381702
-381455
-381080
-380734
-380355
-379959
-379647
-379142
-378720
-378220
-377836
-377326
-376751
-376178
-375670
-375139
-374689
-374129
-373573
-373066
-372595
-372086
-371545
-371019
-370512
-369992
-369541
-369102
-368640
-368245
-367820
-367449
-366968
-366542
-366164
-365830
-365593
-365265
-365012
-364678
-364514
-364265
-363954
-363661
-363387
-363254
-363083
-362943
-362813
-362605
-362475
-362434
-362223
-362085
-361977
-361905
-361862
-361725
-361682
-361628
-361624
-361584
-361487
-361452
-361377
-361412
-361410
-361363
-361285
-361261
-361441
-361311
-361367
-361361
-361265
-361330
-361370
-361378
-361421
-361406
-361510
-361563
-361532
-361503
-361555
-361682
-361667
-361728
-361801
-361800
-362035
-361993
-362080
-362113
-362187
-362335
-362458
-362614
-362694
-362825
-363053
-363150
-363240
-363388
-363524
-363694
-363953
-364110
-364260
-364422
-364645
-364861
-365007
-365078
-365244
-365427
-365660
-365777
-365895
-365977
-366265
-366469
-366557
-366619
-366710
-366863
-366993
-367050
-367172
-367217
-367325
-367304
-367421
-367418
-367485
-367478
-367639
-367631
-367769
-367689
-367793
-367804
-367774
-367717
-367727
-367786
-367789
-367763
-367758
-367716
-367737
-367690
-367683
-367607
-367602
-367647
-367664
-367550
-367680
-367609
-367659
-367724
-367699
-367666
-367732
-367643
-367819
-367777
-367769
-367761
-367889
-367907
-367902
-367944
-367932
-367971
-367996
-368066
-368049
-368132
-368300
-368328
-368400
-368341
-368470
-368562
-368611
-368726
-368782
-368792
-368943
-368986
-369071
-369107
-369178
-369239
-369384
-369519
-369568
-369708
-369835
-369871
-369924
-369947
-370046
-370220
-370284
-370364
-370470
-370583
-370768
-370888
-370919
-370947
-371033
-371224
-371262
-371361
-371457
-371566
-371707
-371779
-371968
-371939
-372036
-372167
-372367
-372461
-372549
-372645
-372776
-372906
-372978
-372976
-373095
-373120
-373307
-373426
-373507
-373943
-373945
-374010
-374019
-374072
-374161
-374360
-374440
-374587
-374590
-374767
-374891
-375002
-375064
-375078
-375179
-375367
-375496
-375599
-375708
-375771
-375925
-376009
-376046
-376127
-376185
-376282
-376471
-376521
-376577
-376655
-376810
-376901
-376941
-376952
-377106
-377237
-377270
-377181
-377307
-377418
-377586
-377673
-377685
-377763
-377785
-377870
-377994
-378058
-378028
-378088
-378290
-378638
-378348
-378339
-378398
-378520
-378594
-378633
-378691
-378695
-378845
-378961
-378928
-379027
-379150
-379242
-379294
-379290
-379399
-379531
-379565
-379612
-379613
-379677
-379830
-379882
-379964
-379985
-380091
-380224
-380280
-380301
-380317
-380443
-380502
-380608
-380643
-380692
-380744
-380824
-380862
-380901
-380872
-381032
-381030
-381122
-381199
-381197
-381241
-381358
-381371
-381387
-381391
-381484
-381561
-381646
-381603
-381656
-381714
-381858
-381909
-381910
-382102
-381954
-382065
-382098
-382076
-382001
-381972
-382252
-382043
-381841
-381736
-381636
-381512
-381317
-381153
-380892
-380693
-380480
-380171
-379858
-379456
-379035
-378724
-378224
-377816
-377346
-376853
-376462
-375924
-375398
-374817
-374261
-373767
-373277
-372788
-372254
-371691
-371285
-370665
-370165
-369634
-369174
-368723
-368308
-367855
-367397
-367014
-366688
-366264
-365835
-365495
-365151
-364848
-364597
-364329
-364007
-363824
-363647
-363428
-363079
-362843
-362673
-362566
-362458
-362208
-362049
-361846
-361800
-361687
-361610
-361376
-361262
-361152
-361100
-361040
-360902
-360882
-360893
-360851
-360806
-360713
-360712
-360695
-360633
-360678
-360578
-360612
-360677
-360564
-360554
-360558
-360535
-360522
-360549
-360611
-360568
-360656
-360693
-360735
-360721
-360657
-360758
-360767
-360877
-360886
-360874
-360974
-361057
-361095
-361152
-361182
-361247
-361318
-361462
-361613
-361643
-361797
-361988
-362097
-362191
-362292
-362462
-362541
-362768
-362882
-363013
-363207
-363459
-363573
-363774
-363920
-364094
-364343
-364476
-364660
-364831
-364995
-365198
-365362
-365476
-365577
-365726
-365875
-366030
-366141
-366227
-366372
-366631
-366683
-366771
-366794
-366858
-366982
-366997
-367146
-367172
-367187
-367300
-367280
-367323
-367193
-367231
-367220
-367327
-367311
-367226
-367268
-367318
-367355
-367258
-367283
-367226
-367240
-367305
-367260
-367220
-367338
-367281
-367321
-367285
-367338
-367394
-367463
-367486
-367448
-367598
-367704
-367671
-367683
-367714
-367792
-367795
-367817
-367842
-367996
-368055
-368199
-368296
-368228
-368314
-368468
-368466
-368603
-368731
-368796
-368906
-369018
-368970
-369048
-369179
-369303
-369482
-369598
-369710
-369768
-369898
-370043
-370117
-370213
-370248
-370455
-370614
-370649
-370839
-370940
-371090
-371230
-371285
-371383
-371502
-371614
-371804
-371946
-372009
-372168
-372354
-372540
-372594
-372672
-372782
-372880
-373112
-373202
-373339
-373447
-373535
-373707
-373763
-373903
-374001
-374099
-374215
-374330
-374523
-374605
-374632
-374823
-374813
-375039
-375042
-375177
-375304
-375443
-375530
-375514
-375672
-375545
-375754
-375878
-376001
-376146
-376269
-376335
-376339
-376394
-376530
-376709
-376706
-376823
-376878
-376923
-376948
-376936
-377119
-377136
-377117
-377346
-377348
-377434
-377375
-377433
-377539
-377525
-377618
-377639
-377724
-377837
-377807
-377786
-377788
-377874
-377949
-377944
-378016
-378017
-378101
-378150
-378118
-378191
-378149
-378289
-378328
-378322
-378427
-378488
-378520
-378595
-378587
-378721
-378692
-378779
-378915
-379038
-379088
-379183
-379336
-379445
-379422
-379418
-379551
-379613
-379677
-379698
-379833
-379902
-380005
-380071
-380173
-380245
-380328
-380541
-380598
-380832
-380899
-381010
-381045
-381044
-381222
-381212
-381305
-381322
-381608
-381588
-381642
-381737
-381869
-381979
-382036
-382098
-382192
-382154
-382237
-382204
-382344
-382391
-382330
-382380
-382417
-382220
-382093
-381957
-381788
-381624
-381125
-380957
-380750
-380404
-379978
-379668
-379256
-378930
-378477
-378042
-377507
-377074
-376587
-376067
-375572
-375054
-374575
-374097
-373543
-373047
-372564
-372068
-371919
-371204
-370694
-370203
-369799
-369345
-368925
-368541
-368185
-367857
-367486
-367089
-366751
-366408
-366161
-365896
-365630
-365393
-365108
-364894
-364691
-364439
-364231
-364006
-363862
-363694
-363509
-363378
-363236
-363119
-363009
-362903
-362705
-362595
-362492
-362455
-362387
-362271
-362154
-362204
-362149
-361984
-361930
-361806
-361831
-361798
-361797
-361748
-361707
-361688
-361692
-361699
-361670
-361690
-361735
-361687
-361691
-361737
-361719
-361820
-361765
-361819
-361831
-361810
-361914
-361978
-361987
-362109
-362130
-362305
-362381
-362413
-362515
-362562
-362685
-362811
-363015
-363108
-363218
-363426
-363539
-363709
-363871
-363982
-364143
-364342
-364554
-364777
-364976
-365205
-365379
-365566
-365759
-365927
-366119
-366332
-366531
-366731
-366887
-367121
-367359
-367523
-367663
-367771
-367967
-368107
-368212
-368352
-368523
-368913
-368830
-368979
-368973
-369064
-369159
-369256
-369364
-369458
-369539
-369633
-369731
-369787
-369774
-369731
-369834
-369903
-370214
-370005
-369968
-369987
-370002
-369998
-370007
-369895
-370073
-370058
-370028
-369998
-370081
-370171
-370194
-370176
-370197
-370116
-370199
-370277
-370281
-370321
-370303
-370365
-370432
-370718
-370567
-370476
-370510
-370485
-370524
-370572
-370651
-370741
-370810
-370793
-370875
-370883
-370882
-371093
-371098
-371116
-371098
-371252
-371392
-371650
-371779
-372487
-372527
-372772
-372778
-372860
-372974
-373039
-373148
-373298
-373422
-373495
-373526
-373691
-373814
-373811
-374011
-374096
-374185
-374296
-374397
-374552
-374627
-374753
-374922
-375009
-375030
-375185
-375267
-375369
-375463
-375520
-375670
-375768
-375819
-375953
-375966
-376153
-376266
-376357
-376455
-376626
-376816
-376815
-376920
-376966
-377173
-377252
-377334
-377380
-377477
-377560
-377587
-377736
-377806
-377782
-377935
-378067
-378150
-378097
-378265
-378356
-378402
-378516
-378494
-378608
-378750
-378805
-378819
-378840
-378986
-379043
-379067
-379316
-379140
-379190
-379362
-379406
-379359
-379356
-379477
-379506
-379608
-379709
-379663
-379644
-379835
-379896
-380007
-380019
-380155
-380129
-380133
-380222
-380227
-380345
-380419
-380471
-380534
-380570
-380655
-380741
-380763
-381118
-380877
-380944
-381060
-381029
-381131
-381164
-381296
-381351
-381404
-381413
-381442
-381510
-381552
-381577
-381698
-381673
-381875
-381944
-381967
-382043
-382089
-382178
-382195
-382292
-382328
-382468
-382458
-382526
-382541
-382564
-382613
-382719
-382731
-382771
-382785
-382907
-382910
-382955
-382911
-382944
-383037
-383046
-382973
-382955
-382848
-382811
-382752
-382668
-382473
-382235
-382084
-381905
-381658
-381393
-381067
-380753
-380306
-379966
-379550
-379107
-378662
-378235
-378050
-377294
-376705
-376241
-375718
-375200
-374595
-374045
-373488
-373010
-372423
-371951
-371338
-370926
-370463
-369922
-369457
-368987
-368630
-368145
-367709
-367380
-366898
-366612
-366273
-365960
-365584
-365316
-364986
-364760
-364592
-364321
-364052
-363984
-363795
-363573
-363339
-363207
-363096
-362985
-362843
-362831
-362659
-362620
-362566
-362461
-362396
-362379
-362434
-362463
-362369
-362416
-362428
-362422
-362507
-362473
-362469
-362465
-362564
-362557
-362593
-362618
-362588
-362767
-362820
-362782
-362826
-362858
-362999
-363078
-363099
-363178
-363233
-363397
-363492
-363506
-363676
-363640
-363733
-363983
-363996
-364219
-364272
-364494
-364668
-364792
-364866
-364993
-365214
-365414
-365515
-365708
-365896
-366105
-366282
-366471
-366675
-366741
-367018
-367209
-367448
-367600
-367763
-367935
-368142
-368255
-368312
-368519
-368653
-368850
-368927
-369042
-369173
-369347
-369469
-369529
-369554
-369650
-369695
-369830
-369870
-369966
-369902
-369979
-370076
-369975
-369996
-370011
-370001
-370074
-370024
-370059
-370091
-370142
-370112
-370049
-369959
-369980
-370012
-369866
-370002
-369927
-369988
-370035
-370090
-370087
-370195
-369979
-370000
-370013
-369933
-369969
-369939
-370252
-370043
-370068
-369945
-369972
-370075
-370103
-370141
-370181
-370192
-370247
-370310
-370307
-370285
-370395
-370469
-370472
-370590
-370593
-370769
-370752
-370839
-370831
-370992
-370973
-371116
-371199
-371260
-371360
-371478
-371527
-371567
-371740
-371811
-371935
-372004
-372062
-372195
-372368
-372419
-372460
-372538
-372635
-372710
-372817
-372954
-373048
-373100
-373266
-373356
-373386
-373513
-373646
-373879
-373964
-374058
-374036
-374253
-374352
-374438
-374500
-374597
-374795
-374905
-375025
-375127
-375184
-375327
-375481
-375557
-375591
-375659
-376301
-376478
-376519
-376467
-376539
-376666
-376736
-376809
-376951
-376971
-377164
-377243
-377322
-377501
-377552
-377572
-377628
-377774
-377815
-377840
-377880
-377931
-378000
-378123
-378109
-378119
-378113
-378303
-378294
-378345
-378332
-378436
-378526
-378546
-378572
-378585
-378661
-378751
-378790
-378851
-378748
-378834
-378942
-379004
-378959
-379023
-379112
-379159
-379229
-379306
-379421
-379457
-379551
-379630
-379578
-379560
-379596
-379728
-379761
-379813
-379905
-379943
-380040
-380105
-380116
-380122
-380157
-380186
-380265
-380364
-380278
-380417
-380513
-380551
-380567
-380581
-380656
-380801
-380921
-380945
-380922
-380937
-381061
-381092
-381087
-381064
-381172
-381266
-381349
-381399
-381417
-381418
-381529
-381620
-381612
-381513
-381591
-381612
-381644
-381662
-381659
-381627
-381582
-381502
-381371
-381215
-381111
-380926
-380830
-380600
-380297
-380080
-379847
-379529
-379215
-378790
-378442
-378024
-377670
-377180
-376696
-376189
-375751
-375187
-374702
-374136
-373601
-373058
-372699
-372114
-371531
-371058
-370611
-370060
-369610
-369046
-368624
-368201
-367716
-367319
-366949
-366536
-366117
-365830
-365458
-365048
-364746
-364387
-364131
-363876
-363534
-363244
-363146
-362971
-362770
-362454
-362233
-362175
-362015
-361836
-361684
-361595
-361509
-361438
-361283
-361237
-361100
-361074
-360991
-360911
-360847
-360845
-360824
-360788
-360655
-360643
-360609
-360625
-360629
-360620
-360535
-360598
-360652
-360635
-360670
-360583
-360679
-360733
-360747
-360740
-360771
-360829
-360847
-360951
-360845
-360901
-361045
-361070
-361168
-361184
-361252
-361415
-361470
-361484
-361552
-361669
-361838
-361921
-362112
-362159
-362298
-362556
-362732
-362869
-362937
-363184
-363373
-363534
-363731
-363808
-364024
-364242
-364416
-364609
-364746
-364928
-365200
-365316
-365464
-365664
-365837
-365954
-366111
-366289
-366333
-366437
-366522
-366697
-366831
-366885
-366968
-367137
-367161
-367257
-367259
-367265
-367324
-367414
-367475
-367377
-367476
-367505
-367519
-367440
-367393
-367427
-367386
-367435
-367473
-367468
-367448
-367444
-367492
-367454
-367329
-367331
-367369
-367416
-367409
-367379
-367435
-367479
-367467
-367382
-367311
-367387
-367385
-367428
-367463
-367492
-367451
-367552
-367647
-367606
-367575
-367646
-367743
-367797
-367784
-367790
-367825
-367952
-367980
-367989
-368035
-368029
-368160
-368234
-368278
-368341
-368488
-368638
-368677
-368576
-368637
-368757
-368838
-368994
-369065
-369078
-369177
-369347
-369447
-369511
-369583
-369686
-369807
-369849
-369963
-370042
-370131
-370299
-370398
-370550
-370581
-370722
-370795
-370962
-371101
-371152
-371285
-371403
-371486
-371634
-371665
-371763
-371896
-372071
-372152
-372237
-372326
-372531
-372614
-372734
-372790
-372835
-373014
-373131
-373230
-373272
-373385
-373508
-373605
-373690
-373727
-373837
-373988
-374063
-374207
-374243
-374273
-374474
-374526
-374627
-374678
-374797
-374899
-375011
-375061
-375142
-375245
-375421
-375487
-375503
-375565
-375697
-375773
-375879
-375966
-375960
-376014
-376152
-376174
-376326
-376280
-376365
-376480
-376532
-376559
-376550
-376660
-376788
-376876
-376907
-376947
-376982
-376975
-377087
-377167
-377175
-377226
-377396
-377457
-377461
-377442
-377463
-377611
-377649
-377665
-377741
-377805
-377917
-377980
-378053
-378050
-378102
-378233
-378222
-378314
-378375
-378481
-378584
-378619
-378707
-378737
-378838
-378938
-379028
-379060
-379105
-379171
-379312
-379398
-379478
-379513
-379600
-379640
-379689
-379797
-379835
-379966
-380145
-380158
-380220
-380289
-380367
-380479
-380449
-380569
-380636
-380767
-380913
-380959
-381009
-380988
-381032
-381153
-381203
-381271
-381308
-381386
-381528
-381551
-381519
-381494
-381459
-381478
-381454
-381437
-381221
-381146
-381119
-380942
-380757
-380448
-380265
-379985
-379728
-379449
-379081
-378737
-378337
-377922
-377538
-377032
-376504
-376019
-375587
-375025
-374514
-374030
-373492
-372930
-372399
-371728
-371291
-370730
-370286
-369727
-369207
-368716
-368303
-367827
-367359
-366862
-366504
-366062
-365744
-365339
-364893
-364584
-364311
-363988
-363616
-363268
-362985
-362695
-362502
-362351
-362109
-361912
-361791
-361629
-361447
-361196
-361021
-360977
-360809
-360762
-360626
-360498
-360538
-360412
-360298
-360178
-360177
-360038
-360066
-360018
-359922
-360053
-359972
-359877
-359866
-359992
-359909
-359891
-359930
-359995
-360027
-359952
-359989
-360084
-360126
-360093
-360116
-360268
-360278
-360331
-360466
-360682
-360782
-360935
-361044
-361105
-361167
-361283
-361425
-361572
-361728
-361828
-362054
-362208
-362371
-362498
-362626
-362817
-363050
-363284
-363461
-363588
-363809
-363949
-364179
-364406
-364532
-364630
-364850
-365086
-365270
-365351
-365504
-365652
-365785
-365926
-365984
-366082
-366237
-366348
-366452
-366474
-366558
-366670
-366756
-366772
-366775
-366860
-366899
-366936
-366989
-366922
-366981
-367146
-367011
-367059
-367185
-367096
-367056
-367174
-367260
-367198
-367195
-367107
-367409
-367471
-367613
-367650
-367987
-368015
-368212
-368242
-368265
-368393
-368430
-368564
-368610
-368728
-368742
-368816
-368984
-369162
-369283
-369876
-370339
-370836
-371185
-371928
-373256
-373396
-373498
-373671
-373760
-373881
-373922
-374079
-374208
-374320
-374449
-374540
-374618
-374804
-374945
-375004
-375086
-375156
-375303
-375437
-375554
-375633
-375726
-375961
-376018
-376084
-376110
-376213
-376297
-376377
-376545
-376576
-376680
-376817
-376890
-376922
-376999
-377098
-377174
-377230
-377340
-377397
-377513
-377621
-377656
-377709
-377731
-377772
-377875
-377930
-378016
-377975
-378145
-378260
-378296
-378339
-378324
-378402
-378526
-378584
-378558
-378700
-378778
-378823
-378963
-379266
-379285
-379677
-379650
-379808
-379877
-379941
-380043
-380082
-380230
-380366
-380473
-380557
-380611
-380691
-380795
-380903
-380977
-380983
-381043
-381093
-381203
-381509
-381605
-381632
-381710
-381807
-382058
-382052
-382075
-382124
-382321
-382354
-382389
-382391
-382576
-382793
-382817
-382836
-382810
-382752
-382723
-382721
-382714
-382600
-382580
-382488
-382333
-382214
-381987
-381641
-381484
-381233
-380959
-380556
-379911
-379428
-379082
-378511
-378026
-377553
-377170
-375941
-374885
-373091
-372502
-371912
-371350
-370825
-370239
-369736
-369212
-368690
-368147
-367158
-366725
-366243
-365827
-365361
-364902
-364542
-364186
-363739
-363359
-363086
-362723
-362407
-362129
-361757
-361544
-360876
-360565
-360364
-360221
-359984
-359908
-359666
-359517
-359502
-359326
-359438
-359086
-358952
-358832
-358748
-358725
-358627
-358523
-358581
-358522
-358494
-358376
-358346
-358352
-358397
-358423
-358349
-358355
-358454
-358445
-358492
-358485
-358600
-358582
-358611
-358689
-358714
-358662
-359050
-358935
-358997
-358882
-359016
-359159
-359205
-359303
-359375
-359473
-359570
-359718
-359868
-359891
-360023
-360200
-360338
-360460
-360593
-360821
-360977
-361079
-361255
-361306
-361564
-361760
-361918
-362159
-362228
-362430
-362666
-362830
-362885
-363005
-363526
-363798
-363829
-363964
-364075
-364167
-364153
-364272
-364361
-364393
-364513
-364554
-364655
-364679
-364659
-364608
-364613
-364661
-364672
-364917
-364623
-364654
-364612
-364632
-364584
-364563
-364565
-364526
-364546
-364579
-364491
-364486
-364545
-364537
-364493
-364542
-364535
-364587
-364547
-364663
-364625
-364711
-364858
-364805
-364802
-364775
-364821
-364871
-364953
-365044
-365090
-365165
-365248
-365243
-365347
-365376
-365442
-365486
-365587
-365675
-365762
-366087
-366120
-366282
-366459
-366622
-366701
-367140
-367121
-367322
-367488
-367591
-367785
-367941
-367927
-368028
-368095
-368227
-368401
-368456
-368515
-368563
-368713
-368898
-368989
-369125
-369168
-369312
-369340
-369485
-369609
-369691
-369866
-370008
-370098
-370164
-370192
-370375
-370470
-370599
-370757
-370795
-370917
-371084
-371241
-371315
-371329
-371423
-371636
-371726
-371867
-371939
-372019
-372206
-372307
-372364
-372477
-372515
-372653
-372772
-372871
-372955
-373076
-373217
-373263
-373338
-373328
-373527
-373553
-373608
-373769
-373746
-373837
-373897
-374019
-374030
-374015
-374158
-374171
-374258
-374277
-374306
-374394
-374490
-374548
-374574
-374649
-374678
-374773
-374815
-374858
-374787
-374970
-375046
-375069
-375155
-375170
-375230
-375318
-375372
-375439
-375403
-375565
-375741
-375725
-375837
-375818
-375894
-375992
-376074
-376134
-376176
-376301
-376437
-376464
-376507
-376627
-376655
-376819
-376843
-376973
-376962
-377085
-377254
-377256
-377347
-377373
-377525
-377585
-377862
-377819
-377744
-377925
-377992
-378051
-378153
-378173
-378146
-378326
-378366
-378439
-378523
-378679
-378737
-378761
-378874
-378828
-378904
-379029
-379053
-379118
-379156
-379252
-379253
-379284
-379373
-379365
-379464
-379567
-379613
-379617
-379578
-379510
-379480
-379329
-379130
-379107
-378994
-378746
-378552
-378299
-378039
-377863
-377484
-377089
-376659
-376341
-375946
-374468
-374036
-373583
-373054
-372550
-371973
-371435
-370958
-370433
-369886
-369359
-368895
-368436
-367846
-367385
-366806
-366370
-365919
-365555
-365066
-364739
-364349
-364011
-363613
-363238
-362863
-362556
-362284
-361976
-361788
-361490
-361265
-361167
-360895
-360702
-360416
-360255
-360166
-360070
-359931
-359844
-359649
-359615
-359495
-359465
-359305
-359339
-359282
-359434
-359245
-359117
-359094
-359087
-359103
-358945
-358921
-358944
-358957
-358987
-359026
-359010
-359004
-359088
-359076
-359054
-359056
-359035
-359064
-359140
-359134
-359236
-359296
-359387
-359413
-359479
-359426
-359535
-359586
-359696
-359798
-359745
-359861
-360019
-360109
-360211
-360370
-360460
-360743
-360871
-361025
-361262
-361326
-361446
-361616
-361783
-361907
-362180
-362351
-362518
-362697
-362903
-362999
-363199
-363328
-363620
-363792
-363915
-363969
-364183
-364345
-364577
-364708
-364817
-364839
-364961
-365183
-365224
-365250
-365362
-365521
-365656
-365689
-365708
-365838
-365941
-366019
-365999
-365869
-365973
-366136
-366127
-366122
-366233
-366251
-366170
-366242
-366292
-366342
-366263
-366376
-366353
-366397
-366388
-366446
-366476
-366566
-366907
-366975
-367000
-367247
-367281
-367433
-367455
-367465
-367615
-367756
-367863
-367938
-368009
-368085
-368182
-368170
-368555
-368450
-368428
-368532
-368776
-368824
-369114
-369202
-369295
-369380
-369463
-369607
-369591
-369687
-369733
-369856
-370013
-370074
-370123
-370162
-370326
-370369
-370465
-370563
-370560
-370673
-370797
-370889
-370882
-370899
-371147
-371258
-371282
-371348
-371399
-371497
-371619
-371700
-371872
-371785
-371994
-372110
-372153
-372189
-372256
-372431
-372556
-372664
-372711
-372730
-372830
-373027
-373068
-373208
-373247
-373304
-373444
-373527
-373625
-373763
-373877
-373935
-373956
-374133
-374172
-374669
-374952
-375326
-375580
-376446
-376828
-376802
-376941
-377020
-377264
-377428
-377709
-377808
-377829
-377846
-377922
-378067
-378068
-378201
-378226
-378292
-378405
-378453
-378549
-378542
-378654
-378790
-378799
-378933
-378973
-379069
-379162
-379164
-379308
-379284
-379377
-379648
-379601
-379779
-379795
-380130
-380213
-380174
-380363
-380381
-380434
-380449
-380584
-380520
-380603
-380547
-380569
-380542
-369432
-368823
-367455
-359236
-359292
-359361
-359363
-359423
-359512
-359495
-359596
-359594
-359617
-359731
-359765
-359913
-359934
-360037
-360224
-360251
-360404
-360451
-360671
-360831
-360986
-361093
-361232
-361429
-361630
-361844
-361946
-362091
-362354
-362558
-362714
-362891
-363023
-363212
-363444
-363525
-363776
-363914
-364092
-364314
-364487
-364656
-364736
-364960
-365186
-365275
-365384
-365451
-365615
-365815
-365880
-366044
-366086
-366171
-366387
-366464
-366445
-366448
-366597
-366630
-366565
-366634
-366703
-366880
-366964
-366900
-366862
-366806
-366888
-366967
-367018
-366993
-366990
-367105
-367193
-367159
-367209
-367104
-367168
-367196
-367226
-367274
-367231
-367255
-367285
-367323
-367313
-367232
-367292
-367334
-367348
-367440
-367403
-367501
-367512
-367597
-367505
-367516
-367634
-367638
-367694
-367633
-367805
-367897
-367965
-367997
-368025
-368131
-368255
-368236
-368354
-368398
-368493
-368602
-368680
-368735
-368778
-368840
-368959
-369075
-369136
-369181
-369298
-369479
-369551
-369543
-369570
-369639
-369791
-369976
-370047
-370094
-370211
-370373
-370393
-370530
-370503
-370748
-370882
-371017
-371123
-371190
-371317
-371397
-371520
-371648
-371719
-371822
-371976
-372123
-372280
-372709
-372819
-372908
-373007
-373186
-373239
-373393
-373525
-373673
-373840
-373954
-373956
-374095
-374214
-374354
-374527
-374648
-374712
-374866
-375006
-375224
-375206
-375292
-375394
-375530
-375594
-375590
-375784
-375832
-375909
-375858
-375888
-376037
-376134
-376183
-376140
-376269
-376367
-376330
-376381
-376430
-376464
-376520
-376505
-376542
-376532
-376639
-376668
-376669
-376792
-376787
-376840
-376768
-376860
-376881
-376874
-376997
-377056
-377088
-377074
-377062
-377059
-377213
-377183
-377224
-377175
-377298
-377434
-377408
-377345
-377429
-377456
-377517
-377580
-377578
-377593
-377650
-377679
-377682
-377705
-377755
-377773
-377787
-377837
-378075
-377962
-377932
-377976
-377941
-377993
-378112
-378102
-378163
-378089
-378231
-378259
-378284
-378294
-378311
-378306
-378458
-378491
-378566
-378587
-378671
-378700
-378706
-378647
-378652
-378646
-378546
-378561
-378540
-378504
-378423
-378266
-378089
-377792
-377544
-377306
-377041
-376676
-376349
-375995
-375567
-375190
-374673
-374198
-373719
-373211
-372675
-372071
-371579
-371129
-370488
-369969
-369287
-368720
-368206
-367660
-367075
-366562
-366039
-365562
-365031
-364541
-363978
-363469
-363033
-359055
-358151
-357676
-357450
-357140
-356888
-356693
-356469
-356302
-356154
-355932
-355829
-355766
-355693
-355557
-355338
-355295
-355199
-355125
-355038
-354981
-355009
-355029
-354993
-354938
-354905
-354907
-354948
-354958
-354957
-354918
-354964
-355104
-355073
-355071
-355079
-355144
-355140
-355160
-355237
-355290
-355411
-355503
-355519
-355673
-355640
-355855
-355968
-356024
-356200
-356274
-356424
-356634
-356675
-356794
-356906
-357517
-358009
-358191
-358331
-358517
-358602
-358888
-359077
-359427
-359561
-359809
-360168
-360851
-360985
-361250
-361660
-361815
-361958
-362047
-362238
-362250
-362408
-362463
-362551
-362553
-362597
-362654
-362650
-362636
-362704
-362663
-362641
-362609
-362686
-362620
-362650
-362698
-362623
-362677
-362694
-362617
-362632
-362574
-362522
-362495
-362583
-362614
-362549
-362572
-362564
-362583
-362538
-362497
-362455
-362503
-362501
-362562
-362530
-362579
-362636
-362630
-362626
-362849
-362660
-362688
-362738
-362791
-362881
-362887
-362939
-362949
-363036
-363005
-363042
-363231
-363402
-363516
-363545
-363631
-363759
-363740
-363871
-363932
-363990
-364081
-364138
-364293
-364395
-364493
-364559
-364628
-364814
-364912
-365022
-365160
-365219
-365385
-365561
-365659
-365774
-365808
-365965
-366103
-366320
-366432
-366515
-366652
-366834
-366929
-366960
-367108
-367251
-367396
-367549
-367715
-367778
-367942
-368170
-368239
-368421
-368431
-368667
-368750
-368874
-368919
-369080
-369188
-369260
-369359
-369507
-369527
-369717
-369830
-369996
-370068
-370076
-370202
-370399
-370417
-370537
-370551
-370674
-370689
-370759
-370864
-370843
-370981
-371130
-371158
-371194
-371215
-371276
-371375
-371455
-371493
-371543
-371628
-371744
-371772
-371831
-371830
-371875
-371972
-372033
-372066
-372067
-372162
-372270
-372321
-372363
-372298
-372321
-372419
-372474
-372526
-372487
-372581
-372722
-372806
-372876
-372872
-372964
-373040
-373066
-373127
-373141
-373293
-373359
-373405
-373432
-373444
-373620
-373706
-373754
-373796
-373899
-374028
-374120
-374174
-374253
-374266
-374327
-374491
-374529
-374643
-374631
-374763
-374872
-374868
-374987
-374971
-375042
-375160
-375286
-375326
-375434
-375541
-375563
-375682
-375719
-375751
-375827
-375779
-375757
-375837
-375832
-375916
-375945
-375882
-375968
-375899
-375917
-375952
-375872
-375639
-375542
-375309
-375134
-374860
-374539
-374351
-373397
-371622
-371094
-370667
-370078
-369611
-369047
-368451
-367977
-367449
-366805
-366299
-365693
-365104
-364564
-364066
-363534
-363009
-362498
-362074
-361496
-361094
-360600
-360159
-359765
-359325
-358640
-358269
-357956
-357563
-357251
-356986
-356694
-356450
-356233
-355995
-355809
-355614
-355502
-355281
-355078
-354926
-354782
-354703
-354569
-354471
-354349
-354331
-354288
-354193
-354154
-354042
-354000
-354014
-354002
-353937
-353837
-353905
-353914
-353853
-353725
-353779
-353944
-353844
-353866
-353863
-353876
-353983
-354008
-353934
-354005
-353927
-353991
-354086
-354108
-354150
-354168
-354241
-354349
-354409
-354435
-354425
-354558
-354581
-354588
-354770
-354797
-354869
-355032
-355112
-355164
-355266
-355333
-355531
-355568
-355694
-355827
-355967
-356186
-356322
-356492
-356587
-356785
-357028
-357097
-357369
-357486
-357685
-357904
-358017
-358262
-358287
-358519
-358673
-358890
-359007
-359126
-359244
-359444
-359524
-359594
-359668
-359836
-359891
-359981
-360060
-360062
-360129
-360270
-360266
-360327
-360329
-360402
-360442
-360424
-360388
-360333
-360412
-360484
-360455
-360477
-360401
-360454
-360442
-360485
-360443
-360424
-360475
-360576
-360483
-360509
-360430
-360412
-360505
-360443
-360457
-360422
-360535
-360612
-360564
-360603
-360594
-360645
-360675
-360709
-360847
-360806
-360906
-360984
-361002
-361095
-361131
-361226
-361313
-361429
-361482
-361620
-361658
-361796
-361915
-361976
-362241
-362402
-362442
-362657
-362838
-363034
-363273
-363363
-363468
-363574
-363733
-363836
-363962
-364018
-364103
-364192
-364394
-364587
-364671
-364915
-365090
-365050
-365064
-365160
-365471
-366881
-367223
-367243
-367295
-367402
-367563
-367717
-367785
-367793
-368089
-368187
-368403
-368431
-368488
-368841
-370800
-370983
-371071
-371036
-371238
-371353
-371401
-371438
-371578
-371717
-371830
-371851
-371932
-372004
-372240
-372241
-372442
-372585
-372651
-372659
-372753
-372842
-372891
-372933
-373045
-373046
-373169
-373223
-373336
-373388
-373338
-373404
-373519
-373434
-373563
-373685
-373699
-373811
-373802
-373884
-373800
-373890
-374013
-374062
-374003
-373987
-373994
-373996
-374018
-373948
-373896
-373789
-373918
-373696
-373446
-373317
-373101
-372983
-372622
-372331
-371971
-371713
-371312
-370919
-370546
-370031
-369616
-369157
-368574
-368082
-367476
-366906
-366430
-365885
-365342
-364723
-364225
-363742
-363175
-362652
-362094
-361589
-361107
-360567
-360041
-359521
-359155
-358850
-358350
-357992
-357495
-357098
-356766
-356475
-355826
-355638
-355395
-355024
-354808
-354894
-354531
-354287
-354042
-353904
-353685
-353608
-353489
-353350
-353256
-353109
-352990
-352892
-352772
-352742
-352649
-352611
-352665
-352415
-352482
-352411
-352395
-352336
-352402
-352375
-352340
-352346
-352411
-352325
-352324
-352274
-352319
-352366
-352357
-352368
-352448
-352520
-352466
-352481
-352497
-352526
-352567
-352529
-352557
-352607
-352662
-352747
-352827
-352784
-352818
-352932
-352968
-353002
-353131
-353145
-353271
-353417
-353513
-353567
-353601
-353814
-353930
-354108
-354226
-354283
-354543
-354740
-354884
-355096
-355205
-355409
-355595
-355728
-355920
-356077
-356270
-356557
-356670
-356796
-356936
-357097
-357259
-357342
-357668
-357829
-358015
-358101
-358273
-358201
-358383
-358496
-358536
-358614
-358801
-358887
-358928
-358958
-358981
-359025
-359038
-359126
-359170
-359139
-359196
-359307
-359275
-359317
-359260
-359337
-359434
-359422
-359426
-359504
-359546
-359579
-359578
-359640
-359632
-359720
-359818
-359857
-359876
-359821
-359912
-360033
-359989
-360101
-360065
-360143
-360189
-360302
-360406
-360354
-360440
-360623
-360680
-360712
-360682
-360817
-360958
-361027
-361044
-361084
-361188
-361270
-361291
-361367
-361342
-361405
-361500
-361593
-361682
-361756
-361857
-361984
-361987
-362105
-362121
-362199
-362333
-362475
-362532
-362638
-362721
-362899
-362946
-363029
-363052
-363109
-363239
-363321
-363516
-363557
-363655
-363784
-363899
-363961
-364043
-364084
-364233
-364322
-364435
-364497
-364628
-364742
-364823
-364949
-364958
-365075
-365167
-365281
-365449
-365490
-365605
-365815
-365931
-366009
-366027
-366139
-366280
-366354
-366521
-366646
-366797
-366905
-367005
-367000
-367074
-367194
-367280
-367420
-367494
-367605
-367693
-367843
-367960
-368017
-368041
-368195
-368302
-368335
-368409
-368510
-368653
-368751
-368879
-368973
-369000
-369122
-369199
-369288
-369310
-369417
-369528
-369629
-369732
-369807
-369812
-369976
-370042
-370096
-370151
-370215
-370364
-370457
-370487
-370604
-370539
-370668
-370723
-370764
-370809
-370928
-370960
-371054
-371148
-371201
-371173
-371276
-371408
-371499
-371509
-371585
-371652
-371804
-371768
-371844
-371838
-371907
-372082
-372047
-372179
-372227
-372229
-372331
-372407
-372394
-372419
-372458
-372635
-372687
-372696
-372724
-372771
-372866
-372860
-372971
-372993
-372990
-373095
-373043
-373201
-373245
-373304
-373379
-373663
-373505
-373465
-373529
-373562
-373579
-373670
-373725
-373710
-373743
-373699
-373674
-373649
-373657
-373648
-373533
-373517
-373392
-373262
-373220
-372935
-372699
-372601
-372208
-371992
-371657
-371365
-370919
-370633
-370193
-369822
-369376
-368842
-368360
-367875
-367461
-366926
-366337
-365893
-365470
-364909
-364361
-363776
-363336
-362856
-362395
-361936
-361343
-360940
-360567
-360060
-359544
-359091
-358780
-358425
-358001
-357585
-357223
-356942
-356677
-356327
-356122
-355738
-355521
-355260
-355063
-354823
-354652
-354488
-354358
-354129
-354012
-353847
-353662
-353594
-353477
-353469
-353236
-353145
-353197
-353068
-352962
-352900
-352810
-352809
-352780
-352733
-352692
-352772
-352731
-352655
-352712
-352733
-352691
-352769
-352719
-352778
-352754
-352831
-352796
-352880
-353049
-353087
-353188
-353281
-353393
-353383
-353454
-353517
-353686
-353732
-353819
-353913
-353996
-354089
-354243
-354338
-354412
-354634
-354785
-354938
-355121
-355216
-355405
-355585
-355798
-356036
-356163
-356430
-356678
-356800
-357004
-357047
-357353
-357621
-357762
-357965
-358128
-358455
-358673
-358805
-358955
-359097
-359275
-359521
-359672
-359806
-359925
-360023
-360229
-360337
-360434
-360472
-360646
-360601
-360759
-360848
-360871
-360993
-361014
-361077
-361108
-361080
-361138
-361131
-361158
-361107
-361152
-361163
-361172
-361100
-361062
-361015
-360948
-360985
-360958
-361002
-360916
-360908
-360902
-360811
-360805
-360690
-360645
-360601
-360612
-360589
-360509
-360504
-360531
-360459
-360413
-360263
-360298
-360270
-360211
-360235
-360153
-360175
-360164
-360122
-360066
-359937
-359999
-360026
-360015
-360021
-359976
-359936
-359933
-359921
-359935
-359874
-359909
-359889
-359893
-359968
-359826
-359890
-359936
-359979
-359941
-359933
-359993
-359976
-359924
-360015
-359967
-360073
-360035
-360046
-360075
-360056
-360059
-360098
-360129
-360203
-360192
-360268
-360278
-360312
-360331
-360223
-360272
-360289
-360383
-360464
-360515
-360500
-360615
-360668
-360744
-360660
-360730
-360766
-360826
-360940
-360976
-361112
-361260
-361302
-361285
-361374
-361471
-361547
-361657
-361611
-361663
-361778
-361950
-361984
-361958
-362015
-362114
-362212
-362276
-362391
-362358
-362435
-362564
-362604
-362703
-362667
-362743
-362821
-362893
-363009
-363007
-363173
-363255
-363291
-363358
-363432
-363458
-363589
-363521
-363639
-363640
-363694
-363799
-363821
-363823
-363844
-363964
-364003
-363989
-364099
-364081
-364192
-364346
-364404
-364421
-364460
-364621
-364705
-364800
-364842
-364830
-365019
-365124
-365214
-365297
-365266
-365365
-365467
-365617
-365730
-365726
-365862
-366012
-366119
-366156
-366223
-366352
-366426
-366543
-366688
-366669
-366794
-366926
-366993
-367076
-367041
-367120
-367199
-367274
-367395
-367430
-367489
-367619
-367646
-367763
-367738
-367774
-367811
-367879
-367911
-367888
-367998
-368064
-368113
-368167
-368142
-368141
-368204
-368166
-368198
-368165
-368181
-368135
-368099
-368058
-367980
-367874
-367728
-367528
-367298
-367090
-366823
-366616
-366224
-365838
-365461
-365108
-364687
-364217
-363699
-363187
-362675
-362188
-361650
-361080
-360424
-359891
-357095
-349366
-348747
-348245
-348038
-347960
-347704
-347542
-347400
-347252
-347188
-347207
-347147
-347026
-346848
-346804
-346733
-346680
-346545
-346466
-346488
-346307
-346276
-346179
-346195
-346182
-346062
-345961
-345831
-345806
-345743
-345652
-345624
-345501
-345462
-345384
-345323
-345261
-345140
-345130
-345047
-345030
-345064
-344936
-344971
-345004
-344946
-344877
-344905
-344981
-344952
-345018
-345042
-345043
-345116
-345194
-345286
-345375
-345364
-345492
-345648
-345841
-345967
-346004
-346200
-346337
-346525
-346616
-346725
-346934
-347057
-347226
-347393
-347505
-347676
-347828
-347901
-347958
-348104
-348220
-348352
-348428
-348564
-348618
-348747
-348862
-348904
-348867
-349027
-349081
-349194
-349233
-349304
-349348
-349380
-349535
-349405
-349494
-349518
-349597
-349479
-349631
-349645
-349682
-349762
-349750
-349765
-349811
-349792
-349782
-349796
-349802
-349855
-349786
-349820
-349924
-349832
-349904
-350022
-350088
-350213
-350228
-350340
-350402
-350458
-350444
-350489
-350659
-350717
-350726
-350817
-350948
-350997
-351107
-351187
-351235
-351376
-351523
-351630
-351688
-351764
-351916
-352070
-352162
-352262
-352367
-352528
-352703
-352795
-352903
-352983
-353139
-353262
-353460
-353571
-353641
-353799
-353996
-354075
-354193
-354338
-354449
-354735
-354758
-354943
-354912
-355092
-355260
-355397
-355429
-355571
-355727
-355832
-355949
-356135
-356171
-356381
-356530
-356620
-356770
-356805
-356944
-357079
-357235
-357309
-357342
-357473
-357591
-357891
-357912
-358094
-358155
-358207
-358331
-358397
-358748
-358877
-358927
-359039
-359112
-359282
-359327
-359395
-359385
-359554
-359649
-359645
-359705
-359745
-359857
-359959
-360026
-360061
-360134
-360314
-360316
-360295
-360391
-360458
-360390
-360549
-360578
-360692
-360671
-360725
-360738
-360766
-360900
-360835
-360890
-360947
-360966
-361066
-361030
-361025
-361027
-361110
-361170
-361166
-361288
-361211
-361260
-361347
-361384
-361391
-361319
-361455
-361507
-361610
-361568
-361571
-361687
-361663
-361685
-361694
-361722
-361760
-361817
-361850
-361926
-361942
-362006
-361977
-362154
-362216
-362186
-362290
-362367
-362395
-362479
-362478
-362551
-362699
-362714
-362734
-362807
-362791
-362930
-362923
-362993
-363025
-363044
-363155
-363213
-363277
-363278
-363284
-363432
-363423
-363483
-363461
-363502
-363540
-363474
-363407
-363394
-363341
-363254
-363128
-362991
-362837
-362700
-362531
-362233
-361967
-361635
-361305
-360915
-360583
-360165
-359760
-359334
-358887
-358363
-357859
-357341
-356838
-356299
-355777
-355194
-354688
-354185
-353718
-353164
-352712
-352139
-351634
-351168
-350728
-350255
-349793
-349410
-349039
-348509
-348214
-347832
-347495
-347195
-346788
-346532
-346200
-345928
-345749
-345780
-345316
-345043
-344867
-344608
-344513
-344316
-344142
-344054
-343929
-343782
-343678
-343539
-343429
-343384
-343259
-343166
-343136
-343063
-343133
-343084
-343016
-342920
-342954
-342867
-342809
-342823
-342790
-342848
-342994
-342877
-342943
-342931
-342951
-342985
-342983
-343007
-343002
-343135
-343213
-343239
-343259
-343332
-343411
-343502
-343633
-343718
-343663
-343823
-344040
-344118
-344170
-344299
-344675
-344685
-344723
-344873
-345004
-345168
-345312
-345476
-345703
-345884
-346040
-346267
-346497
-346736
-346856
-347197
-347478
-347661
-347887
-348024
-348252
-348494
-348724
-348946
-349143
-349339
-349588
-349770
-350006
-350182
-350345
-350600
-350755
-350935
-351005
-351216
-351399
-351483
-351573
-351643
-351804
-351840
-352133
-352057
-352118
-352138
-352268
-352302
-352366
-352303
-352374
-352436
-352482
-352541
-352499
-352530
-352626
-352621
-352605
-352597
-352591
-352615
-352638
-352594
-352692
-352615
-352699
-352659
-352702
-352668
-352764
-352882
-352798
-352828
-352826
-352838
-352922
-352939
-352998
-352973
-352989
-353062
-353085
-353258
-353213
-353267
-353443
-353444
-353469
-353593
-353627
-353691
-353759
-353820
-353940
-354057
-354234
-354268
-354376
-354377
-354676
-354720
-354834
-354925
-355048
-355208
-355320
-355405
-355502
-355633
-355747
-355856
-355997
-356151
-356253
-356445
-356504
-356649
-356704
-356854
-356957
-357081
-357214
-357277
-357428
-357672
-357678
-357875
-357967
-357990
-358197
-358308
-358418
-358519
-358688
-358815
-358868
-359002
-359076
-359187
-359353
-359458
-359590
-359715
-359806
-360006
-360139
-360303
-360372
-360464
-360769
-360889
-360952
-361154
-361311
-361356
-361471
-361535
-361714
-361904
-362073
-362062
-362198
-362318
-362471
-362510
-362619
-362695
-362806
-362943
-362977
-363070
-363215
-363261
-363353
-363373
-363443
-363490
-363546
-363688
-363732
-363861
-363956
-364002
-364020
-364019
-364060
-364194
-364237
-364276
-364252
-364323
-364395
-364396
-364430
-364433
-364487
-364536
-364564
-364541
-364552
-364592
-364646
-364601
-364661
-364632
-364613
-364663
-364705
-364685
-364718
-364741
-364689
-364766
-364752
-364684
-364694
-364616
-364576
-364647
-364559
-364459
-364397
-364285
-364257
-364281
-364159
-364133
-363901
-363825
-363406
-363144
-363004
-362943
-362701
-362550
-362216
-362110
-361571
-361436
-361105
-360879
-360517
-360280
-359920
-359526
-359097
-358606
-358198
-357282
-355343
-354815
-354325
-353708
-352705
-352227
-351704
-351234
-350729
-350345
-349795
-347455
-343214
-343206
-343150
-343109
-343173
-343136
-343174
-343124
-343080
-343123
-343147
-343150
-343188
-343166
-343221
-343259
-343277
-343272
-343252
-343273
-343284
-343340
-343373
-343401
-343536
-343596
-343592
-343509
-343638
-343750
-343763
-343828
-343962
-344181
-344165
-344292
-344361
-344411
-344578
-344696
-344878
-344963
-345135
-345355
-345445
-345662
-345786
-345996
-346170
-346323
-346545
-346626
-346798
-347091
-347143
-347310
-347389
-347637
-347792
-347932
-348054
-348148
-348282
-348478
-348594
-348714
-348781
-348899
-348998
-349110
-349239
-349300
-349323
-349333
-349494
-349518
-349529
-349560
-349520
-349623
-349599
-349517
-349557
-349552
-349566
-349528
-349544
-349640
-349641
-349620
-349565
-349582
-349659
-349648
-349678
-349687
-349646
-349708
-349837
-349781
-349867
-349858
-349940
-350035
-350065
-350072
-350170
-350281
-350307
-350357
-350332
-350461
-350576
-350608
-350690
-350688
-350868
-350993
-350984
-351159
-351078
-351217
-351322
-351440
-351587
-351580
-351757
-351907
-351953
-352097
-352105
-352171
-352316
-352389
-353031
-353070
-353172
-353317
-353392
-353600
-353696
-353749
-353838
-353900
-353996
-354178
-354311
-354349
-354412
-354585
-354684
-354755
-354913
-354952
-355063
-355174
-355234
-355326
-355375
-355558
-355680
-355758
-355806
-355912
-356063
-356106
-356186
-356320
-356328
-356447
-356565
-356683
-356757
-356765
-356952
-357025
-357118
-357212
-357273
-357385
-357496
-357567
-357658
-357606
-357701
-357877
-357951
-358058
-358057
-358155
-358295
-358376
-358385
-358393
-358532
-358643
-358734
-358803
-358787
-359123
-359097
-359120
-359186
-359156
-359268
-359346
-359392
-359459
-359511
-359553
-359656
-359700
-359764
-359735
-359840
-359913
-360183
-360098
-360019
-360196
-360325
-360140
-360348
-360329
-360667
-360526
-360616
-360737
-360757
-360798
-360890
-360955
-360952
-360972
-361036
-361132
-361217
-361316
-361397
-361477
-361496
-361446
-361642
-361683
-361744
-361773
-361848
-361965
-361859
-361984
-362114
-362083
-362199
-362176
-362326
-362415
-362483
-362480
-362599
-362683
-362826
-362881
-362912
-363024
-363145
-363204
-363294
-363357
-363328
-363423
-363502
-363574
-363656
-363636
-363659
-363663
-363653
-363709
-363536
-363589
-363517
-363460
-363312
-363067
-362920
-362800
-362553
-362308
-362034
-361677
-361395
-361002
-360540
-360090
-359678
-359326
-358794
-358330
-357814
-357267
-356774
-356321
-355807
-355162
-354627
-354223
-353703
-353281
-352698
-352289
-351840
-351369
-350914
-350401
-349948
-349552
-349186
-348838
-348459
-348162
-347986
-347648
-347294
-346958
-346713
-346451
-346201
-346017
-345788
-345670
-345547
-345297
-345199
-344988
-344776
-344771
-344630
-344550
-344370
-344351
-344324
-344156
-344148
-344015
-344066
-343988
-343915
-343966
-343933
-343919
-343964
-343941
-343892
-343890
-343911
-343923
-343871
-343928
-343848
-343988
-344051
-344074
-344040
-344056
-344019
-344106
-344127
-344210
-344212
-344259
-344376
-344374
-344387
-344258
-344394
-344523
-344618
-344722
-344764
-344887
-345025
-345074
-345321
-345286
-345351
-345518
-345653
-345762
-345795
-345965
-346227
-346307
-346461
-346460
-346684
-346908
-347019
-347273
-347380
-347609
-347822
-347959
-348151
-348344
-348499
-348672
-348828
-349035
-349230
-349414
-349662
-349751
-349979
-350038
-350199
-350399
-350444
-350601
-350666
-350746
-350887
-351020
-351083
-351051
-351102
-351238
-351310
-351287
-351297
-351356
-351509
-351440
-351495
-351397
-351454
-351528
-351501
-351517
-351496
-351551
-351541
-351821
-351576
-351450
-351541
-351562
-351484
-351603
-351463
-351540
-351580
-351587
-351619
-351551
-351578
-351590
-351661
-351647
-351718
-351790
-351865
-351808
-351811
-351841
-351845
-351922
-351962
-352072
-352005
-352106
-352245
-352137
-352240
-352256
-352320
-352375
-352478
-352538
-352596
-352746
-352821
-352888
-352926
-352992
-353016
-353149
-353244
-353286
-353401
-353490
-353576
-353662
-353678
-353783
-353891
-354005
-354093
-354141
-354510
-354476
-354549
-354590
-354618
-354723
-354867
-354965
-355097
-355297
-355373
-355512
-355570
-355658
-355760
-355838
-356013
-355986
-356109
-356209
-356386
-356433
-356545
-356582
-356706
-356760
-356840
-356947
-356924
-357069
-357226
-357259
-357352
-357346
-357443
-357525
-357640
-357670
-357703
-357791
-357946
-357916
-357978
-357976
-358100
-358163
-358257
-358398
-358526
-358604
-358645
-358684
-358691
-358847
-358929
-358960
-359090
-359031
-359137
-359262
-359282
-359370
-359281
-359399
-359432
-359452
-359551
-359518
-359603
-359720
-359627
-359743
-359801
-359861
-359985
-360036
-360095
-360125
-360294
-360321
-360327
-360404
-360354
-360471
-360558
-360673
-360674
-360703
-360843
-360830
-360919
-360983
-361015
-361034
-361068
-361159
-361218
-361258
-361316
-361440
-361467
-361501
-361531
-361822
-361669
-361764
-361813
-361827
-361852
-361949
-362069
-362143
-362094
-362147
-362283
-362395
-362404
-362426
-362518
-362623
-362665
-362660
-362773
-362819
-362882
-362893
-362984
-362955
-363075
-363120
-363128
-363187
-363184
-363177
-363250
-363267
-363287
-363237
-363184
-363220
-363053
-362951
-362880
-362675
-362553
-362361
-362154
-361872
-361669
-361368
-361088
-360702
-360363
-359968
-359628
-359083
-358798
-358297
-357945
-357487
-356930
-356526
-355992
-355499
-355049
-354456
-354004
-353537
-353040
-352574
-352041
-351683
-351169
-350767
-350328
-349855
-349514
-349126
-348763
-348463
-348111
-347833
-347518
-347256
-346991
-346745
-346524
-346302
-346107
-346003
-345833
-345657
-345407
-345306
-345181
-345058
-344980
-344879
-344802
-344725
-344625
-344609
-344445
-344461
-344373
-344368
-344283
-344284
-344254
-344288
-344259
-344232
-344233
-344324
-344255
-344294
-344288
-344316
-344432
-344394
-344389
-344430
-344447
-344466
-344502
-344534
-344663
-344648
-344724
-344828
-344923
-344980
-345001
-345048
-345205
-345265
-345332
-345394
-345504
-345656
-345711
-345839
-345901
-346047
-346210
-346279
-346479
-346570
-346778
-347041
-347198
-347329
-347472
-347684
-347917
-348047
-348298
-348426
-348638
-348903
-349106
-349220
-349340
-349530
-349787
-349909
-350122
-350270
-350430
-350493
-350539
-350639
-350693
-350829
-350964
-351027
-351039
-351114
-351156
-351261
-351326
-351388
-351330
-351388
-351414
-351386
-351432
-351355
-351382
-351423
-351375
-351313
-351274
-351268
-351297
-351291
-351240
-351154
-351205
-351278
-351241
-351276
-351178
-351170
-351248
-351302
-351320
-351299
-351404
-351460
-351410
-351466
-351360
-351525
-351523
-351562
-351615
-351604
-351645
-351736
-351724
-351820
-351789
-351849
-351906
-351982
-352028
-352020
-352205
-352502
-352369
-352359
-352418
-352376
-352570
-352620
-352703
-352835
-352899
-353096
-353162
-353218
-353245
-353344
-353513
-353616
-353731
-353728
-353917
-354058
-354093
-354112
-354213
-354340
-354480
-354516
-354554
-354541
-354768
-354886
-354994
-355051
-355133
-355205
-355302
-355425
-355488
-355594
-355740
-355899
-355944
-355962
-355963
-356132
-356290
-356360
-356404
-356515
-356615
-356712
-356814
-356801
-356905
-356985
-357164
-357201
-357344
-357301
-357420
-357476
-357522
-357570
-357652
-357751
-357842
-357952
-358069
-358104
-358178
-358250
-358323
-358429
-358446
-358506
-358585
-358677
-358792
-358807
-358946
-359023
-359118
-359169
-359159
-359220
-359398
-359445
-359514
-359441
-359672
-359779
-359741
-359848
-360241
-360502
-360758
-361048
-361501
-362086
-362183
-362298
-362425
-362572
-363013
-363432
-363518
-363556
-363697
-363793
-363795
-363824
-363894
-363992
-364109
-364145
-364196
-364318
-364434
-364398
-364463
-364512
-364592
-364659
-364699
-364684
-364715
-364815
-364861
-364786
-364782
-364663
-364672
-364618
-364545
-364411
-364318
-364152
-363969
-363749
-363560
-363321
-363075
-362866
-362528
-362225
-361902
-361543
-361206
-360816
-360366
-359914
-359483
-359016
-358607
-358155
-357575
-357126
-356678
-356244
-355755
-355279
-354413
-353911
-353513
-353099
-352786
-352394
-351934
-351579
-351191
-350846
-350595
-350256
-349958
-349640
-349415
-349238
-349008
-348782
-348503
-348338
-348175
-348023
-347928
-347756
-347638
-347572
-347407
-347326
-347194
-347096
-346970
-346968
-346849
-346890
-346874
-346803
-346672
-346748
-346752
-346865
-346970
-346803
-346721
-346881
-346839
-346831
-346914
-346815
-346848
-346937
-346974
-347023
-347064
-347072
-347253
-347265
-347282
-347308
-347316
-347463
-347443
-347671
-347629
-347799
-348043
-347978
-348045
-348127
-348289
-348411
-348544
-348730
-348853
-349014
-349240
-349434
-349548
-349678
-349838
-350094
-350312
-350525
-350719
-350965
-351143
-351358
-351529
-351593
-351832
-352018
-352131
-352328
-352462
-352672
-352907
-353004
-353185
-353257
-353399
-353559
-353697
-353757
-353799
-353945
-354026
-354053
-354112
-354159
-354145
-354201
-354266
-354343
-354340
-354366
-354448
-354355
-354400
-354446
-354442
-354470
-354535
-354551
-354534
-354703
-354727
-354717
-354747
-354709
-354708
-354835
-354820
-354872
-354859
-355011
-355060
-354961
-355112
-355080
-355092
-355192
-355256
-355412
-355319
-355436
-355521
-355593
-355594
-355672
-355703
-355893
-355907
-356034
-355986
-356182
-356247
-356355
-356358
-356431
-356548
-356659
-356722
-356777
-356806
-356993
-357090
-357107
-357205
-357279
-357313
-357477
-357578
-357735
-357742
-357914
-358042
-358100
-358215
-358253
-358418
-358566
-358678
-358810
-358892
-359094
-359171
-359260
-359456
-359453
-359627
-359937
-360002
-360174
-360302
-360471
-360608
-360692
-360816
-361008
-361080
-361145
-361304
-361420
-361458
-361719
-361829
-361886
-361971
-362026
-362163
-362317
-362489
-362602
-362648
-362826
-362897
-362936
-362959
-363016
-363209
-363319
-363387
-363499
-363551
-363774
-363806
-363909
-364001
-364071
-364152
-364269
-364308
-364359
-364355
-364534
-364582
-364629
-364749
-364711
-364856
-365010
-365070
-365120
-365235
-365344
-365425
-365619
-365555
-365541
-365610
-365721
-365788
-365874
-365873
-366025
-366068
-366103
-366195
-366232
-366283
-366397
-366410
-366515
-366561
-366683
-366711
-366733
-366819
-366844
-366957
-367012
-366995
-367050
-367076
-367194
-367263
-367285
-367351
-367362
-367466
-367585
-367547
-367648
-367666
-367782
-367829
-367867
-367947
-367956
-368001
-368154
-368200
-368233
-368189
-368369
-368372
-368336
-368387
-368409
-368443
-368542
-368607
-368684
-368645
-368727
-368800
-368835
-368885
-368851
-368893
-369065
-369079
-369084
-369070
-369076
-369109
-369119
-369059
-368959
-368933
-368913
-368844
-368729
-368541
-368487
-368390
-368161
-367950
-367572
-367404
-367176
-366867
-366514
-366190
-365875
-365464
-365044
-364586
-364133
-363554
-363283
-362826
-362425
-361914
-361524
-361052
-360537
-360077
-359558
-359452
-358828
-358269
-357852
-357330
-356935
-356599
-356150
-355694
-355301
-355010
-354717
-354336
-354074
-353727
-353542
-353264
-353050
-352781
-352534
-352320
-352238
-352067
-351921
-351771
-351761
-351614
-351430
-351282
-351158
-351121
-351140
-351061
-351012
-350850
-350892
-350947
-350845
-350703
-350661
-350705
-350722
-350674
-350680
-350629
-350686
-350694
-350698
-350613
-350640
-350658
-350768
-350739
-350758
-350729
-350848
-350851
-350845
-350875
-350973
-351311
-351314
-351353
-351420
-351522
-351601
-351769
-351838
-351966
-352008
-352231
-352446
-352616
-352737
-352866
-353104
-353273
-353408
-353563
-353698
-353894
-354178
-354322
-354501
-354630
-354851
-355012
-355191
-355228
-355363
-355512
-355765
-355828
-356028
-356117
-356272
-356355
-356476
-356550
-356544
-356694
-356824
-356931
-356956
-357091
-357209
-357258
-357268
-357289
-357276
-357385
-357481
-357456
-357496
-357523
-357496
-357535
-357592
-357584
-357533
-357580
-357615
-357640
-357662
-357624
-357780
-357741
-357627
-357696
-357643
-357750
-357762
-357774
-357811
-357798
-357903
-357878
-357906
-357865
-357821
-357986
-357988
-358056
-358103
-358001
-358122
-358185
-358282
-358293
-358271
-358341
-358556
-358540
-358612
-358605
-358768
-358797
-358798
-358862
-358920
-359054
-359141
-359203
-359283
-359358
-359470
-359544
-359606
-359631
-359688
-359818
-359962
-359971
-360077
-360161
-360337
-360432
-360494
-360493
-360609
-360771
-360879
-360968
-361046
-361129
-361396
-361472
-361515
-361629
-361727
-361851
-361985
-362006
-362206
-362341
-362449
-362504
-362622
-362711
-362822
-362934
-363012
-363117
-363163
-363236
-363453
-363492
-363524
-363989
-364053
-364140
-364263
-364341
-364367
-364446
-364434
-364543
-364684
-364705
-364770
-364987
-365067
-365044
-365060
-365062
-365171
-365224
-365266
-365278
-365327
-365521
-365574
-365573
-365496
-365618
-365651
-365763
-365841
-365873
-365906
-366046
-366108
-366180
-366288
-366201
-366229
-366381
-366446
-366460
-366548
-366693
-366666
-366708
-366790
-366874
-366982
-367046
-367127
-367225
-367306
-367368
-367469
-367478
-367551
-367609
-367680
-368008
-367949
-368028
-367989
-368148
-368238
-368306
-368318
-368394
-368434
-368585
-368604
-368708
-368771
-368881
-368935
-368996
-369048
-369076
-369123
-369293
-369374
-369401
-369468
-369574
-369581
-369898
-369736
-369729
-369831
-369898
-369974
-369946
-369993
-370040
-370081
-370059
-370008
-369975
-369899
-369858
-369834
-369748
-369580
-369482
-369208
-369040
-368803
-368581
-368316
-368075
-367738
-367396
-366981
-366803
-366389
-366016
-365537
-365126
-364708
-364294
-363792
-363378
-362853
-362487
-362009
-361535
-360929
-360454
-360097
-359684
-359202
-358744
-358353
-358011
-357642
-357245
-356836
-356483
-356176
-355961
-355583
-355354
-355030
-354816
-354522
-354260
-354025
-353794
-353647
-353477
-353315
-353122
-352858
-352862
-352762
-352579
-352401
-352273
-352242
-352162
-352045
-352029
-351916
-351928
-351821
-351770
-351681
-351621
-351607
-351635
-351653
-351616
-351599
-351578
-351543
-351519
-351441
-351489
-351573
-351534
-351567
-351587
-351438
-351575
-351591
-351596
-351607
-351661
-351655
-351791
-351809
-351893
-351939
-352031
-352077
-352086
-352121
-352099
-352215
-352304
-352342
-352515
-352591
-352779
-352835
-352921
-353001
-353332
-353649
-353818
-354167
-354357
-354573
-354636
-354769
-355027
-355252
-355328
-355446
-355611
-355773
-355962
-356083
-356193
-356317
-356463
-356730
-356790
-356937
-357057
-357234
-357358
-357445
-357790
-357576
-357684
-357746
-357854
-357878
-357940
-358120
-358148
-358075
-358118
-358177
-358262
-358279
-358478
-358376
-358337
-358446
-358468
-358401
-358410
-358435
-358711
-358557
-358488
-358593
-358454
-358538
-358551
-358520
-358515
-358490
-358558
-358574
-358585
-358583
-358579
-358692
-358717
-358694
-358645
-358785
-358802
-358844
-358887
-358889
-359118
-359082
-359138
-359148
-359114
-359168
-359236
-359350
-359436
-359433
-359410
-359546
-359580
-359626
-359664
-359713
-359896
-359975
-360016
-360087
-360126
-360283
-360420
-360450
-360396
-360555
-360602
-360756
-360854
-360984
-361008
-361090
-361216
-361327
-361383
-361464
-361605
-361772
-361803
-361927
-362024
-362205
-362327
-362335
-362405
-362507
-362699
-362812
-362914
-362991
-363093
-363190
-363337
-363439
-363500
-363615
-364055
-363906
-363905
-364291
-364591
-364814
-365016
-365251
-365275
-365393
-365512
-365657
-365722
-365731
-365857
-365933
-366059
-366068
-366176
-366169
-366321
-366337
-366361
-366385
-366458
-366568
-366668
-366679
-366802
-366797
-367022
-367007
-367005
-367007
-367087
-367213
-367304
-367357
-367415
-367547
-367724
-367833
-367948
-367999
-368132
-368199
-368135
-368223
-368188
-368352
-368380
-368464
-368525
-368575
-368710
-368779
-368803
-368820
-368908
-368930
-369027
-369007
-369079
-369126
-369247
-369314
-369296
-369283
-369326
-369399
-369537
-369562
-369501
-369507
-369586
-369587
-369506
-369480
-369430
-369375
-369347
-369266
-369202
-369114
-369002
-368643
-368370
-368087
-367863
-367693
-367392
-367085
-366768
-366508
-366205
-365755
-365312
-364911
-364507
-364150
-363684
-363224
-362737
-362475
-361929
-361559
-361054
-360593
-360186
-359806
-359407
-358907
-358547
-358224
-357863
-357499
-357142
-356766
-356471
-356174
-355834
-355529
-355336
-355067
-354912
-354611
-354384
-354155
-354053
-353895
-353656
-353471
-353368
-353323
-353163
-352976
-352815
-352777
-352743
-352605
-352592
-352448
-352367
-352353
-352298
-352240
-352125
-352077
-352145
-352050
-352046
-352039
-352033
-351995
-352062
-351992
-351956
-351966
-352053
-352061
-352063
-352012
-352079
-352146
-352213
-352163
-352171
-352231
-352283
-352311
-352379
-352359
-352452
-352496
-352541
-352566
-352617
-352698
-352876
-352924
-353062
-353134
-353286
-353337
-353447
-353624
-353686
-353773
-353956
-354060
-354275
-354411
-354613
-354798
-354959
-355095
-355253
-355428
-355658
-355763
-355915
-356062
-356261
-356518
-356628
-356718
-356899
-356958
-357123
-357431
-357440
-357661
-357832
-357859
-357982
-358015
-358139
-358229
-358323
-358361
-358423
-358449
-358639
-358665
-358651
-358678
-358803
-358888
-358882
-358869
-358973
-358948
-359048
-359025
-359041
-358950
-359033
-359097
-359095
-359089
-359122
-359141
-359245
-359196
-359160
-359194
-359184
-359212
-359272
-359300
-359262
-359342
-359434
-359452
-359465
-359481
-359497
-359527
-359751
-359760
-359910
-359953
-360002
-360003
-360168
-360202
-360317
-360354
-360507
-360644
-360651
-360755
-360764
-360821
-360930
-361116
-361093
-361197
-361353
-361484
-361566
-361606
-361684
-361802
-361871
-361924
-362094
-362097
-362521
-362551
-362609
-362742
-362835
-362909
-362994
-363078
-363433
-363510
-363602
-363579
-363708
-363855
-364012
-364081
-364150
-364275
-364392
-364470
-364606
-364653
-364835
-364967
-365116
-365180
-365251
-365388
-365552
-365636
-365704
-365768
-365858
-365975
-366090
-366251
-366243
-366288
-366481
-366562
-366650
-366642
-366805
-366907
-366961
-366987
-367095
-367326
-367301
-367385
-367488
-367592
-367615
-367656
-367796
-368042
-368056
-368125
-368157
-368189
-368350
-368390
-368479
-368671
-368710
-368810
-368786
-368809
-368942
-369017
-369074
-369139
-369238
-369353
-369425
-369490
-369458
-369585
-369731
-369789
-369820
-369898
-369988
-370082
-370150
-370180
-370193
-370266
-370343
-370380
-370392
-370493
-370636
-370821
-370829
-370746
-370820
-370925
-370989
-371156
-371122
-371170
-371302
-371329
-371358
-371337
-371470
-371492
-371507
-371609
-371593
-371606
-371666
-371587
-371670
-371674
-371659
-371636
-371592
-371456
-371314
-371179
-371181
-371030
-370555
-370319
-370132
-369900
-369669
-369355
-369007
-368712
-368333
-367946
-367533
-367118
-366648
-365866
-365350
-364893
-364544
-364036
-363522
-362940
-362566
-362102
-361781
-361320
-360896
-353330
-353245
-353207
-353128
-353100
-352914
-352820
-352737
-352711
-352679
-352589
-352596
-352487
-352533
-352534
-352456
-352453
-352451
-352402
-352462
-352425
-352460
-352414
-352467
-352353
-352374
-352388
-352438
-352471
-352498
-352560
-352621
-352634
-352577
-352582
-352702
-352782
-352841
-352913
-352934
-353083
-353199
-353313
-353339
-353375
-353521
-353630
-353782
-353981
-354075
-354305
-354488
-354618
-354781
-354903
-355112
-355268
-355475
-355647
-355783
-355998
-356233
-356465
-356601
-356645
-356862
-357023
-357169
-357325
-357530
-357713
-357869
-358027
-358139
-358196
-358287
-358445
-358580
-358663
-358717
-358876
-359054
-359081
-359110
-359187
-359252
-359334
-359348
-359417
-359424
-359476
-359620
-359609
-359627
-359865
-360001
-360094
-360438
-360833
-360900
-360974
-361110
-361184
-361265
-361320
-361465
-361539
-362140
-362200
-362273
-362415
-362517
-362647
-362700
-362827
-362954
-363114
-363179
-363348
-363312
-363511
-363664
-363697
-363826
-363892
-364072
-364151
-364183
-364425
-364451
-364642
-364824
-364945
-365074
-365075
-365205
-365348
-365519
-365698
-365758
-365891
-366087
-366130
-366251
-366287
-366430
-366604
-366719
-366830
-366894
-366992
-367128
-367264
-367396
-367424
-367561
-367710
-367776
-367888
-367983
-368113
-368262
-368305
-368419
-368450
-368570
-368701
-368769
-368880
-368952
-369071
-369177
-369257
-369335
-369423
-369502
-369619
-369714
-369736
-369825
-369921
-370044
-370110
-370214
-370309
-370402
-370553
-370568
-370675
-370755
-370829
-370951
-370944
-371063
-371081
-371229
-371348
-371309
-371455
-371515
-371720
-371852
-371847
-371857
-371866
-371980
-372119
-372101
-372263
-372246
-372416
-372551
-372602
-372588
-372635
-372657
-372764
-372859
-372923
-372873
-373032
-373142
-373182
-373177
-373210
-373348
-373426
-373499
-373554
-373529
-373702
-373726
-373815
-373811
-373809
-373899
-373998
-374045
-374102
-374125
-374233
-374327
-374370
-374448
-374498
-374577
-374600
-374617
-374772
-374811
-374897
-374797
-374805
-374844
-374788
-374784
-374704
-374685
-374522
-374457
-374706
-374268
-373968
-373788
-373528
-373362
-373122
-372816
-372407
-372141
-371753
-371391
-370951
-370540
-370098
-369693
-369226
-368748
-368307
-367845
-367410
-366969
-366397
-365840
-365422
-364955
-364577
-364075
-363590
-363258
-362876
-362341
-361927
-361514
-361079
-360854
-360481
-360182
-359838
-359636
-359350
-358955
-358741
-358494
-358256
-358101
-357950
-357801
-357647
-357465
-357311
-357137
-356998
-356785
-356709
-356644
-356558
-356480
-356314
-356240
-356206
-356105
-356014
-356015
-355971
-355935
-355845
-355804
-355680
-355792
-355796
-355660
-355677
-355612
-355608
-355610
-355473
-355516
-355482
-355609
-355665
-355629
-355557
-355589
-355677
-355704
-355709
-355793
-355783
-355860
-355883
-355903
-355968
-355987
-356075
-356189
-356207
-356253
-356436
-356542
-356737
-356784
-356886
-357025
-357190
-357389
-357508
-357679
-357800
-357996
-358146
-358318
-358438
-358640
-358777
-358978
-359135
-359297
-359455
-359637
-359837
-359985
-360177
-360219
-360375
-360537
-360671
-360793
-360874
-361047
-361226
-361499
-361415
-361400
-361626
-361713
-361794
-361864
-361859
-362027
-362028
-362090
-362139
-362122
-362248
-362271
-362261
-362297
-362239
-362348
-362368
-362337
-362339
-362297
-362286
-362350
-362359
-362417
-362360
-362427
-362494
-362420
-362428
-362405
-362398
-362434
-362471
-362403
-362438
-362533
-362487
-362556
-362576
-362526
-362568
-362647
-362699
-362656
-362664
-362741
-362784
-362777
-362888
-362823
-362939
-363029
-362978
-363087
-363042
-363189
-363324
-363356
-363357
-363455
-363537
-363641
-363736
-363836
-363876
-364089
-364193
-364221
-364314
-364321
-364487
-364636
-364623
-364794
-364875
-364968
-365278
-365173
-365287
-365379
-365444
-365578
-365652
-365825
-365878
-366051
-366148
-366181
-366324
-366422
-366508
-366690
-366769
-366834
-366879
-367066
-367243
-367333
-367419
-367451
-367633
-367816
-367898
-368097
-368066
-368236
-368358
-368451
-368500
-368598
-368716
-368869
-368963
-369121
-369124
-369221
-369412
-369479
-369575
-369613
-369710
-369836
-369851
-369951
-370040
-370174
-370291
-370301
-370366
-370397
-370446
-370586
-370679
-370677
-370680
-370865
-370945
-370958
-371021
-370955
-371086
-371179
-371196
-371233
-371263
-371337
-371411
-371522
-371554
-371566
-371653
-371740
-371801
-371889
-371949
-371999
-372103
-372077
-372086
-372130
-372201
-372351
-372311
-372425
-372391
-372534
-372560
-372588
-372604
-372672
-372742
-372680
-372839
-373000
-372854
-373038
-373074
-373046
-373099
-373161
-373231
-373219
-373289
-373312
-373359
-373442
-373492
-373526
-373543
-373496
-373601
-373673
-373720
-373783
-373734
-373779
-373869
-373900
-373941
-373938
-373945
-374061
-374027
-374072
-374066
-374127
-374153
-374085
-374062
-374013
-373913
-373941
-373768
-373657
-373454
-373455
-373228
-373043
-372832
-372486
-372348
-372017
-371748
-371416
-371027
-370752
-370301
-369910
-369495
-369039
-368673
-368211
-367721
-367281
-366829
-366389
-365986
-365440
-364991
-364542
-364196
-363736
-363369
-362914
-362517
-362155
-361759
-361361
-361003
-360637
-360292
-360030
-359773
-359489
-359125
-358970
-358613
-358386
-358116
-357865
-357708
-357623
-357437
-357303
-357079
-356907
-356829
-356672
-356527
-356387
-356310
-356279
-356197
-356109
-356062
-356031
-355946
-355811
-355767
-355682
-355693
-355663
-355630
-355637
-355577
-355634
-355614
-355612
-355540
-355475
-355422
-355458
-355487
-355482
-355604
-355583
-355568
-355616
-355566
-355570
-355635
-355678
-355716
-355728
-355828
-355934
-355889
-355924
-355975
-356073
-356219
-356271
-356386
-356433
-356550
-356713
-356831
-356890
-357079
-357256
-357446
-357575
-357784
-357877
-358112
-358286
-358480
-358597
-358807
-358951
-359151
-359342
-359480
-359663
-359886
-360097
-360263
-360319
-360535
-360723
-360839
-360961
-361184
-361282
-361458
-361573
-361610
-361752
-361789
-361884
-362045
-362157
-362211
-362222
-362412
-362461
-362464
-362506
-362477
-362619
-362683
-362726
-362751
-362792
-362870
-362875
-362920
-362844
-362877
-362890
-363004
-362950
-363009
-362978
-363046
-363062
-363097
-363060
-363119
-363159
-363269
-363287
-363290
-363306
-363472
-363453
-363463
-363337
-363423
-363467
-363564
-363591
-363646
-363661
-363749
-363796
-363832
-363841
-363888
-363982
-364012
-364118
-364138
-364152
-364318
-364365
-364393
-364378
-364486
-364560
-364602
-364710
-364787
-364796
-364957
-365063
-365088
-365127
-365246
-365363
-365458
-365562
-365610
-365738
-365857
-366007
-366024
-366051
-366136
-366280
-366457
-366508
-366626
-366678
-366887
-367028
-367070
-367147
-367204
-367378
-367518
-367599
-367658
-367873
-368045
-368172
-368259
-368249
-368404
-368450
-368665
-368744
-368848
-368985
-369172
-369324
-369471
-369452
-369601
-369789
-369813
-369997
-370090
-370195
-370399
-370532
-370616
-370619
-370735
-370833
-371022
-371123
-371201
-371277
-371385
-371508
-371560
-371649
-371753
-371816
-371920
-371962
-372037
-372163
-372170
-372305
-372352
-372402
-372503
-372602
-372651
-372788
-372808
-372838
-372939
-373008
-373004
-373065
-373072
-373146
-373199
-373277
-373362
-373351
-373506
-373558
-373607
-373507
-373598
-373634
-373783
-373774
-373882
-373925
-374091
-374016
-374036
-374032
-374165
-374189
-374307
-374332
-374379
-374369
-374593
-374615
-374647
-374587
-374593
-374782
-374848
-374888
-375183
-375046
-375144
-375176
-375233
-375235
-375270
-375371
-375500
-375529
-375554
-375679
-375829
-375950
-375908
-375963
-376064
-376103
-376231
-376264
-376351
-376371
-376549
-376556
-376580
-376610
-376677
-376818
-376817
-376788
-376856
-376947
-376911
-376866
-376748
-376643
-376638
-376460
-376342
-376152
-376027
-375832
-375604
-375401
-375007
-374734
-374506
-374106
-373717
-373381
-372913
-372581
-372154
-371699
-371192
-370723
-370277
-369891
-369434
-368915
-368415
-368039
-367551
-367052
-366642
-366190
-365795
-365348
-364913
-364529
-364141
-363848
-363500
-363127
-362746
-362393
-362159
-361823
-361591
-361210
-361003
-360824
-360589
-360261
-360038
-359884
-359698
-359580
-359388
-359224
-359049
-358940
-358829
-358701
-358553
-358384
-358386
-358273
-358133
-358064
-357962
-357929
-357938
-357864
-357814
-357717
-357687
-357698
-357657
-357536
-357456
-357542
-357534
-357518
-357434
-357454
-357419
-357474
-357451
-357469
-357394
-357508
-357541
-357471
-357495
-357536
-357574
-357530
-357502
-357601
-357571
-357645
-357734
-357794
-357869
-357940
-358052
-358107
-358105
-358250
-358521
-358545
-358690
-358650
-358866
-359076
-359217
-359299
-359422
-359595
-359899
-360043
-360117
-360247
-360415
-360596
-360777
-360952
-361102
-361271
-361494
-361699
-361828
-361907
-362090
-362329
-362428
-362592
-362667
-362724
-362964
-363098
-363254
-363200
-363246
-363353
-363502
-363565
-363587
-363693
-363834
-363851
-363864
-363926
-363995
-364047
-364065
-364093
-364116
-364166
-364257
-364269
-364298
-364233
-364306
-364357
-364381
-364430
-364492
-364518
-364631
-364563
-364536
-364525
-364567
-364609
-364635
-364698
-364735
-364750
-364862
-364885
-364892
-364865
-364981
-365023
-365110
-365192
-365200
-365231
-365388
-365459
-365495
-365518
-365542
-365689
-365748
-365831
-365851
-365990
-366148
-366173
-366256
-366287
-366368
-366521
-366681
-366702
-366778
-366860
-367105
-367200
-367283
-367296
-367368
-367514
-367589
-367742
-367863
-367981
-368125
-368177
-368297
-368417
-368573
-368625
-368766
-368879
-368949
-369071
-369205
-369387
-369444
-369518
-369630
-369797
-369933
-370073
-370149
-370270
-370449
-370526
-370683
-370747
-370854
-370968
-371064
-371291
-371335
-371352
-371541
-371579
-371744
-371838
-371911
-372030
-372143
-372311
-372328
-372381
-372604
-372721
-372764
-372788
-372728
-372964
-373149
-373211
-373228
-373342
-373382
-373460
-373575
-373512
-373665
-373720
-373823
-373862
-373910
-374040
-374104
-374071
-374199
-374289
-374359
-374478
-374482
-374528
-374577
-374668
-374798
-374842
-374844
-374883
-374949
-375029
-374985
-375170
-375136
-375231
-375434
-375479
-375522
-375552
-375604
-375734
-375811
-375832
-375896
-376023
-376108
-376165
-376280
-376252
-376366
-376451
-376403
-376580
-376595
-376672
-376860
-376925
-376941
-377002
-377087
-377221
-377226
-377257
-377361
-377480
-377596
-377627
-377753
-377758
-377834
-377908
-377957
-378059
-378154
-378237
-378348
-378360
-378432
-378439
-378553
-378609
-378713
-378797
-378836
-378839
-379012
-379069
-379089
-379153
-379238
-379287
-379364
-379279
-379432
-379562
-379466
-379445
-379406
-379429
-379438
-379446
-379360
-379248
-379136
-379182
-379050
-377155
-376800
-372381
-371908
-371010
-370133
-368947
-367033
-366678
-366361
-366002
-365731
-365459
-365271
-364987
-364545
-364403
-364164
-363962
-363727
-363530
-363376
-363221
-363015
-362861
-362444
-362298
-362232
-362072
-361991
-361948
-361835
-361766
-361725
-361610
-361626
-361569
-361580
-361481
-361464
-361515
-361396
-361386
-361374
-361366
-361410
-361332
-361244
-361250
-361266
-361346
-361335
-361414
-361325
-361362
-361438
-361429
-361411
-361413
-361501
-361608
-361598
-361704
-361691
-361783
-361823
-361929
-362029
-362112
-362221
-362375
-362494
-362618
-362663
-362819
-363002
-363032
-363235
-363391
-363592
-363811
-363878
-364040
-364213
-364408
-364653
-364736
-364943
-365027
-365259
-365492
-365663
-365756
-365850
-366078
-366250
-366333
-366460
-366557
-366785
-366856
-366924
-367065
-367075
-367181
-367327
-367314
-367436
-367485
-367586
-367694
-367649
-367713
-367717
-367711
-367793
-367817
-367872
-367853
-367920
-367954
-367947
-367967
-367962
-367959
-367969
-367958
-367975
-367957
-367995
-368084
-368354
-368100
-368005
-367992
-367996
-367994
-368064
-368023
-368144
-368204
-368178
-368281
-368195
-368148
-368144
-368242
-368326
-368314
-368402
-368439
-368381
-368488
-368502
-368522
-368588
-368675
-368757
-368752
-368748
-368959
-368971
-369055
-369028
-369123
-369245
-369272
-369531
-369458
-369523
-369594
-369631
-369761
-369809
-369848
-370054
-370085
-370164
-370232
-370370
-370474
-370525
-370576
-370639
-370798
-370881
-371009
-371048
-371152
-371273
-371409
-371493
-371596
-371672
-371810
-371921
-372010
-372145
-372178
-372315
-372423
-372455
-372590
-372652
-372816
-372886
-373028
-373099
-373120
-373301
-373393
-373460
-373593
-373655
-373742
-373862
-373926
-374050
-374134
-374293
-374380
-374399
-374499
-374604
-374758
-374836
-374891
-374996
-374960
-375157
-375320
-375372
-375441
-375440
-375539
-375683
-375741
-375829
-375803
-375996
-376048
-376106
-376156
-376135
-376211
-376376
-376382
-376489
-376523
-376569
-376718
-376683
-376814
-376740
-376829
-376932
-376983
-377042
-377078
-377213
-377232
-377235
-377249
-377589
-377482
-377539
-377534
-377586
-377621
-377772
-377806
-377773
-377818
-377824
-377855
-377994
-378079
-378139
-378126
-378246
-378341
-378381
-378442
-378427
-378531
-378603
-378582
-378699
-378729
-378945
-378960
-379001
-379012
-379037
-379151
-379221
-379256
-379322
-379393
-379514
-379564
-379601
-379686
-379695
-379747
-379828
-379852
-379964
-379969
-380075
-380199
-380197
-380192
-380285
-380396
-380436
-380478
-380499
-380519
-380645
-380730
-380709
-380760
-380768
-380800
-380873
-380764
-380763
-380705
-380696
-380693
-380481
-380425
-380313
-380140
-380013
-379863
-379683
-379365
-379160
-378882
-378601
-378292
-377952
-377670
-377359
-377004
-376582
-376110
-375757
-375419
-374860
-374423
-373874
-373537
-373032
-372610
-372188
-371706
-371350
-370917
-370476
-370058
-369624
-369289
-368918
-368542
-368234
-367869
-367547
-367216
-366860
-366643
-366348
-366058
-365806
-365553
-365335
-365082
-364959
-364790
-364564
-364327
-364165
-364109
-363945
-363807
-363685
-363586
-363518
-363385
-363283
-363239
-363048
-362983
-363043
-363007
-362924
-362812
-362787
-362839
-362802
-362751
-362619
-362641
-362697
-362620
-362623
-362776
-362722
-362710
-362664
-362604
-362593
-362646
-362719
-362654
-362690
-362661
-362807
-362803
-362767
-362753
-362797
-362849
-362911
-362999
-363018
-363135
-363241
-363204
-363264
-363352
-363380
-363538
-363595
-363792
-363975
-363995
-364264
-364390
-364514
-364602
-364826
-365007
-365175
-365330
-365550
-365715
-365942
-366145
-366270
-366512
-366600
-366782
-366992
-367154
-367380
-367469
-367731
-367884
-368008
-367994
-368201
-368320
-368471
-368594
-368678
-368834
-368946
-369285
-369202
-369161
-369196
-369279
-369375
-369423
-369573
-369498
-369611
-369657
-369662
-369646
-369620
-369716
-369843
-369829
-370156
-369912
-369943
-369903
-369885
-369884
-369917
-369951
-369943
-369968
-370085
-369995
-370049
-370143
-370111
-370083
-370090
-370205
-370314
-370308
-370411
-370398
-370520
-370606
-370655
-370653
-370670
-370663
-370821
-370909
-370932
-370879
-371095
-371148
-371223
-371294
-371348
-371459
-371533
-371642
-371639
-371801
-371887
-372056
-372136
-372170
-372243
-372452
-372535
-372676
-372720
-372847
-372999
-373025
-373077
-373163
-373259
-373471
-373592
-373628
-373714
-373827
-374065
-374182
-374223
-374279
-374396
-374467
-374642
-374805
-374926
-374973
-375091
-375253
-375367
-375429
-375460
-375691
-375802
-375932
-376024
-376081
-376331
-376365
-376461
-376495
-376562
-376727
-376905
-377066
-377159
-377143
-377379
-377442
-377547
-377607
-377709
-377817
-377980
-378355
-378305
-378258
-378455
-378495
-378624
-378555
-378619
-378797
-378802
-378857
-378958
-379002
-379214
-379323
-379304
-379265
-379418
-379538
-379681
-379737
-379757
-379773
-379860
-379940
-380022
-380029
-380113
-380093
-380194
-380300
-380367
-380384
-380481
-380600
-380627
-380626
-380666
-380769
-380818
-380827
-380839
-380941
-381024
-381143
-381099
-381119
-381159
-381227
-381298
-381321
-381354
-381361
-381504
-381525
-381531
-381540
-381679
-381659
-381768
-381752
-381839
-381904
-381928
-382006
-382064
-382069
-382084
-382165
-382269
-382299
-382309
-382356
-382479
-382536
-382531
-382588
-382602
-382703
-382749
-382761
-382848
-382911
-382998
-383027
-383066
-383095
-383061
-383165
-383282
-383348
-383375
-383398
-383543
-383556
-383623
-383586
-383663
-383680
-383873
-384189
-383963
-383972
-384078
-384137
-384168
-384464
-384237
-384152
-384201
-384172
-384106
-384053
-384093
-384061
-383962
-383782
-383631
-383500
-383346
-383106
-382891
-382725
-382455
-382158
-381842
-381337
-381126
-380838
-380501
-380104
-379599
-379249
-378821
-378441
-377932
-377419
-376917
-376571
-376176
-375572
-375132
-374740
-374295
-373917
-373457
-372936
-372530
-372139
-371720
-371314
-370985
-370606
-370261
-369911
-369616
-369161
-368868
-368696
-368414
-368138
-367806
-367494
-367397
-367225
-366995
-366709
-366528
-366424
-366238
-366131
-365879
-365769
-365710
-365517
-365419
-365252
-365182
-365123
-365031
-364903
-364848
-364791
-364767
-364725
-364708
-364600
-364531
-364484
-364565
-364520
-364498
-364394
-364486
-364448
-364447
-364440
-364377
-364406
-364458
-364502
-364484
-364478
-364540
-364588
-364581
-364499
-364543
-364626
-364730
-365091
-364878
-364913
-364953
-365031
-365469
-365275
-365230
-365353
-365510
-365567
-365516
-365732
-365942
-366087
-366202
-366351
-366455
-366666
-366862
-366968
-367119
-367297
-367475
-367700
-367875
-368023
-368185
-368375
-368521
-368674
-368762
-368905
-369117
-369251
-369365
-369496
-369708
-369846
-369865
-369997
-370068
-370163
-370356
-370387
-370502
-370531
-370614
-370731
-370761
-370830
-370804
-370973
-371152
-371112
-371155
-371097
-371212
-371503
-371439
-371404
-371402
-371436
-371514
-371525
-371523
-371561
-371549
-371647
-371724
-371804
-371808
-371814
-371888
-371924
-371938
-372057
-372152
-372176
-372178
-372259
-372317
-372488
-372536
-372535
-372664
-372696
-372844
-372952
-372994
-373022
-373119
-373303
-373410
-373439
-373494
-373554
-373698
-373831
-373915
-373899
-374047
-374275
-374359
-374542
-374547
-374643
-374799
-374836
-374959
-375054
-375193
-375428
-375500
-375599
-375611
-375758
-375908
-375994
-376100
-376098
-376318
-376404
-376573
-376778
-376874
-376941
-377019
-377159
-377225
-377454
-377589
-377673
-377823
-377797
-377932
-378131
-378222
-378337
-378356
-378467
-378577
-378736
-378825
-378878
-378930
-379073
-379186
-379221
-379306
-379426
-379833
-379667
-379760
-379859
-379921
-380000
-380074
-380116
-380218
-380318
-380440
-380435
-380541
-380566
-380706
-380755
-380829
-380845
-380895
-381005
-381185
-381223
-381266
-381272
-381388
-381468
-381509
-381634
-381665
-381730
-381866
-381964
-381953
-382040
-382026
-382140
-382172
-382274
-382239
-382381
-382444
-382527
-382589
-382655
-382656
-382755
-382868
-382969
-382959
-383074
-383195
-383260
-383281
-383348
-383391
-383440
-383547
-383593
-383622
-383701
-383825
-383895
-383994
-383970
-384061
-384192
-384288
-384357
-384410
-384507
-384572
-384661
-384752
-384779
-384845
-384972
-384936
-385086
-385047
-385189
-385320
-385388
-385415
-385413
-385520
-385620
-385683
-385742
-385710
-385902
-386011
-386092
-386128
-386150
-386214
-386340
-386402
-386527
-386514
-386660
-386790
-386772
-386851
-386919
-387039
-387049
-387154
-387150
-387286
-387344
-387304
-387428
-387238
-387358
-387393
-387491
-387457
-387429
-387426
-387480
-387455
-387374
-387252
-387129
-386995
-386929
-386740
-386533
-386343
-386188
-385893
-385621
-385324
-385002
-384731
-384389
-384081
-383660
-383296
-382909
-382487
-382122
-381555
-381167
-380797
-380302
-379807
-379338
-378995
-378552
-378026
-377551
-377130
-376723
-376332
-375862
-375495
-375076
-374689
-374317
-373900
-373598
-373173
-372912
-372569
-372227
-371954
-371679
-371512
-371250
-371036
-370776
-370556
-370303
-370176
-370021
-369877
-369661
-369528
-369463
-369259
-369206
-369114
-368957
-368897
-368842
-368738
-368674
-368632
-368644
-368526
-368489
-368434
-368387
-368456
-368430
-368385
-368371
-368456
-368438
-368409
-368438
-368366
-368467
-368515
-368474
-368586
-368578
-368632
-368654
-368728
-368697
-368681
-368778
-368902
-368969
-369070
-369064
-369220
-369303
-369334
-369515
-369456
-369556
-369824
-369870
-370071
-370108
-370361
-370504
-370619
-370782
-370900
-371064
-371264
-371407
-371595
-371666
-372021
-372218
-372333
-372467
-372568
-372738
-372929
-373075
-373253
-373392
-373603
-373761
-373813
-373985
-374012
-374159
-374320
-374413
-374528
-374569
-374765
-374893
-374979
-375067
-375113
-375146
-375234
-375307
-375428
-375395
-375541
-375571
-375670
-375680
-375648
-375755
-375774
-375764
-375741
-375747
-375775
-375847
-375786
-375785
-375827
-375828
-375893
-375931
-375846
-375900
-375976
-375933
-375864
-375911
-375936
-375982
-376064
-376019
-376001
-376126
-376088
-376139
-376115
-376080
-376167
-376178
-376348
-376282
-376296
-376447
-376443
-376580
-376601
-376598
-376575
-376696
-376740
-376822
-376799
-376920
-376952
-377001
-377040
-377051
-377053
-377298
-377320
-377395
-377474
-377578
-377708
-377744
-377766
-377769
-377935
-378137
-378099
-378175
-378213
-378378
-378488
-378586
-378633
-378637
-378776
-379212
-378958
-379034
-379096
-379341
-379397
-379446
-379552
-379600
-379755
-379892
-379899
-379992
-380039
-380261
-380346
-380387
-380486
-380499
-380660
-380795
-380825
-380956
-380967
-381177
-381292
-381338
-381433
-381425
-381514
-381634
-381656
-381766
-381846
-381997
-382084
-382129
-382191
-382174
-382264
-382399
-382460
-382556
-382600
-382709
-382756
-382783
-382885
-382927
-382984
-383118
-383124
-383192
-383211
-383384
-383463
-383383
-383453
-383450
-383556
-383671
-383653
-383757
-383774
-383800
-383909
-383916
-383929
-383984
-384062
-384121
-384124
-384223
-384209
-384316
-384364
-384358
-384438
-384395
-384504
-384620
-384691
-384719
-384754
-384806
-384847
-384897
-384961
-384937
-384967
-385143
-385189
-385191
-385224
-385360
-385402
-385404
-385426
-385410
-385529
-385647
-385692
-385699
-385720
-385931
-385907
-385961
-385945
-385977
-386085
-386230
-386199
-386250
-386315
-386404
-386462
-386484
-386524
-386589
-386610
-386685
-386773
-386833
-386858
-386985
-387017
-387261
-387062
-387019
-387126
-387279
-387209
-387308
-387259
-387421
-387503
-387484
-387457
-387419
-387417
-387497
-387405
-387348
-387307
-387236
-387272
-387139
-386911
-386764
-386607
-386472
-386284
-386039
-385735
-385545
-385204
-384849
-384646
-384148
-383878
-383510
-383134
-382731
-382296
-381864
-381490
-381008
-380575
-380114
-379677
-379180
-378755
-378354
-377918
-377546
-377255
-376681
-376232
-375727
-375320
-375008
-374645
-374224
-373817
-373557
-373205
-372858
-372499
-372226
-371968
-371736
-371446
-371320
-370970
-370831
-370728
-370476
-370200
-369992
-369893
-369781
-369605
-368926
-368740
-368618
-368543
-368518
-368532
-368568
-368539
-368571
-368706
-368574
-368623
-368653
-368731
-368721
-368796
-368939
-368882
-369138
-369236
-369251
-369447
-369627
-369668
-369787
-369854
-370377
-370834
-372215
-372311
-372561
-372728
-372854
-372949
-373124
-373303
-373534
-373687
-373883
-373922
-374372
-374324
-374447
-374641
-374697
-374897
-374974
-375075
-375144
-375260
-375394
-375478
-375428
-375495
-375587
-375708
-375753
-375804
-375813
-375882
-375991
-376013
-375997
-375976
-376027
-376096
-376089
-376099
-376167
-376196
-376245
-376173
-376246
-376269
-376341
-376334
-376301
-376348
-376490
-376407
-376394
-376436
-376505
-376548
-376497
-376498
-376626
-376699
-376766
-376761
-376729
-376822
-376903
-376951
-376961
-377056
-377078
-377239
-377202
-377204
-377264
-377354
-377484
-377530
-377521
-377601
-377763
-377794
-377868
-377803
-377784
-377943
-378099
-378162
-378208
-378238
-378371
-378381
-378470
-378434
-378550
-378703
-378771
-378806
-378889
-378887
-379053
-379057
-379153
-379160
-379227
-379328
-379405
-379488
-379478
-379574
-379744
-379747
-379860
-379775
-379882
-380019
-380070
-380102
-380180
-380259
-380423
-380460
-380562
-380553
-380591
-380648
-380681
-380780
-380820
-380917
-381051
-381097
-381172
-381088
-381239
-381322
-381412
-381460
-381491
-381520
-381661
-381701
-381787
-381748
-381821
-381878
-381996
-382361
-382188
-382143
-382247
-382252
-382332
-382326
-382391
-382483
-382490
-382516
-382533
-382565
-382736
-382790
-382814
-382765
-382790
-382893
-382995
-383011
-382945
-382991
-383138
-383170
-383214
-383098
-383096
-383165
-383332
-383365
-383305
-383430
-383533
-383551
-383594
-383536
-383607
-383701
-383795
-383786
-383800
-383789
-383937
-383984
-384036
-384016
-384142
-384199
-384293
-384329
-384398
-384459
-384592
-384631
-384666
-384680
-384791
-384918
-384971
-385132
-385110
-385158
-385330
-385381
-385450
-385532
-385596
-385666
-385728
-385761
-385880
-385936
-386173
-386187
-386326
-386302
-386428
-386517
-386639
-386745
-386779
-386870
-387009
-387070
-387199
-387135
-387204
-387299
-387430
-387379
-387359
-387443
-387551
-387560
-387564
-387470
-387492
-387405
-387433
-387288
-387189
-386955
-386914
-386695
-386475
-386251
-385988
-385761
-385421
-385143
-384832
-384422
-384167
-383798
-383407
-382850
-382477
-382103
-381689
-381236
-380729
-380244
-379866
-379385
-378836
-378363
-377918
-377434
-376999
-376586
-376037
-375642
-375303
-374835
-374431
-374028
-373641
-373263
-372937
-372623
-372312
-372000
-371785
-371424
-371132
-370856
-370679
-370514
-370353
-370094
-369775
-369644
-369604
-369481
-369337
-369107
-368928
-368901
-368877
-368746
-368527
-368544
-368490
-368411
-368321
-368117
-368126
-368099
-368044
-367904
-367804
-367834
-367792
-367667
-367697
-367594
-367547
-367555
-367596
-367581
-367564
-367454
-367552
-367563
-367558
-367436
-367449
-367604
-367532
-367575
-367499
-367524
-367682
-367579
-367655
-367688
-367755
-367910
-367977
-367955
-367979
-368114
-368226
-368279
-368427
-368534
-368637
-368723
-368944
-369051
-369198
-369319
-369578
-369716
-369852
-369963
-370150
-370327
-370555
-370712
-370838
-371050
-371297
-371426
-371529
-371694
-371801
-372035
-372135
-372267
-372322
-372560
-372766
-372818
-372893
-372988
-373042
-373210
-373301
-373430
-373464
-373570
-373649
-373687
-373702
-373662
-373731
-373897
-373986
-373954
-373986
-373981
-374070
-374082
-374161
-374051
-374155
-374137
-374200
-374206
-374249
-374270
-374286
-374314
-374341
-374306
-374336
-374357
-374415
-374407
-374297
-374411
-374436
-374428
-374590
-374586
-374653
-374662
-374682
-374697
-374686
-374705
-374804
-374823
-374952
-374979
-374891
-375051
-375092
-375148
-375191
-375256
-375411
-375450
-375490
-375546
-375604
-375746
-375854
-375956
-375877
-376092
-376214
-376233
-376311
-376345
-376409
-376539
-376644
-376692
-376759
-376919
-377062
-377076
-377173
-377237
-377363
-377479
-377589
-377665
-377731
-377793
-378015
-378117
-378229
-378199
-378319
-378439
-378647
-378775
-378783
-378919
-379049
-379168
-379224
-379306
-379508
-379652
-379714
-379850
-379803
-380046
-380250
-380364
-380385
-380472
-380658
-380750
-380871
-381084
-381312
-381250
-381368
-381460
-381576
-381573
-381663
-381883
-381972
-382061
-382172
-382321
