PPG
-1113556
-1114025
-1113256
-1112670
-1112978
-1113859
-1114206
-1113527
-1112829
-1113231
-1114019
-1114322
-1113780
-1113161
-1113510
-1114290
-1114648
-1114066
-1113282
-1113528
-1114392
-1114457
-1113900
-1113033
-1113203
-1113836
-1113698
-1113121
-1112220
-1112061
-1112710
-1112716
-1111770
-1110590
-1110492
-1110739
-1110756
-1109755
-1108701
-1108364
-1108826
-1108544
-1107517
-1106439
-1106199
-1106509
-1106431
-1105333
-1104504
-1104228
-1104671
-1104620
-1103814
-1102530
-1102699
-1103175
-1103146
-1102201
-1101354
-1101335
-1102062
-1102069
-1101206
-1100365
-1100518
-1101050
-1101164
-1100489
-1099770
-1099886
-1100540
-1100719
-1100043
-1099282
-1099502
-1100229
-1100386
-1099700
-1098969
-1099163
-1099968
-1100150
-1099533
-1098860
-1099071
-1099867
-1099951
-1099215
-1098663
-1098878
-1099640
-1099774
-1099255
-1098673
-1098746
-1099629
-1099874
-1099193
-1098506
-1098869
-1099653
-1099925
-1099196
-1098532
-1098769
-1099648
-1099923
-1099276
-1098574
-1098931
-1099562
-1099877
-1099280
-1098645
-1098918
-1099768
-1100009
-1099357
-1098617
-1098814
-1099724
-1099846
-1099048
-1098565
-1098782
-1099687
-1099935
-1099215
-1098698
-1099014
-1099703
-1099983
-1099393
-1098691
-1098951
-1100078
-1100080
-1099456
-1098819
-1098957
-1099667
-1098985
-1099429
-1100182
-1100612
-1099968
-1099367
-1099894
-1100798
-1100996
-1100423
-1099867
-1100227
-1101269
-1101700
-1101170
-1100731
-1101243
-1102161
-1102681
-1102164
-1101739
-1102209
-1103147
-1103539
-1102923
-1102468
-1102791
-1103788
-1104201
-1103649
-1103060
-1103259
-1104197
-1104442
-1103853
-1103247
-1103574
-1104385
-1104569
-1103979
-1103349
-1103728
-1104594
-1104789
-1104034
-1103370
-1103673
-1104397
-1104590
-1103832
-1103324
-1103216
-1104247
-1104417
-1103839
-1103152
-1103542
-1104218
-1104332
-1103777
-1103187
-1103501
-1104339
-1104293
-1103761
-1103291
-1103528
-1104425
-1104681
-1104037
-1103453
-1103730
-1104573
-1104736
-1104057
-1103488
-1103882
-1104573
-1104877
-1104151
-1103695
-1104061
-1104747
-1104957
-1104277
-1103657
-1104137
-1105046
-1105235
-1104553
-1104107
-1104434
-1105185
-1105457
-1104852
-1104177
-1104582
-1105513
-1105783
-1105112
-1104607
-1104886
-1105790
-1105969
-1105347
-1104704
-1105229
-1106091
-1106222
-1105500
-1105047
-1105269
-1106252
-1106508
-1105941
-1105241
-1105752
-1106589
-1106722
-1106104
-1105733
-1106115
-1107072
-1107125
-1107523
-1106153
-1106429
-1107206
-1107454
-1106819
-1106275
-1106691
-1107608
-1107885
-1107121
-1106718
-1107119
-1108006
-1108111
-1107384
-1106983
-1107417
-1108278
-1108557
-1107757
-1107248
-1107597
-1108482
-1108436
-1108014
-1107513
-1107955
-1108780
-1109069
-1108340
-1107835
-1108336
-1109201
-1109374
-1108874
-1108420
-1108845
-1109704
-1110054
-1109360
-1108718
-1109176
-1109958
-1110268
-1109525
-1108909
-1109281
-1110150
-1110458
-1109681
-1109159
-1109541
-1110453
-1110652
-1109945
-1109444
-1109947
-1110751
-1110931
-1110370
-1109919
-1110501
-1111234
-1111528
-1110920
-1110464
-1110867
-1111623
-1111898
-1111139
-1110726
-1111088
-1111920
-1112097
-1111444
-1110928
-1111365
-1112265
-1112419
-1111662
-1111069
-1111393
-1112246
-1112459
-1111686
-1111201
-1111631
-1112264
-1112449
-1111790
-1111192
-1111432
-1112296
-1112333
-1111598
-1111076
-1111446
-1112622
-1112509
-1111631
-1111077
-1111419
-1112220
-1112391
-1111599
-1111012
-1111294
-1111997
-1112161
-1111477
-1110975
-1111362
-1112096
-1112147
-1111506
-1111034
-1111302
-1112071
-1112108
-1111378
-1110838
-1111233
-1111906
-1112039
-1111365
-1110932
-1111386
-1112017
-1112146
-1111335
-1110798
-1111297
-1112135
-1112147
-1111632
-1110986
-1111543
-1112243
-1112414
-1111729
-1111331
-1111696
-1112465
-1112713
-1112063
-1111472
-1112024
-1112847
-1112998
-1112279
-1111768
-1112350
-1113010
-1113250
-1112669
-1112637
-1112780
-1113441
-1113631
-1112955
-1112478
-1112765
-1113740
-1113818
-1113169
-1112790
-1113072
-1113842
-1114109
-1113368
-1112910
-1113237
-1114185
-1114304
-1113624
-1113102
-1113525
-1114435
-1114426
-1113831
-1113402
-1113805
-1114727
-1114897
-1114176
-1113812
-1114194
-1115155
-1115287
-1114705
-1114191
-1114764
-1115604
-1115762
-1115012
-1114570
-1114974
-1115883
-1115831
-1115061
-1114526
-1114806
-1115517
-1115296
-1114361
-1113655
-1113785
-1114307
-1114021
-1112918
-1112048
-1112096
-1112540
-1112074
-1110851
-1109878
-1109832
-1110258
-1109733
-1108554
-1107715
-1107835
-1108280
-1107873
-1106666
-1105911
-1105967
-1106437
-1106225
-1105186
-1104348
-1104527
-1105201
-1105009
-1104114
-1103602
-1103777
-1104353
-1104307
-1103572
-1102972
-1103426
-1104116
-1104059
-1103452
-1102986
-1103381
-1104082
-1104145
-1103388
-1103024
-1103488
-1104503
-1104580
-1103912
-1103368
-1103966
-1104763
-1105018
-1104013
-1103770
-1104229
-1105113
-1105332
-1104683
-1104182
-1104743
-1105623
-1105697
-1104882
-1104416
-1104799
-1105685
-1105787
-1105001
-1104594
-1104904
-1106006
-1106173
-1105457
-1104923
-1105488
-1106428
-1106381
-1105665
-1105357
-1105872
-1106582
-1106807
-1105934
-1105646
-1106020
-1106929
-1107030
-1106251
-1105875
-1106340
-1107032
-1107016
-1106288
-1105878
-1106412
-1107391
-1107384
-1106651
-1106182
-1106692
-1107564
-1107620
-1107725
-1106714
-1107024
-1108028
-1107963
-1107230
-1106855
-1107540
-1108462
-1108537
-1107865
-1107430
-1108107
-1109138
-1109271
-1108631
-1108258
-1108769
-1109720
-1109849
-1109243
-1108952
-1109627
-1110509
-1110671
-1110036
-1109614
-1110205
-1111084
-1111336
-1110398
-1110209
-1110795
-1111843
-1111851
-1111212
-1110775
-1111282
-1112122
-1112193
-1111510
-1111272
-1111752
-1112579
-1112493
-1111972
-1111576
-1112070
-1112896
-1112614
-1111963
-1111633
-1112174
-1112907
-1112882
-1111982
-1111606
-1111966
-1112726
-1112662
-1111769
-1111272
-1111871
-1112602
-1112468
-1111605
-1111060
-1111529
-1111889
-1111968
-1111120
-1110688
-1111092
-1111802
-1111750
-1110514
-1110309
-1110827
-1111476
-1111368
-1110481
-1110069
-1110512
-1111111
-1110912
-1110074
-1109531
-1110097
-1110764
-1110779
-1109806
-1109497
-1109908
-1110726
-1110295
-1109717
-1109417
-1109971
-1110654
-1110640
-1109745
-1109418
-1109878
-1110654
-1110512
-1109769
-1109282
-1109854
-1110813
-1110735
-1109922
-1109579
-1110020
-1110847
-1110786
-1109970
-1109585
-1110059
-1110957
-1111034
-1110239
-1109917
-1110432
-1111351
-1111300
-1110550
-1110227
-1110677
-1111497
-1111500
-1110834
-1110544
-1111070
-1111886
-1111926
-1111290
-1110910
-1111571
-1112365
-1112469
-1111610
-1111439
-1111921
-1112848
-1112819
-1112144
-1111643
-1112245
-1113094
-1113213
-1112538
-1112226
-1112771
-1113684
-1113661
-1112918
-1112552
-1113121
-1113855
-1113585
-1113160
-1112930
-1113461
-1114393
-1114264
-1113458
-1113096
-1113669
-1114598
-1114604
-1113879
-1113618
-1114300
-1115142
-1115035
-1114353
-1113957
-1114503
-1115429
-1115334
-1114756
-1114480
-1115010
-1115815
-1115939
-1115168
-1115910
-1115804
-1116490
-1116468
-1115810
-1115463
-1116059
-1116924
-1116643
-1116231
-1116086
-1116717
-1117567
-1117441
-1116743
-1116430
-1117056
-1117980
-1117896
-1117067
-1116629
-1117337
-1118111
-1118142
-1117173
-1116982
-1117392
-1118122
-1117979
-1117263
-1116870
-1117475
-1118128
-1118166
-1117412
-1116917
-1117567
-1118392
-1118158
-1117447
-1116991
-1117492
-1118358
-1118355
-1117539
-1117232
-1117921
-1118501
-1118403
-1117680
-1117361
-1118062
-1118840
-1118709
-1117913
-1117619
-1118244
-1119040
-1118905
-1118068
-1117764
-1118278
-1118908
-1118897
-1118179
-1117786
-1118457
-1119153
-1118993
-1118219
-1117559
-1118484
-1119327
-1119136
-1118423
-1117960
-1118647
-1119337
-1119267
-1118412
-1118130
-1118703
-1119501
-1119320
-1118522
-1118269
-1118831
-1119702
-1119501
-1118666
-1118427
-1118989
-1119269
-1119336
-1118602
-1118441
-1119031
-1119787
-1119553
-1118710
-1118547
-1118709
-1119705
-1119656
-1118802
-1118491
-1119062
-1119943
-1119852
-1119157
-1118781
-1119362
-1120176
-1120059
-1119311
-1119080
-1119624
-1120389
-1120334
-1119524
-1119234
-1119899
-1120608
-1120473
-1119523
-1119347
-1119638
-1120465
-1120131
-1119164
-1118768
-1119154
-1119532
-1119122
-1117961
-1117215
-1117339
-1117747
-1117024
-1115794
-1114952
-1115077
-1115316
-1114558
-1113270
-1112359
-1112453
-1112608
-1111895
-1110547
-1109871
-1110011
-1110353
-1109727
-1108503
-1107846
-1108117
-1108352
-1107800
-1106761
-1106067
-1106309
-1106851
-1106311
-1105208
-1104722
-1105071
-1105705
-1105292
-1104159
-1103715
-1104119
-1104716
-1104470
-1103399
-1102882
-1103368
-1103926
-1103634
-1102785
-1102334
-1102912
-1103657
-1103205
-1102432
-1102194
-1102592
-1103353
-1102998
-1102216
-1101942
-1102472
-1103054
-1102756
-1101953
-1101632
-1102147
-1102877
-1102670
-1101666
-1101528
-1101977
-1102713
-1102468
-1101659
-1101525
-1102024
-1102654
-1102399
-1101527
-1101279
-1101910
-1102479
-1102237
-1101505
-1101191
-1101734
-1102398
-1102144
-1101241
-1100981
-1101504
-1102156
-1101888
-1101065
-1100964
-1101438
-1102153
-1101843
-1100999
-1100821
-1101378
-1102008
-1101817
-1100936
-1101248
-1101430
-1102660
-1101881
-1100961
-1100633
-1101364
-1101991
-1101747
-1101015
-1100625
-1101245
-1101955
-1101879
-1100972
-1100792
-1101446
-1102383
-1102070
-1101467
-1101176
-1102237
-1102879
-1102723
-1101882
-1101778
-1102384
-1103286
-1103135
-1102384
-1102935
-1103042
-1103721
-1103565
-1102828
-1102593
-1103199
-1103977
-1103802
-1103031
-1102947
-1103478
-1104165
-1103937
-1103230
-1102948
-1103694
-1104048
-1103958
-1103137
-1102903
-1103488
-1104206
-1103902
-1103067
-1102739
-1103436
-1104040
-1103731
-1102959
-1102735
-1103049
-1103808
-1103535
-1102522
-1102244
-1102880
-1103491
-1103171
-1102303
-1101982
-1102525
-1103065
-1102815
-1102023
-1101805
-1102291
-1102822
-1102610
-1101628
-1101515
-1102073
-1102762
-1102467
-1101577
-1101339
-1102103
-1102725
-1102484
-1101766
-1101522
-1102163
-1102920
-1102775
-1101982
-1101952
-1102801
-1103659
-1103503
-1102786
-1102767
-1103551
-1104458
-1104195
-1103701
-1103670
-1104340
-1105152
-1105010
-1104272
-1104216
-1104985
-1105663
-1105542
-1104804
-1104698
-1105332
-1106020
-1105720
-1104924
-1104854
-1105440
-1106173
-1105837
-1105049
-1104887
-1105610
-1106279
-1105959
-1105105
-1104843
-1105656
-1106304
-1106116
-1105388
-1105141
-1105831
-1106509
-1106245
-1105342
-1105395
-1106069
-1106922
-1106715
-1105965
-1105856
-1106643
-1107277
-1107024
-1106237
-1106248
-1107093
-1108559
-1107714
-1106804
-1106768
-1107566
-1108349
-1108021
-1107295
-1107231
-1108064
-1108913
-1108679
-1107866
-1107712
-1108526
-1109182
-1109079
-1108309
-1108077
-1108848
-1109594
-1109293
-1108326
-1108149
-1108791
-1109379
-1109007
-1107912
-1107741
-1108185
-1108682
-1108009
-1107049
-1106796
-1107217
-1107773
-1107196
-1106081
-1105839
-1106180
-1106630
-1106136
-1105128
-1104763
-1105252
-1107263
-1109346
-1108889
-1108126
-1108097
-1108501
-1108323
-1107617
-1107428
-1107727
-1108342
-1108019
-1107117
-1106903
-1107492
-1107944
-1107569
-1106752
-1106591
-1107211
-1107661
-1107228
-1106164
-1106208
-1106873
-1107555
-1107288
-1106836
-1107005
-1107677
-1108511
-1108368
-1107664
-1107712
-1108495
-1109219
-1108909
-1108175
-1108162
-1108786
-1109478
-1109286
-1108473
-1108296
-1109059
-1109627
-1109318
-1108417
-1108159
-1108683
-1108554
-1107767
-1107256
-1107553
-1108283
-1108423
-1107668
-1107276
-1107526
-1108070
-1108331
-1107957
-1107388
-1107371
-1108021
-1108494
-1109040
-1107843
-1107619
-1108153
-1108718
-1108446
-1107831
-1107895
-1108593
-1109342
-1108887
-1108159
-1107911
-1108717
-1109492
-1109339
-1108485
-1108311
-1109014
-1109669
-1109303
-1108488
-1108267
-1108851
-1109450
-1108812
-1108027
-1107810
-1108494
-1109132
-1108702
-1107825
-1107629
-1108382
-1109686
-1108977
-1108120
-1108086
-1108680
-1109276
-1109025
-1108364
-1108347
-1109118
-1109714
-1109397
-1108648
-1108753
-1109523
-1110387
-1110315
-1109879
-1110029
-1111171
-1112196
-1112023
-1111350
-1111388
-1112319
-1113009
-1112843
-1112135
-1112101
-1112756
-1113055
-1112077
-1110144
-1109572
-1110601
-1111563
-1110761
-1109230
-1108916
-1109671
-1110067
-1109092
-1107822
-1107461
-1107922
-1108097
-1107176
-1105951
-1105483
-1105856
-1106090
-1105174
-1104012
-1103565
-1103885
-1104033
-1103255
-1101939
-1101338
-1101533
-1101552
-1100639
-1099201
-1098539
-1098893
-1099053
-1098089
-1096860
-1096368
-1096778
-1097114
-1096403
-1095252
-1095006
-1095359
-1095827
-1095209
-1094238
-1093868
-1094452
-1095179
-1095404
-1095311
-1095130
-1095233
-1095540
-1095310
-1094841
-1094803
-1095127
-1095452
-1095058
-1094568
-1094467
-1095030
-1095475
-1095014
-1094228
-1094338
-1095042
-1095474
-1094931
-1094192
-1094054
-1094669
-1095372
-1094936
-1094169
-1094056
-1094757
-1095216
-1094784
-1094135
-1094151
-1094852
-1095354
-1094962
-1094313
-1094147
-1094907
-1095419
-1095035
-1094169
-1094235
-1095154
-1095933
-1095365
-1094533
-1094468
-1095194
-1095573
-1095251
-1094652
-1094713
-1095451
-1095977
-1095453
-1094726
-1094805
-1095731
-1096307
-1095782
-1095023
-1095020
-1095811
-1096473
-1096066
-1095338
-1095194
-1095973
-1096650
-1096129
-1095458
-1095514
-1096385
-1096846
-1096531
-1095793
-1095805
-1096620
-1097274
-1096853
-1096227
-1096305
-1097112
-1097643
-1097280
-1096812
-1096971
-1097700
-1098351
-1097894
-1097420
-1097604
-1098531
-1099316
-1098819
-1098303
-1098489
-1099986
-1100210
-1099363
-1098827
-1098969
-1099823
-1100447
-1099998
-1099502
-1099619
-1100179
-1100573
-1100287
-1099661
-1099773
-1100523
-1101152
-1100592
-1099753
-1099953
-1100667
-1101075
-1100628
-1099978
-1100074
-1100817
-1101296
-1100778
-1100015
-1100087
-1100755
-1101288
-1100826
-1099958
-1099902
-1100659
-1101107
-1100770
-1099882
-1099946
-1100661
-1101260
-1100724
-1099901
-1099954
-1100625
-1101171
-1100741
-1099960
-1100017
-1100705
-1101118
-1100696
-1099930
-1100022
-1100831
-1101354
-1100933
-1100143
-1100101
-1100979
-1101237
-1101036
-1100351
-1100397
-1101249
-1101749
-1101314
-1100500
-1100695
-1101397
-1101995
-1101514
-1100718
-1100868
-1101272
-1101892
-1101516
-1100708
-1100787
-1101646
-1102025
-1101759
-1100974
-1100875
-1101585
-1101881
-1101489
-1100930
-1101047
-1101676
-1102286
-1101765
-1101112
-1101184
-1101983
-1102289
-1101767
-1101089
-1101225
-1101969
-1102419
-1101902
-1101183
-1101251
-1102051
-1102677
-1102248
-1101497
-1101559
-1102258
-1102879
-1102343
-1101782
-1101715
-1102579
-1103047
-1102696
-1101856
-1101974
-1102727
-1103272
-1102540
-1102027
-1102155
-1102978
-1103505
-1103015
-1102317
-1102534
-1103320
-1103726
-1103331
-1102634
-1102818
-1103431
-1104002
-1103398
-1102700
-1102764
-1103661
-1104106
-1103697
-1102934
-1102972
-1103731
-1104263
-1103647
-1102896
-1103012
-1103903
-1104289
-1103906
-1103077
-1103342
-1104144
-1104672
-1104041
-1103423
-1103469
-1104350
-1104910
-1104373
-1103778
-1103904
-1104722
-1105330
-1104892
-1104108
-1104350
-1105198
-1105635
-1105248
-1104487
-1104701
-1105501
-1105996
-1105504
-1104920
-1105008
-1105937
-1106373
-1105917
-1105299
-1105320
-1106198
-1106596
-1106186
-1105552
-1105687
-1106559
-1107087
-1106544
-1105923
-1106087
-1106975
-1107419
-1106856
-1106295
-1106418
-1107352
-1107763
-1107351
-1106599
-1106714
-1107606
-1108100
-1107527
-1107015
-1107139
-1107835
-1108440
-1107845
-1107199
-1107332
-1108159
-1108725
-1108190
-1107470
-1107652
-1108496
-1108949
-1108397
-1107919
-1108154
-1109057
-1109623
-1109053
-1108513
-1108685
-1109426
-1109984
-1109493
-1108792
-1108998
-1109889
-1110330
-1109808
-1109171
-1109318
-1110103
-1110492
-1109888
-1109110
-1109319
-1110091
-1110412
-1109844
-1109206
-1109389
-1110241
-1110598
-1110149
-1109494
-1109628
-1110428
-1110798
-1110313
-1109630
-1109715
-1110621
-1111027
-1110459
-1109672
-1110084
-1110729
-1111140
-1110607
-1109991
-1110082
-1110886
-1111499
-1110866
-1110142
-1110438
-1111292
-1111735
-1111319
-1110626
-1110893
-1111613
-1112023
-1111480
-1110708
-1110679
-1111355
-1111773
-1111042
-1110000
-1109916
-1110365
-1110484
-1109569
-1108453
-1108218
-1108732
-1108728
-1107772
-1106483
-1106363
-1106679
-1106676
-1105561
-1104424
-1104213
-1104543
-1104474
-1103433
-1102302
-1102296
-1102672
-1102734
-1101759
-1100743
-1100644
-1101056
-1101301
-1101216
-1101440
-1101559
-1101616
-1101138
-1100197
-1099895
-1100140
-1100454
-1099708
-1099110
-1099049
-1099592
-1099719
-1098944
-1098219
-1098236
-1098821
-1099151
-1098626
-1097898
-1098006
-1098581
-1098743
-1098133
-1097292
-1097329
-1098074
-1098362
-1097674
-1096701
-1096959
-1097849
-1098184
-1097619
-1096894
-1096955
-1097660
-1098035
-1097335
-1096667
-1096885
-1097498
-1097888
-1097164
-1096436
-1096660
-1097362
-1097677
-1097212
-1096528
-1096641
-1097335
-1097573
-1096995
-1096368
-1096735
-1097462
-1097793
-1097101
-1096375
-1096582
-1097314
-1097604
-1097113
-1096533
-1096718
-1097437
-1097820
-1097367
-1096665
-1096876
-1097656
-1098231
-1097797
-1097000
-1097461
-1098406
-1098993
-1098544
-1097887
-1098286
-1099185
-1099475
-1098946
-1098375
-1098555
-1099457
-1099908
-1099191
-1098523
-1098785
-1099639
-1100036
-1099373
-1098835
-1099056
-1099754
-1100108
-1099517
-1099069
-1099240
-1100177
-1100605
-1100123
-1099120
-1099640
-1100557
-1101048
-1100398
-1099089
-1098504
-1099260
-1099944
-1099752
-1099377
-1099408
-1099924
-1100353
-1100009
-1099389
-1099562
-1100420
-1100773
-1100020
-1099532
-1099892
-1100780
-1101080
-1100613
-1100007
-1100334
-1100948
-1101094
-1100836
-1099671
-1099550
-1100172
-1100351
-1099612
-1098866
-1099226
-1100085
-1100356
-1099705
-1099167
-1099518
-1101369
-1101286
-1100628
-1100089
-1101584
-1101043
-1100567
-1100800
-1101609
-1101836
-1101353
-1100674
-1101000
-1101767
-1102083
-1101398
-1100569
-1100811
-1101705
-1101917
-1101223
-1100576
-1100807
-1101630
-1101796
-1101129
-1100611
-1100741
-1101636
-1101865
-1101321
-1100698
-1100827
-1101748
-1102086
-1101411
-1100965
-1101317
-1102090
-1102395
-1101990
-1101474
-1101810
-1102691
-1103057
-1102433
-1101871
-1102319
-1103105
-1103371
-1102927
-1102476
-1102840
-1103634
-1104060
-1103540
-1102829
-1103121
-1104135
-1104559
-1103884
-1103373
-1103701
-1104617
-1104873
-1104267
-1103705
-1103950
-1104183
-1103977
-1103314
-1103094
-1103660
-1104545
-1104769
-1103946
-1103503
-1104032
-1104839
-1105138
-1104364
-1104685
-1104563
-1105254
-1105516
-1104840
-1104168
-1104655
-1105590
-1105871
-1105214
-1104657
-1104973
-1105918
-1106071
-1105460
-1104867
-1105211
-1106111
-1106408
-1105945
-1105355
-1105697
-1106457
-1106676
-1106108
-1105531
-1105941
-1106797
-1107119
-1106463
-1105966
-1106300
-1107245
-1107408
-1106753
-1106155
-1106610
-1107432
-1107784
-1107161
-1106494
-1106819
-1107755
-1107931
-1107813
-1106978
-1107176
-1108066
-1108279
-1107704
-1107115
-1107456
-1108181
-1108445
-1107844
-1107266
-1107641
-1108553
-1108682
-1108205
-1107572
-1107811
-1108557
-1108897
-1108230
-1107706
-1108047
-1108909
-1109081
-1108521
-1107837
-1108204
-1109045
-1109305
-1108589
-1107955
-1108298
-1109121
-1109356
-1108829
-1108241
-1108555
-1109355
-1109487
-1108960
-1108471
-1108650
-1109529
-1109659
-1109137
-1108506
-1108810
-1109548
-1109892
-1109253
-1108664
-1108911
-1109632
-1109899
-1109292
-1108801
-1109130
-1110045
-1110273
-1109665
-1109084
-1109438
-1110214
-1110471
-1109894
-1109254
-1109686
-1110591
-1110881
-1110175
-1109618
-1109956
-1110863
-1111024
-1110413
-1110011
-1110265
-1111162
-1111353
-1110779
-1110297
-1110735
-1111556
-1111729
-1111075
-1110555
-1111059
-1111993
-1112147
-1111489
-1111036
-1111530
-1112475
-1112615
-1112045
-1111532
-1111905
-1112732
-1113047
-1112329
-1111924
-1112259
-1113239
-1113515
-1112842
-1112341
-1112790
-1113659
-1113782
-1113188
-1112696
-1113042
-1113883
-1113963
-1113307
-1112734
-1113121
-1113795
-1113942
-1113339
-1112713
-1112810
-1113342
-1113479
-1112641
-1112026
-1112214
-1112645
-1112629
-1111610
-1110746
-1110860
-1111208
-1111028
-1109884
-1108995
-1108958
-1109340
-1109120
-1107844
-1106916
-1106807
-1107177
-1106846
-1105377
-1104637
-1104523
-1105063
-1104789
-1103775
-1102718
-1102707
-1103059
-1103002
-1101876
-1101033
-1101094
-1101685
-1101454
-1100503
-1099798
-1099953
-1100519
-1100571
-1099732
-1099068
-1099234
-1099911
-1099992
-1099177
-1098483
-1098729
-1099492
-1099544
-1098782
-1098155
-1098538
-1099210
-1099255
-1098592
-1097962
-1098167
-1098904
-1099124
-1098259
-1097865
-1098108
-1098769
-1098914
-1098236
-1097628
-1097928
-1098675
-1098745
-1098080
-1097565
-1097974
-1098765
-1098812
-1097988
-1097394
-1097675
-1098506
-1098710
-1097965
-1097306
-1097668
-1098443
-1098538
-1097765
-1097180
-1097564
-1098439
-1098542
-1097915
-1097374
-1097613
-1098459
-1098613
-1097920
-1097226
-1097681
-1098588
-1098717
-1097841
-1097396
-1097759
-1098593
-1098557
-1097945
-1097501
-1098116
-1098658
-1098869
-1098150
-1097701
-1098028
-1099008
-1099155
-1098500
-1097956
-1098445
-1099303
-1099561
-1098929
-1098477
-1098807
-1099626
-1099845
-1099236
-1098910
-1099466
-1100295
-1100431
-1099870
-1099546
-1100089
-1100893
-1101024
-1100360
-1100072
-1100535
-1101820
-1101772
-1100969
-1100560
-1101026
-1101899
-1102120
-1101371
-1101046
-1101416
-1102216
-1102474
-1102687
-1101482
-1101591
-1102489
-1102490
-1101795
-1101234
-1101457
-1102158
-1101657
-1100537
-1100152
-1100982
-1101923
-1101986
-1101170
-1100417
-1100709
-1101762
-1101977
-1101096
-1101373
-1101069
-1101735
-1101798
-1101037
-1100596
-1101075
-1101774
-1101787
-1101017
-1100642
-1100984
-1101778
-1101932
-1101196
-1100757
-1101194
-1101967
-1101867
-1101106
-1101469
-1101250
-1101925
-1101958
-1101070
-1100518
-1101017
-1101870
-1101883
-1101080
-1100608
-1100919
-1101712
-1101911
-1101157
-1100818
-1101143
-1102053
-1102145
-1101449
-1101032
-1101534
-1102301
-1102238
-1101600
-1101206
-1101469
-1102306
-1102519
-1101696
-1101245
-1101763
-1102564
-1102554
-1101803
-1101296
-1101852
-1102654
-1102643
-1101988
-1101449
-1101744
-1102640
-1102576
-1101952
-1101323
-1101867
-1102726
-1102827
-1101972
-1101430
-1102040
-1102564
-1102865
-1102187
-1101678
-1102220
-1103134
-1103272
-1102466
-1102087
-1102641
-1103485
-1103551
-1102849
-1102395
-1103035
-1103878
-1103893
-1103318
-1102964
-1103346
-1104286
-1104314
-1103547
-1103220
-1103682
-1104554
-1104781
-1104006
-1103633
-1103988
-1104858
-1104886
-1103996
-1103854
-1104433
-1105294
-1105366
-1104734
-1104448
-1104886
-1105746
-1105715
-1105047
-1104603
-1105209
-1106055
-1105998
-1105352
-1104904
-1105381
-1106257
-1106432
-1105643
-1105272
-1105667
-1106648
-1106823
-1106087
-1105685
-1106018
-1106851
-1107064
-1106207
-1105858
-1106374
-1107208
-1107376
-1106669
-1106139
-1106633
-1107414
-1107547
-1106778
-1106453
-1106879
-1107791
-1107819
-1107135
-1106743
-1107351
-1108124
-1108284
-1107504
-1107141
-1107723
-1108605
-1108591
-1107910
-1107578
-1108080
-1108949
-1108618
-1108022
-1107769
-1108280
-1109191
-1109196
-1108067
-1107984
-1108537
-1109567
-1109633
-1108912
-1108584
-1108916
-1109765
-1109882
-1109075
-1108826
-1109219
-1110174
-1110056
-1109321
-1108951
-1109469
-1110419
-1110455
-1109745
-1109255
-1109723
-1110670
-1110591
-1109938
-1109418
-1109904
-1110695
-1110848
-1110015
-1109606
-1110133
-1111018
-1110945
-1110100
-1109784
-1110168
-1111093
-1111147
-1110327
-1109949
-1110309
-1111097
-1111158
-1110327
-1110053
-1110469
-1111371
-1111366
-1110692
-1110299
-1110696
-1111594
-1111699
-1110892
-1110390
-1110867
-1111846
-1111536
-1111059
-1110747
-1111249
-1111931
-1111955
-1111124
-1110786
-1111111
-1111869
-1111902
-1111080
-1110582
-1110960
-1111373
-1111317
-1110330
-1109609
-1109740
-1110268
-1110178
-1108956
-1108217
-1108279
-1108639
-1108353
-1107212
-1106282
-1106390
-1106834
-1106327
-1105151
-1104262
-1104245
-1104734
-1104235
-1103203
-1102503
-1102564
-1102829
-1102582
-1101504
-1100783
-1100912
-1101472
-1101069
-1099990
-1099425
-1099564
-1100118
-1099948
-1098849
-1098258
-1098694
-1099219
-1099065
-1098028
-1097488
-1098023
-1098598
-1098515
-1097647
-1097018
-1097500
-1098240
-1098077
-1097163
-1096644
-1097224
-1097827
-1097759
-1096548
-1096369
-1096909
-1097566
-1097427
-1096631
-1096288
-1096646
-1097461
-1097137
-1097235
-1096363
-1096925
-1097517
-1097280
-1096357
-1095911
-1096460
-1097205
-1097227
-1096448
-1096158
-1096541
-1097140
-1096835
-1096295
-1095950
-1096570
-1097349
-1097143
-1096404
-1096090
-1096556
-1097331
-1097367
-1096475
-1096031
-1096457
-1097338
-1097264
-1096481
-1096085
-1096664
-1097318
-1097157
-1096531
-1096055
-1096693
-1097319
-1097236
-1096508
-1096136
-1096675
-1097530
-1097402
-1096764
-1096549
-1096973
-1097713
-1097736
-1096918
-1096713
-1097256
-1098198
-1098137
-1097351
-1097121
-1097790
-1098723
-1098730
-1098019
-1097655
-1098242
-1099234
-1099279
-1098627
-1098266
-1098961
-1099893
-1099814
-1099206
-1099014
-1099560
-1100497
-1100384
-1099845
-1099678
-1100242
-1101145
-1101249
-1100332
-1100134
-1100794
-1101646
-1101600
-1100981
-1100631
-1101287
-1102047
-1101917
-1101152
-1101474
-1101583
-1102397
-1102200
-1101476
-1101201
-1101650
-1102408
-1102368
-1101529
-1101219
-1101865
-1102506
-1102401
-1101632
-1101328
-1101944
-1102630
-1102603
-1101928
-1101599
-1102008
-1102720
-1102565
-1101940
-1101559
-1102153
-1102931
-1102772
-1101940
-1101723
-1102155
-1103040
-1102856
-1102061
-1101893
-1102254
-1103182
-1103087
-1102336
-1101975
-1102477
-1103161
-1103079
-1102416
-1102113
-1103391
-1103702
-1103510
-1102669
-1102391
-1102871
-1103585
-1103579
-1102941
-1102653
-1103297
-1103929
-1103964
-1103060
-1102750
-1103414
-1104165
-1104122
-1103258
-1102984
-1103518
-1104468
-1104323
-1103577
-1103269
-1103628
-1104563
-1104518
-1103788
-1103586
-1104216
-1104936
-1104896
-1104186
-1103930
-1104544
-1105306
-1105351
-1104529
-1104376
-1104968
-1105882
-1105844
-1104922
-1104708
-1105348
-1106119
-1106247
-1105498
-1105214
-1105928
-1106517
-1106516
-1105929
-1105817
-1106407
-1107053
-1107021
-1106336
-1106087
-1106789
-1107554
-1107523
-1106708
-1106427
-1106737
-1107732
-1107592
-1106967
-1106654
-1107282
-1108159
-1108013
-1107220
-1106890
-1107294
-1108275
-1108072
-1107328
-1107107
-1107720
-1108582
-1108458
-1107579
-1107460
-1107889
-1108676
-1108646
-1107795
-1107706
-1108288
-1109073
-1108819
-1108922
-1108092
-1108521
-1109263
-1109054
-1108312
-1108181
-1108825
-1109394
-1109415
-1108557
-1108367
-1109041
-1109847
-1109703
-1108903
-1108534
-1109254
-1110014
-1109872
-1109118
-1109398
-1109575
-1110262
-1110110
-1109377
-1109128
-1109822
-1110520
-1110543
-1109758
-1109524
-1110157
-1110942
-1110573
-1109957
-1109900
-1110485
-1111100
-1110973
-1110317
-1110075
-1111212
-1111560
-1111414
-1110778
-1110621
-1111139
-1111926
-1111862
-1111089
-1110820
-1111420
-1112188
-1112107
-1111335
-1111198
-1111929
-1112590
-1112445
-1111895
-1111718
-1112293
-1112998
-1112828
-1112092
-1111948
-1112676
-1113520
-1113323
-1112607
-1112347
-1112859
-1113616
-1113587
-1112857
-1112481
-1113176
-1113977
-1113876
-1113118
-1112902
-1113439
-1114319
-1112928
-1113750
-1114542
-1114306
-1113623
-1113338
-1114070
-1114915
-1114694
-1113959
-1113737
-1114545
-1115305
-1115172
-1114476
-1114266
-1114891
-1115624
-1115423
-1114776
-1114635
-1115302
-1115945
-1115765
-1115142
-1114782
-1115505
-1116207
-1115871
-1115140
-1114928
-1115436
-1116067
-1115660
-1114724
-1114274
-1114648
-1115216
-1114711
-1113438
-1113160
-1113478
-1113826
-1113204
-1111978
-1111317
-1111581
-1111737
-1111274
-1109963
-1109247
-1109396
-1109725
-1109000
-1107724
-1107193
-1107357
-1107598
-1106918
-1106428
-1105402
-1105455
-1105935
-1105340
-1104196
-1103674
-1104041
-1104393
-1103805
-1102790
-1102328
-1102767
-1103249
-1102874
-1101877
-1101255
-1101859
-1102446
-1101905
-1101069
-1100629
-1100962
-1101636
-1101300
-1100532
-1100134
-1100621
-1101273
-1100966
-1100113
-1099637
-1100227
-1100808
-1100599
-1099802
-1099490
-1099947
-1100619
-1100374
-1099452
-1099634
-1099770
-1100348
-1100173
-1099242
-1099053
-1099522
-1099924
-1099710
-1099024
-1098695
-1099373
-1099926
-1099585
-1098707
-1098523
-1099113
-1099699
-1099281
-1098537
-1098272
-1098790
-1099399
-1099054
-1098234
-1097888
-1098544
-1099185
-1099287
-1097956
-1097610
-1098211
-1098815
-1098604
-1097671
-1097509
-1098113
-1098782
-1098279
-1097675
-1097382
-1098050
-1098592
-1098297
-1097621
-1097363
-1097610
-1098663
-1098368
-1097495
-1097236
-1097812
-1098613
-1098454
-1097628
-1097535
-1098085
-1098893
-1098623
-1097761
-1097605
-1098291
-1099077
-1098886
-1098177
-1098126
-1098735
-1099454
-1099321
-1098650
-1098430
-1099262
-1100128
-1099846
-1099134
-1099020
-1099784
-1100625
-1100317
-1099614
-1099617
-1100416
-1101152
-1100914
-1100283
-1100186
-1100913
-1101688
-1101442
-1100776
-1100772
-1101276
-1101940
-1101776
-1100999
-1100912
-1101454
-1102259
-1101881
-1101227
-1101010
-1101666
-1102434
-1102088
-1101322
-1101139
-1101786
-1102442
-1102258
-1101402
-1101244
-1101965
-1102819
-1102336
-1101467
-1101361
-1101966
-1102582
-1102335
-1101501
-1101084
-1101859
-1102460
-1102189
-1101447
-1101211
-1101815
-1102411
-1102160
-1101385
-1101136
-1101899
-1102563
-1102143
-1101401
-1101220
-1101725
-1102405
-1101688
-1101221
-1101119
-1101675
-1102351
-1102083
-1101290
-1101078
-1101768
-1102533
-1102266
-1101490
-1101871
-1102080
-1102749
-1102388
-1101484
-1101320
-1101982
-1102743
-1102460
-1101665
-1101573
-1102334
-1103013
-1102672
-1101835
-1101729
-1102385
-1103266
-1102935
-1102186
-1102140
-1103198
-1103616
-1103202
-1102426
-1102272
-1103108
-1103663
-1103490
-1102815
-1102740
-1103351
-1103936
-1103860
-1103168
-1102751
-1103586
-1104310
-1104024
-1103299
-1103170
-1104037
-1104649
-1104523
-1103655
-1103555
-1104349
-1105050
-1104645
-1103911
-1103743
-1104554
-1105192
-1104895
-1104238
-1104209
-1104839
-1105474
-1105180
-1104551
-1104448
-1105185
-1105871
-1105532
-1104527
-1104669
-1105361
-1106022
-1105829
-1104969
-1104889
-1105721
-1106259
-1106054
-1105268
-1105139
-1105801
-1106580
-1106182
-1105408
-1105388
-1105966
-1106732
-1106477
-1105784
-1105574
-1106286
-1106927
-1106646
-1105879
-1105844
-1106552
-1107311
-1107061
-1106290
-1106224
-1106820
-1107651
-1107234
-1106491
-1106423
-1107106
-1107829
-1107541
-1106374
-1106615
-1107213
-1107897
-1107524
-1106825
-1106830
-1107489
-1108167
-1107899
-1107178
-1106973
-1107647
-1108341
-1107984
-1108064
-1107532
-1108125
-1108662
-1108371
-1107516
-1107531
-1108158
-1108773
-1108521
-1107712
-1107625
-1108433
-1109065
-1108719
-1107899
-1107808
-1108509
-1109149
-1108802
-1108181
-1108041
-1108711
-1109418
-1109050
-1108247
-1108235
-1108832
-1109578
-1109316
-1108551
-1108376
-1109032
-1109777
-1109313
-1108592
-1108435
-1109244
-1109876
-1109304
-1108689
-1108692
-1109377
-1110146
-1109789
-1109092
-1108944
-1109628
-1110077
-1109915
-1109177
-1109261
-1109911
-1110635
-1110306
-1109646
-1109557
-1109961
-1110980
-1110657
-1109983
-1109935
-1110755
-1111175
-1111047
-1110366
-1110209
-1110903
-1111529
-1111236
-1110410
-1110394
-1111070
-1111661
-1111342
-1110613
-1110128
-1110841
-1111464
-1111099
-1110064
-1110004
-1110496
-1110877
-1110147
-1109089
-1108817
-1109204
-1109310
-1108679
-1107579
-1107120
-1107361
-1107536
-1106644
-1105246
-1104664
-1105092
-1105193
-1104359
-1103159
-1102564
-1102739
-1102823
-1102090
-1100816
-1100386
-1100756
-1100848
-1100033
-1098955
-1098476
-1098860
-1099072
-1098481
-1097490
-1096982
-1097430
-1097878
-1097201
-1096268
-1095905
-1096285
-1096875
-1096334
-1095359
-1095161
-1095860
-1096215
-1095742
-1094748
-1094606
-1095323
-1095875
-1095388
-1094446
-1094445
-1094901
-1095498
-1095082
-1094156
-1093969
-1094624
-1095220
-1094812
-1094026
-1093878
-1094521
-1095044
-1094608
-1093782
-1093830
-1094535
-1094898
-1094577
-1093746
-1093725
-1094483
-1094872
-1095038
-1093815
-1093684
-1094303
-1094905
-1094378
-1094326
-1093747
-1094312
-1094793
-1094284
-1093497
-1093547
-1094296
-1094804
-1094340
-1093478
-1093557
-1094260
-1094838
-1094506
-1093712
-1093683
-1094315
-1094949
-1094296
-1093550
-1093610
-1094221
-1094695
-1094381
-1093693
-1093587
-1094439
-1094944
-1094588
-1093879
-1093832
-1094474
-1095106
-1094774
-1093885
-1094001
-1094889
-1095476
-1094935
-1094338
-1094397
-1095193
-1095833
-1095550
-1094815
-1094808
-1095634
-1096231
-1095873
-1095159
-1096044
-1096290
-1096481
-1096268
-1095533
-1095646
-1096497
-1097050
-1096775
-1095960
-1095912
-1096644
-1097345
-1096939
-1096283
-1096171
-1096997
-1097471
-1097143
-1096335
-1096249
-1096945
-1097609
-1097095
-1096312
-1096221
-1096903
-1097436
-1097106
-1096226
-1096100
-1096874
-1097340
-1096948
-1096041
-1096005
-1096661
-1097206
-1096857
-1096072
-1095958
-1096663
-1097150
-1096748
-1096036
-1095918
-1096666
-1097096
-1096824
-1095969
-1095900
-1096297
-1097107
-1096765
-1095962
-1095972
-1096628
-1097259
-1096875
-1096015
-1096098
-1096836
-1097432
-1097059
-1096257
-1096323
-1097050
-1097515
-1097219
-1096360
-1097027
-1097611
-1097232
-1096533
-1096584
-1097349
-1097948
-1097639
-1096789
-1096897
-1097249
-1098203
-1097784
-1097078
-1097099
-1098025
-1098478
-1098245
-1097431
-1097613
-1098246
-1098936
-1098447
-1097715
-1097813
-1098663
-1099299
-1098811
-1098025
-1098180
-1098985
-1099609
-1099156
-1098496
-1098461
-1099296
-1099851
-1099442
-1098701
-1098696
-1099593
-1100048
-1099641
-1098952
-1099151
-1099890
-1100381
-1099964
-1099397
-1099451
-1100123
-1100702
-1100337
-1099633
-1099729
-1100499
-1101006
-1100679
-1099907
-1099972
-1100665
-1101301
-1100770
-1099940
-1100100
-1100893
-1101307
-1100781
-1100142
-1100200
-1101115
-1101632
-1101262
-1100433
-1100517
-1101210
-1101772
-1101416
-1100545
-1100680
-1101501
-1102026
-1101557
-1100950
-1100983
-1101712
-1102258
-1101866
-1101139
-1101207
-1102004
-1102669
-1102234
-1101469
-1101507
-1102239
-1102773
-1102506
-1101807
-1101952
-1102674
-1103172
-1102711
-1102074
-1102071
-1102904
-1103546
-1103015
-1102267
-1102268
-1103042
-1103692
-1103229
-1102484
-1102620
-1103433
-1103945
-1103323
-1102687
-1102907
-1103644
-1104347
-1103966
-1103132
-1103196
-1103917
-1104583
-1104291
-1103557
-1103515
-1104225
-1104745
-1104372
-1103735
-1103939
-1104751
-1105217
-1104859
-1104250
-1104257
-1105015
-1105594
-1105255
-1104530
-1104589
-1105301
-1105866
-1105505
-1104683
-1104907
-1105599
-1106248
-1105850
-1105181
-1105174
-1106053
-1106557
-1106037
-1105460
-1105586
-1106419
-1106856
-1106411
-1105799
-1105909
-1106648
-1107173
-1106645
-1105697
-1105875
-1106742
-1107300
-1106986
-1106158
-1106339
-1107019
-1107630
-1107223
-1106373
-1106379
-1107090
-1107727
-1107074
-1106451
-1106504
-1107165
-1107756
-1107190
-1106396
-1106564
-1107229
-1107702
-1107311
-1106592
-1106626
-1107475
-1107944
-1107528
-1106793
-1106888
-1107533
-1108062
-1107568
-1106817
-1106898
-1107614
-1108265
-1107669
-1106957
-1106930
-1107648
-1108072
-1107380
-1106542
-1106352
-1106984
-1107243
-1106593
-1105558
-1105282
-1105793
-1106029
-1105209
-1104032
-1103811
-1104253
-1104350
-1103602
-1102469
-1102249
-1102666
-1102701
-1101851
-1100819
-1100606
-1101214
-1101273
-1100558
-1099606
-1099332
-1099748
-1100028
-1099281
-1098309
-1098105
-1098546
-1098803
-1098092
-1097114
-1097006
-1097611
-1098595
-1099719
-1099554
-1098797
-1098891
-1098905
-1098785
-1098371
-1098213
-1098374
-1098745
-1098407
-1097865
-1097753
-1098184
-1098584
-1098161
-1097565
-1097418
-1097945
-1098345
-1097813
-1097042
-1097207
-1097921
-1098360
-1097643
-1096948
-1097019
-1097779
-1098285
-1097818
-1097033
-1097243
-1097990
-1098522
-1097997
-1097429
-1097402
-1098234
-1098690
-1098221
-1097513
-1097656
-1098375
-1098719
-1098268
-1097651
-1097667
-1098442
-1098861
-1098481
-1097794
-1097782
-1098684
-1099029
-1098580
-1097841
-1098037
-1098936
-1099451
-1098895
-1098336
-1098378
-1099228
-1099899
-1099501
-1098788
-1098868
-1099657
-1100228
-1099855
-1099169
-1099359
-1100190
-1100777
-1100190
-1099431
-1099693
-1100602
-1101196
-1100694
-1099968
-1100169
-1101111
-1101594
-1101113
-1100520
-1100725
-1101659
-1102157
-1101823
-1101275
-1101544
-1102444
-1103176
-1102827
-1102246
-1102516
-1103575
-1104084
-1103872
-1103380
-1103757
-1104770
-1105420
-1105036
-1104683
-1105061
-1106111
-1106615
-1106354
-1105676
-1106115
-1106964
-1107630
-1107162
-1106620
-1106871
-1107658
-1108213
-1107682
-1107219
-1107036
-1108227
-1108708
-1108432
-1107580
-1107810
-1108755
-1110162
-1108978
-1108135
-1108234
-1109025
-1109572
-1109102
-1108348
-1108590
-1109289
-1109879
-1109282
-1108558
-1108714
-1109559
-1110003
-1109398
-1108759
-1108953
-1109660
-1110192
-1109612
-1108954
-1109094
-1109942
-1110357
-1109943
-1109705
-1109440
-1110265
-1110686
-1110039
-1109495
-1109552
-1110467
-1110974
-1110406
-1109579
-1109799
-1110540
-1111063
-1110607
-1109878
-1109995
-1110926
-1111284
-1110786
-1110133
-1110240
-1110986
-1111464
-1110831
-1110179
-1110474
-1111192
-1111662
-1111042
-1110445
-1110500
-1111342
-1111857
-1111193
-1110642
-1110816
-1111593
-1111931
-1111497
-1110802
-1110997
-1111860
-1112377
-1111635
-1111088
-1111314
-1112074
-1112589
-1112020
-1111397
-1111505
-1112392
-1112818
-1112333
-1111676
-1111855
-1112771
-1113166
-1112561
-1112107
-1112208
-1113208
-1113676
-1113029
-1112517
-1112830
-1113621
-1114061
-1113607
-1113153
-1113306
-1114256
-1114715
-1114314
-1113615
-1113977
-1114923
-1115360
-1114816
-1114331
-1114540
-1115504
-1116133
-1115530
-1114944
-1115168
-1116144
-1116558
-1116043
-1115635
-1115877
-1116863
-1117131
-1116810
-1116195
-1116502
-1117398
-1117868
-1117440
-1116709
-1117085
-1117998
-1118477
-1117978
-1117355
-1117380
-1118414
-1118898
-1118486
-1117957
-1118251
-1119219
-1119566
-1119141
-1118575
-1118921
-1119707
-1120187
-1119828
-1119274
-1119497
-1120498
-1120973
-1120537
-1119929
-1120290
-1121106
-1121634
-1121264
-1120688
-1120847
-1121778
-1122317
-1121771
-1121135
-1121525
-1122539
-1122930
-1122498
-1121965
-1122218
-1122991
-1123545
-1123057
-1122377
-1122589
-1123490
-1124118
-1123471
-1122939
-1123212
-1124043
-1124482
-1123955
-1123440
-1123729
-1124698
-1125092
-1124579
-1123884
-1124288
-1125050
-1125534
-1124931
-1124508
-1124678
-1125582
-1126076
-1125452
-1124851
-1125105
-1125940
-1126435
-1125957
-1125271
-1125532
-1126446
-1126727
-1126167
-1125618
-1125959
-1126851
-1127218
-1126649
-1125956
-1126232
-1127143
-1127665
-1126997
-1126522
-1126708
-1127590
-1127914
-1127388
-1126782
-1126936
-1127812
-1128158
-1127644
-1127189
-1127385
-1128211
-1128545
-1127918
-1127478
-1127697
-1128600
-1129005
-1128491
-1127976
-1128289
-1129055
-1130205
-1129285
-1128464
-1128782
-1129649
-1130042
-1129546
-1128977
-1129163
-1130108
-1130435
-1129896
-1129339
-1129610
-1130566
-1130857
-1130050
-1129379
-1129751
-1130571
-1130894
-1130125
-1129359
-1129423
-1129558
-1128616
-1128566
-1129097
-1129146
-1128236
-1127379
-1127185
-1127784
-1127760
-1126758
-1125746
-1125571
-1126068
-1125986
-1124855
-1123934
-1123715
-1124215
-1124225
-1123154
-1122102
-1122069
-1122399
-1122293
-1121301
-1120413
-1120277
-1120860
-1120858
-1119837
-1118904
-1118917
-1119427
-1119724
-1118851
-1118100
-1118263
-1118869
-1119173
-1118563
-1117956
-1118131
-1119108
-1119278
-1118597
-1118000
-1118062
-1118791
-1119277
-1118486
-1117744
-1117996
-1118708
-1118926
-1118073
-1117213
-1117289
-1118485
-1118017
-1116868
-1115949
-1115922
-1116372
-1116289
-1115219
-1114088
-1113844
-1114234
-1114232
-1113172
-1112292
-1112241
-1112863
-1112978
-1112274
-1111456
-1111561
-1112227
-1112553
-1111727
-1111121
-1111306
-1112188
-1112578
-1112101
-1111554
-1111957
-1112821
-1113288
-1112776
-1112325
-1112645
-1113509
-1114075
-1113520
-1113592
-1113509
-1114114
-1114481
-1113773
-1113126
-1113140
-1114136
-1114443
-1113752
-1112997
-1113127
-1113783
-1114091
-1113449
-1112763
-1112788
-1113472
-1113646
-1113126
-1112349
-1112552
-1113436
-1113771
-1113064
-1112438
-1112823
-1113652
-1113960
-1113398
-1112999
-1113342
-1114207
-1114624
-1114057
-1113515
-1113799
-1114843
-1115262
-1114744
-1114167
-1114426
-1115364
-1115877
-1115362
-1114698
-1115057
-1116132
-1116416
-1115938
-1115359
-1115803
-1116760
-1117069
-1116487
-1115918
-1116233
-1117212
-1117619
-1117122
-1116527
-1116848
-1117762
-1118081
-1117476
-1116764
-1117113
-1118073
-1118226
-1117553
-1116933
-1117134
-1117888
-1118437
-1117825
-1117042
-1117404
-1118101
-1118384
-1117741
-1117186
-1117463
-1118023
-1118396
-1117864
-1117238
-1117437
-1118366
-1118510
-1117864
-1117092
-1117385
-1118281
-1118456
-1117774
-1117079
-1117452
-1118316
-1118426
-1117875
-1117265
-1117461
-1118437
-1118756
-1118026
-1117324
-1117629
-1118442
-1118717
-1118098
-1117424
-1117750
-1118664
-1118885
-1118173
-1117536
-1117902
-1118826
-1119124
-1118470
-1117835
-1118051
-1119011
-1119226
-1118534
-1117911
-1118365
-1119088
-1119416
-1118967
-1118397
-1118587
-1119619
-1119908
-1119313
-1118690
-1118796
-1119831
-1120190
-1119614
-1119024
-1119378
-1120304
-1120579
-1119865
-1119380
-1119721
-1120447
-1120811
-1120233
-1119705
-1120076
-1120819
-1121215
-1120552
-1119961
-1120334
-1121282
-1121499
-1120815
-1120257
-1120554
-1121472
-1121791
-1121147
-1120683
-1120910
-1121842
-1122179
-1121504
-1120873
-1121252
-1122101
-1122330
-1121694
-1121294
-1121661
-1122494
-1122776
-1122212
-1121566
-1121806
-1122886
-1123124
-1122541
-1121949
-1122361
-1123098
-1123350
-1122851
-1122245
-1122668
-1123212
-1123623
-1123021
-1122444
-1122946
-1123639
-1124006
-1123276
-1122841
-1123061
-1124020
-1124292
-1123363
-1122938
-1123297
-1124238
-1124574
-1124017
-1123367
-1123723
-1124603
-1124959
-1124137
-1123707
-1123946
-1124935
-1125167
-1124617
-1124101
-1124501
-1125360
-1125623
-1124958
-1124491
-1124713
-1125562
-1126032
-1125303
-1124730
-1124992
-1125869
-1126116
-1125541
-1124924
-1125165
-1126126
-1126468
-1125807
-1125198
-1125485
-1126352
-1126598
-1125969
-1125367
-1125704
-1126575
-1126766
-1126194
-1125623
-1125945
-1126871
-1127148
-1126466
-1126041
-1126356
-1127179
-1127456
-1126727
-1126216
-1126596
-1127484
-1127666
-1126924
-1126314
-1126830
-1127611
-1127757
-1127273
-1126624
-1126929
-1127911
-1128134
-1127115
-1126834
-1127178
-1128149
-1128417
-1127673
-1127191
-1127413
-1128438
-1128584
-1128088
-1127388
-1127842
-1128716
-1128982
-1128415
-1127817
-1128255
-1129001
-1129303
-1128707
-1128031
-1128341
-1129192
-1129505
-1128815
-1128216
-1128684
-1129662
-1129869
-1129232
-1128728
-1129149
-1129875
-1130196
-1129628
-1129034
-1129394
-1130237
-1130548
-1129921
-1129479
-1129913
-1130796
-1131580
-1130484
-1129739
-1130068
-1130856
-1131107
-1130232
-1129733
-1129900
-1130550
-1130742
-1129506
-1128981
-1129039
-1129706
-1129687
-1128560
-1127660
-1127728
-1128178
-1127959
-1126834
-1125878
-1125823
-1126289
-1125967
-1124808
-1123800
-1123767
-1124078
-1123796
-1122624
-1121751
-1121614
-1121838
-1121730
-1120585
-1119581
-1119451
-1119973
-1119690
-1118639
-1117773
-1117735
-1118280
-1118074
-1116968
-1116183
-1116173
-1116808
-1116791
-1115733
-1115017
-1115144
-1115649
-1115652
-1114805
-1113994
-1114193
-1114746
-1114720
-1113981
-1113236
-1113599
-1114096
-1113931
-1113225
-1112648
-1112988
-1113571
-1113601
-1112885
-1112280
-1112412
-1113194
-1113351
-1112464
-1111752
-1112175
-1112763
-1112992
-1112113
-1111516
-1111811
-1112569
-1112537
-1111730
-1111266
-1111476
-1112127
-1112317
-1111377
-1110833
-1111076
-1111932
-1112056
-1110883
-1110437
-1110872
-1111423
-1111601
-1110967
-1110378
-1110712
-1111489
-1111650
-1110840
-1110283
-1110691
-1111285
-1111448
-1110559
-1109895
-1110423
-1111101
-1111232
-1110421
-1109926
-1110240
-1111025
-1111048
-1110208
-1109673
-1110053
-1110939
-1110969
-1110188
-1109713
-1110082
-1110940
-1111149
-1110480
-1109878
-1110309
-1111215
-1111428
-1110723
-1110176
-1110754
-1111602
-1111670
-1111127
-1110744
-1111238
-1112003
-1112079
-1111413
-1111069
-1111581
-1112483
-1112555
-1111994
-1111503
-1112068
-1112813
-1112948
-1112251
-1111846
-1112296
-1113165
-1113309
-1112586
-1111960
-1112305
-1113047
-1113396
-1112418
-1111966
-1112383
-1113175
-1113195
-1112397
-1111844
-1112123
-1112877
-1113045
-1112328
-1111779
-1111926
-1112683
-1112649
-1112036
-1111418
-1111661
-1112446
-1112608
-1111891
-1111188
-1111625
-1112450
-1112460
-1111797
-1111140
-1111592
-1112409
-1112389
-1111625
-1111142
-1111545
-1112254
-1112435
-1111762
-1111032
-1111308
-1112257
-1112384
-1111743
-1111032
-1111584
-1112398
-1112486
-1111789
-1111165
-1111621
-1112468
-1112685
-1111992
-1111517
-1111783
-1112680
-1112929
-1112078
-1111561
-1111957
-1112960
-1112997
-1112308
-1111900
-1112398
-1113177
-1113304
-1112728
-1112344
-1112691
-1113577
-1113746
-1113097
-1112524
-1112989
-1113928
-1114186
-1113498
-1112998
-1113460
-1114433
-1114498
-1113984
-1113458
-1113982
-1114734
-1115014
-1114390
-1113982
-1114424
-1115188
-1115437
-1114633
-1114359
-1114732
-1115742
-1115909
-1115246
-1114783
-1115314
-1116154
-1116442
-1115645
-1115260
-1115658
-1116609
-1116748
-1116067
-1115702
-1116170
-1117070
-1117182
-1116480
-1115956
-1116412
-1117373
-1117429
-1116864
-1116327
-1116746
-1117642
-1117803
-1117124
-1116673
-1117043
-1117935
-1117984
-1117300
-1116776
-1117341
-1118179
-1118303
-1117547
-1116986
-1117458
-1118409
-1118547
-1117714
-1117281
-1117601
-1118397
-1118644
-1118006
-1117452
-1117784
-1118628
-1118500
-1118020
-1117598
-1117919
-1118714
-1118878
-1118329
-1117812
-1118205
-1119009
-1119101
-1118319
-1117889
-1118321
-1119204
-1119479
-1118769
-1118369
-1118774
-1119621
-1119741
-1119034
-1118495
-1118933
-1119732
-1120003
-1119261
-1118704
-1119207
-1120108
-1120076
-1119388
-1119023
-1119360
-1120187
-1120380
-1119654
-1119211
-1119615
-1120444
-1120515
-1119924
-1119519
-1119829
-1120811
-1121033
-1120193
-1119720
-1120202
-1121080
-1121255
-1120439
-1120053
-1120384
-1121263
-1121362
-1120692
-1120340
-1120716
-1121589
-1121735
-1121006
-1120636
-1121063
-1121855
-1121999
-1121217
-1120770
-1121314
-1122060
-1122128
-1121451
-1121071
-1121485
-1122278
-1122405
-1121796
-1121349
-1121872
-1122691
-1122836
-1122151
-1121666
-1122226
-1123050
-1123262
-1122565
-1121987
-1122493
-1123527
-1123604
-1122822
-1122384
-1123010
-1123912
-1123880
-1123247
-1122908
-1123459
-1124335
-1124406
-1123640
-1123374
-1123734
-1124523
-1124691
-1124027
-1123439
-1124113
-1124855
-1124995
-1124278
-1123883
-1124181
-1125004
-1125118
-1124129
-1123643
-1124548
-1124664
-1124454
-1123391
-1122672
-1122912
-1123497
-1123173
-1122076
-1121231
-1121309
-1121723
-1121277
-1120272
-1119338
-1119184
-1119642
-1119232
-1117967
-1116990
-1116936
-1117349
-1116931
-1115689
-1114847
-1114910
-1115217
-1114736
-1113529
-1112749
-1112800
-1113180
-1112818
-1111785
-1110940
-1111083
-1111502
-1111180
-1110137
-1109275
-1109486
-1110108
-1109830
-1108795
-1108069
-1108338
-1108966
-1108753
-1107667
-1107042
-1106990
-1107854
-1107847
-1106899
-1106173
-1106452
-1107152
-1106854
-1106100
-1105496
-1105729
-1106486
-1106359
-1105435
-1104900
-1105155
-1105688
-1105538
-1104788
-1104188
-1104582
-1105118
-1105088
-1104255
-1103507
-1103907
-1104610
-1104434
-1103534
-1103063
-1103332
-1104042
-1103843
-1103064
-1102468
-1102956
-1103607
-1103588
-1102753
-1102217
-1102465
-1103188
-1103144
-1102207
-1101760
-1102096
-1102704
-1102767
-1101889
-1101309
-1101674
-1102319
-1102318
-1101503
-1101001
-1101260
-1102069
-1102113
-1101236
-1100758
-1101039
-1101521
-1101705
-1100892
-1100367
-1100896
-1101687
-1101628
-1100833
-1100245
-1100655
-1101476
-1101520
-1100808
-1100061
-1100699
-1102006
-1101732
-1100894
-1100456
-1100801
-1101772
-1101710
-1101087
-1100624
-1101215
-1102157
-1102123
-1101551
-1101197
-1101736
-1102569
-1102533
-1101908
-1101692
-1102275
-1103107
-1103197
-1102418
-1102186
-1102559
-1103485
-1103487
-1102821
-1102636
-1103235
-1104018
-1104150
-1103410
-1102962
-1103390
-1104294
-1104367
-1103675
-1103222
-1103763
-1104590
-1104451
-1103736
-1103401
-1103873
-1104535
-1104559
-1103758
-1103363
-1103704
-1104536
-1104467
-1103659
-1103210
-1103662
-1104395
-1104487
-1103784
-1103266
-1103647
-1104502
-1104307
-1104042
-1103317
-1103706
-1104310
-1104383
-1103544
-1103084
-1103513
-1104263
-1104302
-1103432
-1103008
-1103526
-1104353
-1104408
-1103549
-1103057
-1103724
-1104441
-1104325
-1103692
-1103268
-1103714
-1104564
-1104595
-1103797
-1103304
-1103955
-1104637
-1104644
-1104003
-1103648
-1104066
-1104757
-1104874
-1104120
-1103605
-1104146
-1104973
-1104863
-1104349
-1103967
-1104904
-1105317
-1105349
-1104474
-1104039
-1104546
-1105479
-1105368
-1104711
-1103937
-1104705
-1105604
-1105691
-1104935
-1104551
-1104991
-1105856
-1106001
-1105270
-1104822
-1105451
-1106166
-1106221
-1105438
-1105148
-1105601
-1106419
-1106552
-1105732
-1105409
-1105925
-1106896
-1106796
-1106099
-1105805
-1106347
-1108211
-1107550
-1106505
-1106055
-1106569
-1107514
-1107475
-1106647
-1106377
-1106822
-1107620
-1107655
-1106856
-1106493
-1106952
-1107883
-1107962
-1107087
-1106721
-1107357
-1108203
-1108091
-1107505
-1107166
-1107722
-1108547
-1108553
-1107966
-1107627
-1108023
-1108989
-1109058
-1108295
-1107842
-1108440
-1109380
-1109403
-1108618
-1108255
-1108915
-1109619
-1109742
-1109080
-1108718
-1109143
-1110178
-1110001
-1109374
-1108970
-1109600
-1110485
-1110470
-1109749
-1109454
-1109870
-1110865
-1110763
-1110110
-1109671
-1110176
-1110983
-1111103
-1110228
-1110036
-1110516
-1111311
-1111305
-1110573
-1110233
-1110790
-1112483
-1112056
-1111061
-1110744
-1111272
-1112029
-1112031
-1111309
-1110997
-1111408
-1112348
-1112350
-1111721
-1110997
-1111762
-1112670
-1112704
-1111838
-1111468
-1112075
-1112948
-1112902
-1112278
-1111879
-1112476
-1113332
-1113257
-1112512
-1112257
-1112836
-1113654
-1113549
-1112773
-1112424
-1113104
-1113844
-1113790
-1113193
-1112845
-1113289
-1114280
-1114220
-1113419
-1113132
-1114580
-1114892
-1114601
-1113728
-1113535
-1113995
-1115059
-1114952
-1114200
-1113922
-1114445
-1115424
-1115331
-1114636
-1114313
-1114861
-1115797
-1115856
-1115116
-1114804
-1115315
-1116277
-1116262
-1115624
-1115183
-1115704
-1116683
-1116707
-1115933
-1115594
-1116090
-1116801
-1116587
-1115927
-1115420
-1115985
-1116692
-1116297
-1115334
-1114849
-1115207
-1115713
-1115288
-1114335
-1114455
-1114076
-1114260
-1113824
-1112621
-1111816
-1111861
-1112065
-1111549
-1110371
-1109610
-1109703
-1109887
-1109315
-1108063
-1107213
-1107169
-1107552
-1106988
-1105814
-1104971
-1105005
-1105416
-1105027
-1103924
-1103110
-1103466
-1103778
-1103202
-1102052
-1101391
-1101731
-1102206
-1101733
-1100579
-1100111
-1100301
-1100931
-1100601
-1099499
-1098978
-1099183
-1099773
-1099412
-1098485
-1097866
-1099227
-1099166
-1098706
-1097706
-1097164
-1097468
-1098080
-1097742
-1096902
-1096516
-1096851
-1097261
-1097131
-1096203
-1095457
-1096029
-1096781
-1096467
-1095557
-1095093
-1095511
-1096050
-1095800
-1094895
-1094358
-1094825
-1095398
-1095241
-1094314
-1093986
-1094417
-1095041
-1094791
-1093894
-1093406
-1093561
-1094060
-1093984
-1093262
-1092951
-1093342
-1094052
-1093878
-1092951
-1092365
-1093696
-1094011
-1093627
-1092623
-1092360
-1092712
-1093289
-1093285
-1092508
-1092145
-1092604
-1093282
-1093013
-1092216
-1091852
-1092236
-1092902
-1092714
-1091889
-1091737
-1092137
-1092730
-1092761
-1091893
-1091478
-1092019
-1092742
-1092720
-1091871
-1091595
-1092115
-1092925
-1092840
-1092287
-1092026
-1092530
-1093471
-1093362
-1092692
-1092433
-1092993
-1093933
-1093883
-1093221
-1092924
-1093725
-1094432
-1094534
-1093829
-1093676
-1094373
-1095204
-1095152
-1094371
-1094169
-1094719
-1095700
-1095645
-1094827
-1094591
-1095288
-1096095
-1095915
-1095177
-1094904
-1095463
-1096409
-1096335
-1095512
-1095129
-1095703
-1096480
-1096357
-1095461
-1095130
-1095754
-1096406
-1096303
-1095488
-1095291
-1095807
-1096466
-1096430
-1095577
-1095205
-1095836
-1096609
-1096519
-1095675
-1095358
-1095736
-1096530
-1096533
-1095749
-1095336
-1095944
-1096583
-1096507
-1095618
-1095399
-1095962
-1096610
-1096513
-1095737
-1095331
-1095808
-1096728
-1096395
-1095649
-1095434
-1095904
-1096655
-1096485
-1095737
-1095465
-1096154
-1096967
-1096685
-1095998
-1095831
-1096447
-1097252
-1097062
-1096322
-1096083
-1096728
-1097470
-1097315
-1096664
-1096471
-1096993
-1097869
-1097582
-1096932
-1096411
-1097236
-1098072
-1097748
-1097115
-1097047
-1097380
-1098259
-1098185
-1097605
-1097160
-1097877
-1098700
-1098552
-1097827
-1097607
-1098172
-1099018
-1098969
-1098134
-1097910
-1098553
-1099287
-1099179
-1098445
-1098202
-1098829
-1099541
-1099482
-1098644
-1098489
-1099063
-1099924
-1099848
-1099117
-1098947
-1099491
-1100383
-1100141
-1099322
-1099257
-1099978
-1100770
-1100514
-1099733
-1099482
-1100251
-1101097
-1101035
-1100243
-1099993
-1100310
-1101290
-1101149
-1100559
-1100373
-1100838
-1101714
-1101574
-1100832
-1100532
-1101181
-1101883
-1101856
-1100933
-1100673
-1101356
-1102289
-1102282
-1101574
-1101336
-1101928
-1102723
-1102625
-1101900
-1101625
-1102325
-1103184
-1103042
-1102341
-1102137
-1102822
-1103596
-1103559
-1102780
-1102661
-1103187
-1104000
-1103914
-1103178
-1103101
-1103651
-1104492
-1104439
-1103734
-1103412
-1104053
-1104911
-1104807
-1103934
-1103725
-1104421
-1105135
-1105022
-1104214
-1104156
-1104774
-1105501
-1105335
-1104756
-1104498
-1105229
-1105975
-1105695
-1105080
-1104950
-1105600
-1106329
-1106175
-1105609
-1105340
-1105985
-1106821
-1106627
-1105983
-1105844
-1106367
-1107301
-1107025
-1106366
-1106139
-1106937
-1107644
-1107592
-1106798
-1106704
-1107341
-1108243
-1108047
-1107244
-1107168
-1107988
-1108689
-1108551
-1107844
-1107639
-1108402
-1109178
-1109211
-1108380
-1108181
-1108989
-1109736
-1109431
-1108808
-1108689
-1109444
-1110276
-1110059
-1109703
-1109331
-1109810
-1110668
-1110385
-1109779
-1109540
-1110228
-1111015
-1110908
-1110177
-1109958
-1110608
-1111482
-1111310
-1110600
-1110357
-1111152
-1111848
-1111667
-1110909
-1110651
-1111368
-1112160
-1112068
-1111251
-1111035
-1111730
-1112470
-1112431
-1111634
-1111448
-1112116
-1112874
-1112571
-1111843
-1111705
-1112330
-1112993
-1112864
-1112198
-1111878
-1112500
-1113089
-1112799
-1111700
-1111619
-1112197
-1112935
-1112575
-1111560
-1111307
-1111591
-1112213
-1111698
-1110723
-1110061
-1110239
-1110591
-1110124
-1108820
-1108134
-1108318
-1108513
-1107808
-1106583
-1105872
-1105979
-1106282
-1105540
-1104319
-1103519
-1103792
-1103894
-1103203
-1102087
-1101446
-1101621
-1101977
-1101334
-1100021
-1099512
-1099717
-1100088
-1099516
-1098349
-1097862
-1098136
-1098467
-1097937
-1096938
-1096359
-1096660
-1097253
-1096614
-1095646
-1095229
-1095586
-1096054
-1095618
-1094543
-1094226
-1094593
-1095152
-1094813
-1093846
-1093218
-1093840
-1094133
-1094017
-1093077
-1092769
-1093141
-1093695
-1093458
-1092478
-1092209
-1092572
-1093178
-1092825
-1091960
-1091693
-1092172
-1092640
-1092361
-1091446
-1090864
-1091620
-1092256
-1091768
-1090891
-1090592
-1091166
-1091624
-1091314
-1090363
-1090035
-1090608
-1091225
-1090828
-1089936
-1089723
-1090198
-1090933
-1090560
-1089579
-1089408
-1089982
-1090416
-1090130
-1089346
-1089156
-1089672
-1090181
-1089999
-1089093
-1088764
-1089465
-1090076
-1089630
-1088848
-1088543
-1089138
-1089625
-1089400
-1088485
-1088253
-1088702
-1089465
-1089170
-1088373
-1088167
-1088844
-1089560
-1089283
-1088575
-1088410
-1088888
-1089749
-1089527
-1088660
-1088635
-1089400
-1089984
-1089826
-1089092
-1088699
-1089632
-1090365
-1090293
-1089445
-1089480
-1090219
-1091022
-1090720
-1089984
-1090040
-1090695
-1091888
-1091448
-1090636
-1090505
-1091609
-1092034
-1091735
-1090979
-1090880
-1092520
-1092501
-1092027
-1091313
-1091152
-1091736
-1092523
-1092149
-1091326
-1091168
-1091869
-1092609
-1092245
-1091382
-1091199
-1091795
-1092542
-1092099
-1091343
-1091164
-1091847
-1092472
-1092134
-1091263
-1091024
-1091619
-1093180
-1092245
-1091275
-1090977
-1091561
-1092140
-1091838
-1091125
-1090966
-1091568
-1092255
-1091803
-1091010
-1090881
-1091429
-1092136
-1091857
-1091008
-1090915
-1091436
-1092190
-1091866
-1091129
-1090813
-1092182
-1092410
-1091900
-1091154
-1090997
-1091591
-1092125
-1091915
-1091129
-1090957
-1091633
-1092523
-1091881
-1091355
-1091280
-1092023
-1092649
-1092376
-1091570
-1091366
-1092198
-1092724
-1092531
-1091714
-1091485
-1092356
-1092973
-1092711
-1091886
-1091852
-1092587
-1093275
-1092896
-1092238
-1092079
-1092790
-1093440
-1093253
-1092392
-1092349
-1092990
-1093882
-1093616
-1092725
-1092589
-1093315
-1094081
-1093850
-1093078
-1093762
-1094030
-1094591
-1094260
-1093535
-1093151
-1094037
-1094940
-1094577
-1093968
-1093903
-1094597
-1095406
-1095171
-1094500
-1094372
-1095115
-1095802
-1095682
-1094861
-1094968
-1095580
-1096251
-1096052
-1095283
-1094898
-1095951
-1096552
-1096455
-1095649
-1095685
-1096440
-1097148
-1096985
-1096280
-1096193
-1096929
-1097773
-1097430
-1096727
-1096669
-1097532
-1098303
-1098097
-1097363
-1097408
-1098194
-1098812
-1098471
-1097693
-1097815
-1098615
-1099183
-1098955
-1098098
-1098102
-1099043
-1099659
-1099431
-1098729
-1098623
-1099244
-1100110
-1099835
-1099018
-1098819
-1099672
-1100389
-1100119
-1099302
-1099287
-1100012
-1100738
-1100397
-1099636
-1099709
-1100365
-1101049
-1100828
-1099859
-1099980
-1100618
-1101163
-1101085
-1100379
-1100258
-1100644
-1101613
-1101348
-1100672
-1100607
-1101353
-1101978
-1101674
-1100933
-1101060
-1101783
-1102352
-1102001
-1101216
-1101117
-1101846
-1102471
-1102213
-1101643
-1101606
-1102294
-1102876
-1102614
-1101789
-1101852
-1102587
-1103178
-1102899
-1102122
-1102139
-1102730
-1103399
-1103135
-1102279
-1102245
-1103059
-1103713
-1103289
-1102579
-1102394
-1103217
-1103978
-1103496
-1102897
-1102793
-1103424
-1104178
-1103671
-1102984
-1102835
-1103656
-1104205
-1103988
-1103150
-1103210
-1103729
-1104408
-1104052
-1103139
-1103092
-1103779
-1104378
-1103972
-1103666
-1103232
-1103924
-1104578
-1104052
-1103381
-1103347
-1104102
-1104684
-1104320
-1103589
-1103462
-1104311
-1104903
-1104566
-1103670
-1103462
-1104385
-1105066
-1104763
-1104020
-1103979
-1104835
-1105472
-1105113
-1104413
-1104380
-1105288
-1105913
-1105499
-1104720
-1104871
-1105473
-1106241
-1105962
-1105179
-1105151
-1105930
-1106568
-1106053
-1105337
-1105287
-1106006
-1106579
-1106253
-1105272
-1105274
-1105829
-1106183
-1105703
-1104599
-1104276
-1104929
-1105194
-1104602
-1103467
-1103095
-1103613
-1103784
-1102975
-1101664
-1101234
-1101338
-1101424
-1100428
-1098199
-1096515
-1096807
-1097319
-1096750
-1095878
-1095324
-1095285
-1095134
-1094287
-1093262
-1092845
-1093206
-1093282
-1092372
-1091089
-1090608
-1090910
-1091204
-1090478
-1089346
-1088855
-1089284
-1089478
-1088771
-1087520
-1087338
-1087685
-1088127
-1087435
-1086373
-1085831
-1087315
-1087180
-1086410
-1085199
-1085288
-1085914
-1086194
-1085595
-1084706
-1084670
-1085094
-1085547
-1085134
-1084140
-1083969
-1084488
-1084961
-1084377
-1083537
-1083376
-1083990
-1084455
-1084097
-1083224
-1083044
-1083634
-1084164
-1083678
-1082832
-1082813
-1083544
-1083748
-1083498
-1082704
-1082667
-1083385
-1083855
-1083509
-1082595
-1082651
-1083436
-1084031
-1083515
-1082738
-1082745
-1083122
-1083872
-1083490
-1082822
-1082793
-1083589
-1084017
-1083236
-1082777
-1082826
-1083522
-1084043
-1083781
-1082922
-1083071
-1084338
-1084449
-1083912
-1083193
-1083379
-1084032
-1084592
-1084076
-1083537
-1083546
-1084211
-1084835
-1084460
-1083844
-1083893
-1084783
-1085408
-1085099
-1084479
-1084538
-1085036
-1085819
-1085605
-1085113
-1085158
-1086003
-1086701
-1086408
-1085630
-1085782
-1086561
-1087283
-1086950
-1086190
-1086362
-1087225
-1087719
-1087380
-1086710
-1086676
-1087498
-1088096
-1087759
-1086903
-1086851
-1087704
-1088241
-1087646
-1086837
-1086862
-1087305
-1087556
-1087039
-1086458
-1086440
-1087298
-1087862
-1087475
-1086779
-1086707
-1087326
-1087977
-1087560
-1086649
-1086659
-1087512
-1087946
-1087372
-1086673
-1086736
-1087298
-1087773
-1087196
-1086423
-1086447
-1087169
-1087284
-1087078
-1086362
-1086303
-1087038
-1087654
-1087169
-1086458
-1086536
-1087202
-1087734
-1087172
-1086442
-1086533
-1087351
-1087922
-1087501
-1086842
-1086813
-1087515
-1088068
-1087718
-1087015
-1087006
-1087889
-1088430
-1088078
-1087372
-1087458
-1088196
-1088819
-1088457
-1087738
-1087769
-1088512
-1089190
-1088848
-1088109
-1088069
-1088937
-1089650
-1089210
-1088589
-1088672
-1089531
-1089996
-1089626
-1089109
-1089219
-1090120
-1090866
-1090406
-1089818
-1089875
-1090805
-1091294
-1090946
-1090426
-1090503
-1091499
-1092012
-1091735
-1091110
-1091239
-1091886
-1092686
-1092206
-1091716
-1091805
-1092645
-1093304
-1092945
-1092297
-1092576
-1093451
-1093992
-1093668
-1093029
-1093151
-1094101
-1094697
-1094276
-1093672
-1093906
-1094747
-1095368
-1094926
-1094223
-1094511
-1095350
-1095941
-1095469
-1094917
-1095107
-1095905
-1096477
-1095999
-1095348
-1095593
-1096505
-1096969
-1096475
-1095638
-1096083
-1096962
-1097418
-1097193
-1096556
-1096723
-1097474
-1098152
-1097790
-1097136
-1097272
-1098010
-1098763
-1098352
-1097686
-1097958
-1098896
-1099317
-1099004
-1098306
-1098637
-1099357
-1099986
-1099510
-1098853
-1098947
-1099893
-1100429
-1100008
-1099334
-1099415
-1100279
-1100879
-1100364
-1099673
-1099894
-1100675
-1101273
-1100741
-1100156
-1100158
-1100869
-1101489
-1100915
-1100332
-1100440
-1101283
-1101671
-1101193
-1100499
-1100702
-1101464
-1102105
-1101627
-1100875
-1101156
-1101903
-1102382
-1101582
-1101312
-1101598
-1102388
-1103170
-1103363
-1103138
-1103188
-1103671
-1103818
-1103287
-1102798
-1103147
-1103746
-1104359
-1103851
-1103060
-1103067
-1103797
-1104326
-1103938
-1103237
-1104035
-1104354
-1104615
-1104111
-1103348
-1103462
-1104285
-1104842
-1104399
-1103709
-1103782
-1104553
-1105141
-1104674
-1103980
-1104174
-1104923
-1105513
-1104951
-1104245
-1104442
-1105245
-1105784
-1105282
-1104518
-1104699
-1105634
-1106046
-1105463
-1104691
-1104819
-1105733
-1106165
-1105822
-1105055
-1105319
-1106015
-1106494
-1105948
-1105348
-1105549
-1106364
-1106751
-1106219
-1105619
-1105682
-1106483
-1107075
-1106466
-1105777
-1105997
-1106734
-1107284
-1107309
-1106351
-1106458
-1107366
-1107758
-1107310
-1106597
-1106808
-1107722
-1108205
-1107754
-1107211
-1107549
-1108390
-1108900
-1108412
-1107790
-1107950
-1108902
-1109406
-1108945
-1108265
-1108508
-1109099
-1109534
-1108901
-1108365
-1108444
-1109754
-1109634
-1109030
-1108358
-1108419
-1109103
-1109548
-1108779
-1108013
-1107894
-1108122
-1108625
-1107872
-1106910
-1106839
-1107137
-1107217
-1106227
-1105040
-1104798
-1105125
-1105007
-1103964
-1102684
-1102336
-1102620
-1103351
-1101449
-1100093
-1099484
-1099805
-1099542
-1098395
-1097164
-1096589
-1096781
-1096692
-1095418
-1094123
-1093732
-1093928
-1093862
-1092885
-1091758
-1091286
-1091483
-1091509
-1090492
-1089461
-1089170
-1089481
-1089430
-1088419
-1087382
-1087242
-1087646
-1087673
-1086866
-1085798
-1086540
-1086545
-1086427
-1085638
-1084706
-1084682
-1085190
-1085366
-1084654
-1083785
-1083669
-1084350
-1084634
-1083820
-1082952
-1083011
-1083694
-1083893
-1083080
-1082367
-1082233
-1082931
-1083237
-1082463
-1081733
-1081660
-1082077
-1082344
-1081707
-1080953
-1080931
-1081639
-1081851
-1081188
-1080395
-1080448
-1081095
-1081392
-1080694
-1079900
-1079796
-1080558
-1080876
-1080265
-1079447
-1079422
-1080199
-1080407
-1079862
-1079192
-1079243
-1079848
-1080150
-1079436
-1078691
-1078816
-1079621
-1080027
-1079364
-1078651
-1078678
-1079434
-1079678
-1079052
-1078339
-1078676
-1079416
-1079727
-1079094
-1078187
-1078613
-1079374
-1079743
-1079189
-1078704
-1078762
-1079572
-1079908
-1079525
-1078830
-1079079
-1079824
-1080295
-1079859
-1079126
-1079498
-1080401
-1080928
-1080397
-1079791
-1080066
-1080958
-1081431
-1081031
-1080535
-1080735
-1081650
-1081952
-1081537
-1081114
-1081500
-1082310
-1082685
-1082215
-1081785
-1082028
-1083037
-1083444
-1083746
-1082530
-1082750
-1083401
-1083871
-1083304
-1082674
-1082875
-1083652
-1084121
-1083534
-1082949
-1083100
-1083825
-1084195
-1083489
-1083011
-1083285
-1084007
-1084325
-1083771
-1082966
-1083241
-1083980
-1084161
-1083569
-1083077
-1083236
-1083999
-1084231
-1083686
-1082978
-1083197
-1084080
-1084412
-1083777
-1083085
-1083323
-1084136
-1084446
-1083893
-1083200
-1083363
-1084069
-1084558
-1083881
-1083285
-1083565
-1084382
-1084705
-1083960
-1083318
-1083550
-1084403
-1084774
-1084310
-1083616
-1083840
-1085538
-1085261
-1084568
-1083912
-1084140
-1084961
-1085219
-1084700
-1084135
-1084295
-1085692
-1085660
-1084963
-1084318
-1084570
-1085354
-1085772
-1085162
-1084621
-1084861
-1085764
-1086035
-1085271
-1084726
-1085151
-1085976
-1086213
-1085641
-1085072
-1085323
-1086127
-1086602
-1086011
-1085294
-1085650
-1086528
-1086894
-1086260
-1085593
-1085872
-1086738
-1087104
-1086389
-1085962
-1086192
-1087100
-1087294
-1086672
-1086096
-1086352
-1087241
-1087647
-1086960
-1086383
-1086780
-1087516
-1087928
-1087276
-1086711
-1087073
-1087860
-1088170
-1087419
-1086926
-1087390
-1088210
-1088572
-1087867
-1087352
-1087804
-1088417
-1088915
-1088282
-1087799
-1088143
-1089086
-1089308
-1088756
-1088291
-1088584
-1089316
-1089664
-1089069
-1088526
-1088950
-1089752
-1090058
-1089357
-1088923
-1089326
-1090131
-1090528
-1089880
-1089192
-1089577
-1090447
-1090930
-1090188
-1089745
-1090014
-1090863
-1091275
-1090567
-1090055
-1090413
-1091159
-1091447
-1090886
-1090407
-1090761
-1091724
-1091551
-1091304
-1090728
-1090949
-1092013
-1092338
-1091780
-1091916
-1091712
-1092472
-1092373
-1091900
-1091481
-1091875
-1092584
-1092964
-1092201
-1091652
-1092117
-1092953
-1093127
-1092625
-1092080
-1092368
-1093184
-1093505
-1092941
-1092436
-1092833
-1093512
-1093839
-1093408
-1092811
-1093194
-1093850
-1094092
-1093408
-1092893
-1093247
-1094125
-1094429
-1093877
-1093194
-1093512
-1094489
-1094705
-1093963
-1093426
-1093871
-1094738
-1094867
-1094198
-1093665
-1094103
-1094985
-1095144
-1094410
-1093936
-1094416
-1095083
-1095263
-1094692
-1094154
-1094511
-1095358
-1095596
-1094936
-1094351
-1094686
-1095563
-1095748
-1095253
-1094699
-1095032
-1095894
-1095964
-1095419
-1094793
-1095151
-1095899
-1096302
-1095737
-1095049
-1095297
-1096168
-1096467
-1095922
-1095286
-1095763
-1096652
-1096822
-1096209
-1095618
-1096002
-1096829
-1097217
-1096593
-1096100
-1096466
-1097326
-1097655
-1096985
-1096630
-1097101
-1097905
-1098213
-1097666
-1097172
-1097549
-1098351
-1098648
-1098113
-1097589
-1097967
-1098898
-1099146
-1098643
-1098006
-1098505
-1099416
-1099553
-1098627
-1098256
-1098591
-1099317
-1099330
-1098675
-1097977
-1098057
-1098735
-1098623
-1097820
-1096890
-1096957
-1097516
-1097205
-1096139
-1095317
-1095961
-1096365
-1095755
-1094305
-1093113
-1093007
-1093360
-1093071
-1092009
-1090886
-1091028
-1091318
-1090967
-1089759
-1088731
-1088683
-1089032
-1088907
-1087876
-1087003
-1086873
-1087387
-1087156
-1086190
-1085336
-1085435
-1085949
-1085669
-1084919
-1084057
-1084121
-1084728
-1084643
-1083794
-1083098
-1083246
-1083794
-1083738
-1082880
-1082227
-1082433
-1083097
-1083035
-1082317
-1081310
-1081842
-1082424
-1082398
-1081482
-1080985
-1081260
-1082007
-1081271
-1080511
-1080691
-1081503
-1081579
-1080711
-1080131
-1080373
-1081088
-1081220
-1080433
-1079834
-1079971
-1080670
-1080704
-1079894
-1079376
-1079681
-1080267
-1080271
-1079573
-1078971
-1079388
-1079958
-1079947
-1079318
-1078700
-1079000
-1079719
-1079690
-1079027
-1078552
-1078880
-1079470
-1079556
-1078831
-1078334
-1078567
-1079205
-1079293
-1078537
-1078065
-1078488
-1079155
-1079118
-1078341
-1077876
-1078135
-1078921
-1079067
-1078406
-1077825
-1078261
-1079087
-1079076
-1078506
-1077927
-1078353
-1079317
-1079426
-1078602
-1078203
-1078562
-1079511
-1079609
-1079077
-1078615
-1079234
-1080166
-1081038
-1079840
-1079143
-1079592
-1080580
-1080746
-1080011
-1079618
-1080205
-1080923
-1081217
-1080585
-1080192
-1080741
-1081551
-1081363
-1080827
-1080540
-1080950
-1081940
-1081689
-1081148
-1080912
-1081345
-1082207
-1082236
-1081643
-1081210
-1081597
-1082308
-1082540
-1081806
-1081246
-1081629
-1082481
-1082556
-1081703
-1081405
-1081808
-1082554
-1082687
-1081957
-1081565
-1081878
-1082662
-1082797
-1081987
-1081584
-1082024
-1082788
-1082889
-1082164
-1081772
-1082094
-1082905
-1082985
-1082261
-1081961
-1082316
-1083111
-1083175
-1082482
-1081987
-1082427
-1083205
-1083295
-1082571
-1082093
-1083241
-1083709
-1083526
-1082742
-1082296
-1082798
-1083574
-1083675
-1083125
-1082672
-1083032
-1083923
-1084070
-1083346
-1083033
-1083492
-1084360
-1084027
-1083637
-1083270
-1083766
-1084646
-1084694
-1084062
-1083707
-1084189
-1084966
-1085085
-1084313
-1084041
-1084557
-1085432
-1085437
-1084797
-1084421
-1085074
-1085957
-1086126
-1085584
-1085272
-1085801
-1086815
-1086955
-1086187
-1085957
-1086468
-1087385
-1087446
-1086889
-1086537
-1087134
-1087843
-1087912
-1087314
-1086944
-1087571
-1088351
-1088434
-1087844
-1087396
-1087652
-1088790
-1088881
-1088250
-1087816
-1088282
-1089129
-1089177
-1088300
-1088163
-1088698
-1089616
-1089612
-1088889
-1088558
-1089075
-1090000
-1090049
-1089218
-1088956
-1089394
-1090322
-1090390
-1089498
-1089227
-1089775
-1090552
-1090577
-1089823
-1089498
-1090111
-1090830
-1090810
-1090127
-1089757
-1090371
-1091261
-1091285
-1090127
-1089957
-1090723
-1091524
-1091520
-1090681
-1090426
-1090881
-1091633
-1091688
-1091002
-1090563
-1091140
-1091911
-1091844
-1091269
-1090823
-1091404
-1092125
-1092190
-1091491
-1091147
-1091684
-1092586
-1092585
-1091744
-1091424
-1092036
-1092821
-1092881
-1092215
-1091716
-1092368
-1093215
-1093093
-1092474
-1092059
-1092619
-1093530
-1093478
-1092741
-1092553
-1093030
-1093956
-1093918
-1093239
-1093761
-1093757
-1094347
-1094095
-1093359
-1093079
-1093679
-1094502
-1094439
-1093624
-1093277
-1093649
-1094478
-1094309
-1093588
-1093271
-1093855
-1094539
-1094527
-1093586
-1093314
-1093940
-1094766
-1094721
-1093963
-1093667
-1094190
-1095108
-1095126
-1094453
-1094065
-1094546
-1095414
-1095328
-1094725
-1094443
-1095109
-1095961
-1096006
-1095313
-1095071
-1095734
-1096329
-1096683
-1096167
-1096160
-1097086
-1098011
-1098196
-1097887
-1097890
-1098689
-1099747
-1099843
-1099358
-1099217
-1099892
-1100724
-1100688
-1100049
-1100438
-1100511
-1101312
-1101109
-1100365
-1100134
-1100688
-1101506
-1101283
-1100505
-1100160
-1100870
-1101662
-1101511
-1100842
-1100529
-1101250
-1102152
-1102118
-1101205
-1100998
-1101642
-1102570
-1102454
-1101857
-1101594
-1102379
-1103197
-1103193
-1102396
-1102165
-1102793
-1103796
-1103812
-1103098
-1102881
-1103520
-1104405
-1104430
-1103848
-1103247
-1104268
-1105158
-1105225
-1104545
-1104341
-1104925
-1105757
-1105471
-1104616
-1104469
-1105583
-1105726
-1105225
-1104312
-1103870
-1104214
-1104808
-1104316
-1103416
-1102769
-1102871
-1103162
-1102818
-1101696
-1100795
-1101156
-1101529
-1100941
-1099820
-1099147
-1099357
-1099644
-1099230
-1098724
-1099219
-1099969
-1099890
-1098639
-1097099
-1096617
-1097149
-1097792
-1097727
-1095795
-1094929
-1095181
-1095848
-1095477
-1094263
-1093652
-1093734
-1094214
-1093839
-1092896
-1092315
-1092740
-1093284
-1092910
-1091941
-1091491
-1091731
-1092427
-1092108
-1091295
-1090897
-1091422
-1091894
-1091658
-1090921
-1090462
-1091129
-1091792
-1091673
-1090690
-1090525
-1091133
-1091799
-1091477
-1090713
-1090551
-1090928
-1091363
-1091380
-1090530
-1090262
-1090525
-1091322
-1091233
-1090363
-1090210
-1090688
-1091304
-1090718
-1090107
-1089909
-1090481
-1091170
-1091063
-1090242
-1089988
-1090519
-1091130
-1090879
-1090197
-1089888
-1091321
-1091277
-1090856
-1090050
-1089755
-1090189
-1090982
-1090739
-1089808
-1090460
-1090353
-1090824
-1091208
-1089921
-1089523
-1090115
-1090789
-1090562
-1089735
-1089455
-1089890
-1090620
-1090498
-1089725
-1089313
-1089983
-1090722
-1090396
-1089692
-1089493
-1090071
-1090800
-1090438
-1089681
-1089387
-1089987
-1090698
-1090544
-1089874
-1089641
-1090286
-1091023
-1090998
-1090269
-1090158
-1090923
-1091702
-1091408
-1090626
-1090564
-1091313
-1092078
-1092012
-1091343
-1091256
-1092013
-1092780
-1092543
-1091920
-1091842
-1092443
-1093207
-1093157
-1092469
-1092410
-1092922
-1093661
-1093127
-1092606
-1092640
-1093306
-1094119
-1093650
-1092995
-1092888
-1093501
-1094335
-1094018
-1093419
-1093139
-1093791
-1094464
-1094223
-1093509
-1093307
-1094023
-1094736
-1094463
-1093836
-1093819
-1094392
-1095092
-1094994
-1094259
-1094086
-1094833
-1095566
-1095288
-1094479
-1094282
-1095046
-1095410
-1095333
-1094322
-1094550
-1095416
-1096185
-1095801
-1095188
-1095071
-1095827
-1096671
-1096494
-1095682
-1095535
-1096309
-1097056
-1096888
-1096091
-1096034
-1096745
-1097585
-1097408
-1096642
-1096530
-1097267
-1098089
-1097861
-1097192
-1097094
-1097791
-1098477
-1098262
-1097513
-1097498
-1098164
-1098993
-1098613
-1097855
-1097725
-1098521
-1099388
-1099153
-1098484
-1098389
-1099117
-1099843
-1099382
-1098732
-1098644
-1099371
-1100226
-1099992
-1099307
-1099282
-1099884
-1100578
-1100456
-1099620
-1099618
-1100271
-1101086
-1100755
-1100074
-1099976
-1100670
-1101537
-1101262
-1100476
-1100480
-1101261
-1102037
-1101797
-1101052
-1101073
-1102078
-1102605
-1102259
-1101492
-1101546
-1102422
-1103197
-1102608
-1102094
-1101761
-1102809
-1103648
-1103426
-1102787
-1102624
-1104102
-1104569
-1104072
-1103242
-1103167
-1103954
-1104650
-1104145
-1103638
-1103792
-1104408
-1105163
-1105012
-1104313
-1104297
-1105118
-1105743
-1105571
-1104754
-1104896
-1105608
-1106347
-1106221
-1105468
-1105447
-1106084
-1106899
-1106678
-1105987
-1106029
-1106795
-1107370
-1107246
-1106531
-1106423
-1107215
-1107825
-1107616
-1106839
-1106827
-1107582
-1108304
-1108060
-1107226
-1107122
-1108021
-1108618
-1108343
-1107544
-1107484
-1108346
-1108717
-1108459
-1107851
-1107904
-1108482
-1109121
-1108801
-1108158
-1108046
-1108841
-1110173
-1109408
-1108488
-1108512
-1109287
-1109941
-1109599
-1109004
-1109073
-1109835
-1110453
-1110285
-1109606
-1109531
-1110320
-1111138
-1110856
-1110145
-1110142
-1111038
-1111765
-1111437
-1110878
-1110869
-1111811
-1112432
-1112125
-1111629
-1111709
-1112458
-1113278
-1112921
-1112289
-1112328
-1113262
-1114039
-1113683
-1113056
-1113260
-1114055
-1114713
-1114439
-1113756
-1113796
-1114691
-1115120
-1115113
-1114442
-1114578
-1115447
-1116065
-1115825
-1115017
-1115070
-1115884
-1116579
-1116280
-1115559
-1115643
-1116499
-1117167
-1117003
-1116346
-1116312
-1117152
-1117744
-1117546
-1116921
-1117014
-1117787
-1118494
-1118061
-1117463
-1117619
-1118365
-1118983
-1118529
-1118016
-1118010
-1118895
-1119551
-1119228
-1118636
-1118683
-1119406
-1120248
-1119959
-1119291
-1119432
-1120158
-1120897
-1120610
-1120678
-1120291
-1120905
-1121485
-1121257
-1120631
-1120589
-1121449
-1121995
-1121631
-1121129
-1121149
-1121891
-1122390
-1121986
-1121217
-1121219
-1121916
-1122230
-1121654
-1120848
-1120723
-1121337
-1121491
-1120763
-1119676
-1119517
-1119909
-1120119
-1119167
-1118088
-1117572
-1117800
-1118016
-1117000
-1115836
-1115383
-1115646
-1115768
-1114756
-1113643
-1113107
-1113387
-1113477
-1112623
-1111374
-1110881
-1111132
-1111379
-1110480
-1109371
-1109068
-1109441
-1109592
-1108683
-1107691
-1107453
-1107820
-1108049
-1107344
-1106311
-1106133
-1106554
-1106829
-1106200
-1105264
-1105019
-1105526
-1105831
-1105304
-1104342
-1104237
-1104777
-1105136
-1104588
-1103760
-1103630
-1104280
-1104615
-1104081
-1103188
-1102984
-1103471
-1103824
-1103280
-1102555
-1102557
-1103045
-1103341
-1102963
-1102066
-1102042
-1102554
-1102931
-1102315
-1101581
-1101507
-1102233
-1102604
-1102011
-1101111
-1101194
-1101936
-1102299
-1101720
-1100891
-1100952
-1101688
-1102054
-1101488
-1100787
-1100856
-1101508
-1101888
-1101398
-1100552
-1100629
-1101364
-1101893
-1101237
-1100556
-1100633
-1101393
-1101743
-1101141
-1100385
-1100472
-1101186
-1101635
-1101152
-1100414
-1100404
-1101249
-1101587
-1101104
-1100277
-1100589
-1101384
-1101871
-1101499
-1100842
-1100775
-1101648
-1102226
-1101831
-1100909
-1101136
-1101981
-1102426
-1102000
-1101396
-1101533
-1102433
-1102720
-1102447
-1101854
-1102043
-1103040
-1103480
-1103111
-1102406
-1102534
-1103522
-1104004
-1103554
-1102800
-1102932
-1103684
-1104180
-1103746
-1103211
-1103382
-1104154
-1104583
-1104897
-1103467
-1103551
-1104337
-1104752
-1104156
-1103500
-1103643
-1104372
-1104745
-1104184
-1103381
-1103598
-1104324
-1104803
-1104203
-1103495
-1103593
-1104298
-1104651
-1104109
-1103252
-1103399
-1104025
-1104377
-1103916
-1103061
-1103152
-1103897
-1104325
-1103821
-1103112
-1103036
-1103759
-1104270
-1103672
-1102968
-1102941
-1103713
-1104193
-1103459
-1102739
-1102802
-1103736
-1104126
-1103566
-1102528
-1102681
-1103629
-1104012
-1103505
-1102840
-1102828
-1103597
-1103960
-1103524
-1102701
-1102824
-1103573
-1103920
-1103483
-1102773
-1102878
-1103634
-1104021
-1103450
-1102915
-1103086
-1103810
-1104017
-1103606
-1102905
-1103091
-1103863
-1104383
-1103868
-1103220
-1103265
-1104177
-1104531
-1103992
-1103419
-1103590
-1104603
-1104879
-1104458
-1103846
-1104124
-1104943
-1105309
-1104969
-1104374
-1104595
-1105487
-1105982
-1105453
-1104784
-1105104
-1106032
-1106543
-1105854
-1105216
-1105509
-1106446
-1106975
-1106517
-1105843
-1106016
-1106957
-1107380
-1106755
-1106158
-1106512
-1107470
-1107907
-1107402
-1106700
-1107067
-1107944
-1108438
-1107912
-1107368
-1107688
-1108551
-1108902
-1108506
-1107770
-1108237
-1108963
-1109360
-1108650
-1108270
-1108525
-1109342
-1109790
-1109265
-1108710
-1109096
-1109830
-1110143
-1109620
-1109124
-1109309
-1110264
-1110536
-1110028
-1109458
-1109759
-1110464
-1110864
-1110355
-1109672
-1110049
-1110984
-1111324
-1110751
-1110092
-1110342
-1111203
-1111524
-1111028
-1110468
-1110712
-1111659
-1111960
-1111509
-1110754
-1111121
-1112051
-1112288
-1111778
-1111189
-1111422
-1112244
-1112547
-1112055
-1111551
-1111833
-1112664
-1113056
-1112475
-1111702
-1112108
-1112974
-1113272
-1112816
-1112308
-1112531
-1113352
-1113713
-1113154
-1112517
-1112758
-1113680
-1113949
-1113408
-1112909
-1113134
-1113956
-1114376
-1113837
-1113236
-1113532
-1114530
-1114937
-1114379
-1113746
-1114208
-1114955
-1115405
-1114837
-1114208
-1114586
-1115452
-1115711
-1115254
-1114682
-1115043
-1115824
-1116130
-1115641
-1115038
-1115435
-1116377
-1116614
-1116188
-1115707
-1115975
-1116922
-1117304
-1116631
-1116082
-1116558
-1117526
-1117836
-1117170
-1116736
-1117156
-1117904
-1118276
-1117794
-1117174
-1117667
-1119239
-1119210
-1118530
-1118112
-1118426
-1119359
-1119821
-1119381
-1118797
-1119214
-1120146
-1120540
-1120023
-1119473
-1119848
-1120656
-1121024
-1120518
-1120053
-1120466
-1121403
-1121689
-1120841
-1120233
-1120600
-1121356
-1121520
-1120643
-1119954
-1120176
-1120792
-1120764
-1119828
-1118931
-1118867
-1119483
-1119421
-1118294
-1117379
-1117162
-1117673
-1117338
-1116250
-1115188
-1115072
-1115474
-1115279
-1113970
-1112778
-1112799
-1113154
-1112780
-1111592
-1110685
-1110488
-1110832
-1110535
-1109481
-1108472
-1108385
-1108770
-1108578
-1107546
-1106559
-1106529
-1106853
-1106880
-1105905
-1104990
-1105076
-1105604
-1105485
-1104473
-1103632
-1104661
-1104572
-1104336
-1103381
-1102539
-1102689
-1103480
-1103335
-1102567
-1101851
-1102066
-1102744
-1102720
-1101849
-1101258
-1101357
-1102214
-1102290
-1101518
-1100856
-1101128
-1101718
-1101830
-1101040
-1100372
-1100685
-1101514
-1101620
-1100719
-1100043
-1100409
-1101197
-1101260
-1100646
-1100063
-1100320
-1101100
-1101214
-1100421
-1099769
-1100157
-1100941
-1101100
-1100317
-1099668
-1100085
-1100996
-1101029
-1100246
-1099559
-1100024
-1100740
-1100861
-1100162
-1099703
-1100076
-1100870
-1100930
-1100390
-1099748
-1100031
-1100894
-1101069
-1100344
-1099926
-1100260
-1101250
-1101348
-1100591
-1100230
-1100772
-1101477
-1101793
-1101203
-1100698
-1101222
-1102181
-1102436
-1101742
-1101436
-1101838
-1102750
-1103043
-1102477
-1102111
-1102653
-1103603
-1103746
-1103197
-1102870
-1103347
-1104222
-1104468
-1103856
-1103455
-1104012
-1104571
-1104851
-1104261
-1103650
-1104254
-1105228
-1105417
-1104822
-1104285
-1104758
-1105508
-1105696
-1104910
-1104586
-1104895
-1105712
-1105896
-1105140
-1104752
-1105001
-1105839
-1106077
-1105288
-1104832
-1105126
-1105996
-1106088
-1105221
-1104740
-1105259
-1106069
-1106115
-1105259
-1104856
-1105258
-1106150
-1106222
-1105400
-1104962
-1105342
-1106245
-1106299
-1105425
-1104992
-1105473
-1106193
-1106353
-1105634
-1105049
-1105446
-1106354
-1106443
-1105609
-1105133
-1105626
-1106452
-1106464
-1105687
-1105210
-1105667
-1106527
-1106539
-1105792
-1105357
-1105821
-1106625
-1106766
-1105905
-1105500
-1105932
-1106761
-1106937
-1106294
-1105857
-1106329
-1106987
-1107172
-1106523
-1106086
-1106573
-1107360
-1107505
-1106696
-1106313
-1106903
-1107688
-1107883
-1107076
-1106771
-1107195
-1108178
-1108120
-1107471
-1107144
-1107551
-1108066
-1108422
-1107677
-1107326
-1107994
-1108821
-1108919
-1108317
-1107848
-1108485
-1109094
-1109196
-1108613
-1108253
-1108848
-1109807
-1109909
-1109190
-1108835
-1109182
-1110167
-1110176
-1109442
-1109151
-1109516
-1110439
-1110573
-1109754
-1109367
-1109884
-1110820
-1110839
-1110312
-1109939
-1110299
-1111300
-1111267
-1110666
-1110283
-1110800
-1111634
-1111767
-1111096
-1110632
-1111206
-1112068
-1112027
-1111511
-1111020
-1111605
-1112594
-1112574
-1112021
-1111554
-1112163
-1113218
-1113165
-1112514
-1112335
-1112727
-1113682
-1113728
-1113171
-1112851
-1113422
-1114356
-1114342
-1113710
-1113376
-1113813
-1114759
-1114738
-1114078
-1113740
-1114433
-1115234
-1115390
-1114680
-1114337
-1114765
-1115592
-1115673
-1114988
-1114730
-1115298
-1115977
-1115994
-1115339
-1115049
-1115659
-1116388
-1116392
-1115676
-1115360
-1115958
-1116728
-1116761
-1116127
-1115848
-1116236
-1117043
-1117123
-1116332
-1116042
-1116736
-1117645
-1117571
-1116882
-1116573
-1117065
-1118006
-1117864
-1117274
-1116825
-1117444
-1118349
-1118201
-1117434
-1117164
-1117809
-1118567
-1118598
-1117839
-1117487
-1117959
-1118816
-1118807
-1118072
-1117834
-1118424
-1119113
-1119249
-1118406
-1118117
-1118705
-1119662
-1119724
-1118921
-1118698
-1119222
-1120182
-1120168
-1119532
-1119219
-1119689
-1120565
-1120720
-1119993
-1119806
-1120477
-1121402
-1121393
-1120710
-1120404
-1121043
-1121866
-1121792
-1120973
-1120748
-1121238
-1121984
-1121720
-1120847
-1120264
-1120665
-1121299
-1121031
-1119922
-1119183
-1119477
-1119959
-1119508
-1118404
-1117636
-1117704
-1118103
-1117503
-1116215
-1115400
-1115310
-1115712
-1115108
-1113880
-1112932
-1112885
-1113140
-1112549
-1111348
-1110510
-1110658
-1111024
-1110387
-1109246
-1108419
-1108541
-1108816
-1108488
-1107215
-1106541
-1106901
-1107120
-1106798
-1105756
-1105160
-1105409
-1105952
-1105532
-1104394
-1103954
-1104330
-1104908
-1104477
-1103596
-1103211
-1103498
-1104098
-1103816
-1102880
-1102435
-1102807
-1103522
-1103265
-1102398
-1102000
-1102393
-1102920
-1102891
-1102012
-1101678
-1102003
-1102787
-1102547
-1101671
-1101253
-1101799
-1102533
-1102337
-1101484
-1101028
-1101500
-1102235
-1101999
-1101124
-1100736
-1101224
-1102006
-1101877
-1100901
-1100521
-1101041
-1101795
-1101614
-1100798
-1100375
-1100857
-1101674
-1101446
-1100545
-1100083
-1100708
-1101461
-1101207
-1100378
-1100084
-1100691
-1101291
-1101139
-1100254
-1099992
-1100466
-1101064
-1100848
-1100048
-1099786
-1100495
-1101123
-1101048
-1100147
-1099992
-1100563
-1101242
-1101123
-1100191
-1099976
-1100684
-1101532
-1101498
-1100606
-1100390
-1100972
-1101725
-1101618
-1101038
-1100825
-1101595
-1102389
-1102238
-1101583
-1101499
-1102088
-1103035
-1102917
-1102166
-1101899
-1102644
-1103568
-1103289
-1102472
-1102283
-1102966
-1103787
-1103569
-1102967
-1102775
-1103468
-1104149
-1103967
-1103184
-1102994
-1103520
-1104340
-1104007
-1103155
-1102976
-1103642
-1104382
-1104072
-1103120
-1102961
-1103452
-1104065
-1103883
-1103030
-1102804
-1103352
-1104073
-1103855
-1103037
-1102817
-1103393
-1103904
-1103624
-1102719
-1102542
-1103097
-1103724
-1103492
-1102575
-1102403
-1102950
-1103625
-1103292
-1102445
-1102230
-1102774
-1103325
-1103175
-1102192
-1101874
-1102412
-1103108
-1102822
-1101927
-1101811
-1102479
-1103005
-1102706
-1102006
-1101726
-1102311
-1103045
-1102908
-1102192
-1102008
-1102708
-1103324
-1103158
-1102460
-1102302
-1102957
-1103662
-1103342
-1102637
-1102588
-1103092
-1103899
-1103663
-1102997
-1102859
-1103509
-1104171
-1104049
-1103275
-1102902
-1103831
-1104704
-1104412
-1103833
-1103753
-1104462
-1105298
-1105158
-1104411
-1104258
-1105063
-1105823
-1105618
-1104963
-1104877
-1105690
-1106311
-1106241
-1105615
-1105446
-1106301
-1107088
-1106827
-1106179
-1105914
-1106806
-1107564
-1107300
-1106725
-1106697
-1107469
-1108223
-1107926
-1107253
-1107219
-1107883
-1108626
-1108412
-1107636
-1107774
-1108414
-1109167
-1108904
-1108224
-1108346
-1108968
-1109754
-1109497
-1108761
-1108783
-1109626
-1110298
-1110019
-1109305
-1109355
-1110054
-1110775
-1110598
-1109775
-1109842
-1110577
-1111405
-1111115
-1110352
-1110280
-1110849
-1111634
-1111464
-1110726
-1110591
-1111363
-1112094
-1111835
-1111021
-1110892
-1111662
-1112238
-1111900
-1111294
-1111067
-1111699
-1112418
-1112114
-1111302
-1111155
-1111917
-1112685
-1112319
-1111464
-1111485
-1112208
-1112886
-1112590
-1111666
-1111591
-1112367
-1112978
-1112758
-1111863
-1111853
-1112529
-1113143
-1112780
-1112043
-1111948
-1112699
-1113226
-1113081
-1112280
-1112184
-1113026
-1113675
-1113354
-1112560
-1112653
-1113222
-1114106
-1113809
-1112939
-1112895
-1113652
-1114330
-1114089
-1113359
-1113504
-1114219
-1114789
-1114601
-1113773
-1113830
-1114689
-1115385
-1115006
-1114305
-1114298
-1115039
-1115859
-1115635
-1114969
-1114990
-1115621
-1116388
-1116174
-1115465
-1115539
-1116306
-1117057
-1116670
-1115923
-1115898
-1116577
-1117320
-1116980
-1116272
-1116226
-1116762
-1117264
-1116843
-1115823
-1115652
-1116237
-1116633
-1116034
-1114924
-1114663
-1115113
-1115372
-1114500
-1113394
-1113110
-1113169
-1113427
-1112561
-1111234
-1110763
-1110950
-1111065
-1110207
-1108931
-1108415
-1108595
-1108585
-1107776
-1106600
-1106040
-1106196
-1106357
-1105477
-1104292
-1103983
-1104351
-1104503
-1103701
-1102730
-1102296
-1102747
-1103025
-1102415
-1101313
-1100982
-1101422
-1101818
-1101296
-1100324
-1100056
-1100562
-1101060
-1100348
-1099443
-1099158
-1099798
-1100248
-1099724
-1098761
-1098389
-1098954
-1099538
-1099071
-1098151
-1098028
-1098610
-1098935
-1098413
-1097557
-1097454
-1097971
-1098583
-1098101
-1097275
-1097040
-1097763
-1098204
-1097670
-1096859
-1096643
-1097445
-1098025
-1097592
-1096779
-1096600
-1097264
-1097798
-1097346
-1096594
-1096383
-1097095
-1097658
-1097050
-1096244
-1096235
-1096899
-1097468
-1097014
-1096019
-1095926
-1096695
-1097128
-1096646
-1095878
-1095833
-1096445
-1096935
-1096511
-1095760
-1095678
-1096426
-1096791
-1096420
-1095459
-1095612
-1096326
-1096822
-1096294
-1095444
-1095374
-1096055
-1096656
-1096234
-1095355
-1095337
-1096037
-1096557
-1096129
-1095382
-1095500
-1096129
-1096688
-1096473
-1095723
-1095819
-1096589
-1097157
-1096871
-1096219
-1096138
-1097087
-1098347
-1097625
-1096790
-1096911
-1097588
-1098176
-1097924
-1097197
-1097232
-1098012
-1098699
-1098204
-1097666
-1097775
-1098439
-1099111
-1098716
-1097967
-1098108
-1098854
-1099239
-1098897
-1098128
-1098144
-1098829
-1099548
-1099080
-1098189
-1098330
-1098991
-1099637
-1099117
-1098398
-1098476
-1099848
-1099905
-1099202
-1098319
-1098333
-1099176
-1099597
-1099215
-1099057
-1098582
-1099324
-1099843
-1099291
-1098426
-1098595
-1099322
-1099760
-1099355
-1098614
-1098746
-1099547
-1100000
-1099386
-1098752
-1098866
-1099652
-1100191
-1099633
-1098914
-1098839
-1099781
-1100287
-1099698
-1098990
-1099162
-1099972
-1100435
-1099931
-1099265
-1099427
-1100135
-1100718
-1100292
-1099637
-1099630
-1100571
-1101174
-1100663
-1099943
-1100218
-1101066
-1101518
-1101193
-1100494
-1100559
-1101461
-1102011
-1101578
-1100900
-1101004
-1101935
-1102401
-1102008
-1101240
-1101432
-1102152
-1102784
-1102396
-1101651
-1101847
-1102675
-1103113
-1102874
-1101988
-1102252
-1103028
-1103630
-1103188
-1102503
-1102658
-1103570
-1104084
-1104135
-1103116
-1103322
-1104129
-1104688
-1104261
-1103656
-1103687
-1104584
-1105143
-1104633
-1103991
-1104218
-1105088
-1105474
-1105139
-1104640
-1104839
-1105685
-1106156
-1105753
-1105061
-1105325
-1106189
-1106710
-1106228
-1105204
-1105592
-1106447
-1107071
-1106592
-1105999
-1106292
-1107066
-1107635
-1107151
-1106586
-1106710
-1107445
-1107944
-1107450
-1106933
-1107068
-1107704
-1108277
-1107875
-1107159
-1107108
-1108115
-1108657
-1108281
-1107549
-1107762
-1108616
-1109155
-1108638
-1107983
-1107942
-1109023
-1109706
-1109213
-1108229
-1108670
-1109449
-1110091
-1109652
-1109055
-1109296
-1110714
-1111478
-1110291
-1109512
-1109645
-1110471
-1110869
-1110414
-1109900
-1110084
-1110973
-1111457
-1110826
-1110246
-1110446
-1111274
-1111792
-1111301
-1110689
-1110722
-1111665
-1112173
-1111440
-1111142
-1111112
-1112274
-1112658
-1111770
-1111406
-1112468
-1113017
-1113195
-1112846
-1111856
-1112344
-1113184
-1113464
-1113218
-1112585
-1113585
-1113833
-1114296
-1113372
-1113030
-1113332
-1114082
-1114446
-1114010
-1113253
-1113636
-1114259
-1114919
-1114509
-1114054
-1114192
-1114949
-1116140
-1115069
-1114292
-1114218
-1115130
-1115788
-1114750
-1114059
-1113781
-1114483
-1114680
-1113940
-1113056
-1112872
-1113103
-1113383
-1112513
-1112222
-1111378
-1111588
-1111565
-1110503
-1109252
-1109025
-1109561
-1109278
-1108213
-1106950
-1106412
-1106832
-1106678
-1105838
-1104662
-1104445
-1104666
-1104598
-1103446
-1102582
-1102433
-1102829
-1102699
-1101881
-1101027
-1100609
-1101223
-1101312
-1100100
-1099426
-1099436
-1100945
-1100480
-1099560
-1098566
-1098587
-1099108
-1099346
-1098562
-1097914
-1097818
-1098095
-1098503
-1097918
-1097096
-1097170
-1097737
-1098166
-1097532
-1096910
-1096752
-1097613
-1097781
-1097132
-1096475
-1097238
-1097605
-1097524
-1097090
-1096466
-1096541
-1097272
-1097630
-1096988
-1095943
-1096174
-1096784
-1097290
-1096671
-1095942
-1095834
-1096837
-1096706
-1096326
-1095819
-1095909
-1096551
-1096843
-1096055
-1095414
-1095598
-1096192
-1096370
-1095804
-1094804
-1095146
-1095959
-1095860
-1095452
-1094819
-1094910
-1095446
-1095498
-1094908
-1094095
-1095179
-1095084
-1095450
-1094722
-1094168
-1094462
-1095182
-1095370
-1094787
-1094065
-1094220
-1094915
-1095713
-1094726
-1094637
-1094553
-1095169
-1095373
-1094926
-1094238
-1094641
-1095410
-1095851
-1095248
-1094828
-1095228
-1096078
-1096540
-1095985
-1095501
-1095758
-1096701
-1097094
-1096597
-1096129
-1095958
-1097118
-1097564
-1096959
-1096357
-1096433
-1097378
-1097679
-1097080
-1096513
-1096745
-1097569
-1097794
-1097124
-1096564
-1096466
-1097401
-1097803
-1097111
-1096563
-1096940
-1097685
-1098020
-1097436
-1096949
-1097331
-1097991
-1098333
-1097789
-1097107
-1097344
-1098093
-1098262
-1097650
-1097139
-1097315
-1098059
-1098232
-1097631
-1096905
-1097047
-1097650
-1097793
-1097245
-1096635
-1096850
-1097568
-1097708
-1097006
-1096348
-1096509
-1097245
-1097501
-1096758
-1096160
-1096476
-1097337
-1097528
-1096940
-1096299
-1096635
-1097382
-1097512
-1097092
-1096528
-1096746
-1097506
-1097727
-1097192
-1096623
-1097021
-1097811
-1098000
-1097315
-1096953
-1097269
-1098072
-1098418
-1097862
-1097385
-1097752
-1098599
-1098808
-1098247
-1097801
-1098083
-1098934
-1099314
-1098717
-1098389
-1098677
-1099593
-1099909
-1099246
-1098848
-1099234
-1100049
-1100485
-1099701
-1099282
-1099548
-1100370
-1100742
-1100126
-1099571
-1099979
-1100926
-1101135
-1100591
-1099935
-1100245
-1101148
-1101375
-1100680
-1100115
-1100552
-1101412
-1101664
-1101123
-1100567
-1100938
-1101703
-1101959
-1101462
-1100988
-1101478
-1102413
-1102670
-1102063
-1101708
-1102163
-1102883
-1103303
-1102777
-1102265
-1102671
-1103554
-1103901
-1103280
-1102806
-1103249
-1104132
-1104338
-1103734
-1103427
-1103773
-1104662
-1104842
-1104137
-1103696
-1104173
-1104960
-1105114
-1104639
-1104196
-1104629
-1105380
-1105607
-1104962
-1104447
-1104786
-1105543
-1105742
-1105135
-1104606
-1105024
-1105843
-1105969
-1105287
-1104770
-1105201
-1106013
-1106215
-1105489
-1104955
-1105404
-1106289
-1106359
-1105690
-1105201
-1105642
-1106464
-1106782
-1106048
-1105499
-1105765
-1106577
-1106704
-1106175
-1105617
-1105962
-1106819
-1107042
-1106282
-1105815
-1106170
-1106989
-1107093
-1106552
-1105952
-1106389
-1107239
-1107393
-1106734
-1106167
-1106546
-1107385
-1107536
-1106764
-1106205
-1106507
-1107325
-1107510
-1106750
-1106241
-1106603
-1107396
-1107556
-1106934
-1106332
-1106690
-1107504
-1107636
-1107002
-1106434
-1106754
-1107693
-1107762
-1107217
-1106717
-1107162
-1108107
-1108352
-1107660
-1107265
-1107651
-1108445
-1108734
-1108074
-1107718
-1108069
-1108899
-1109167
-1108519
-1108086
-1108383
-1109285
-1109438
-1108810
-1108295
-1108663
-1109497
-1109572
-1108853
-1108307
-1108553
-1109313
-1109309
-1108579
-1107926
-1108136
-1108666
-1108597
-1107677
-1106834
-1106987
-1107521
-1107046
-1106018
-1105122
-1105116
-1105331
-1104900
-1103786
-1102738
-1102664
-1102947
-1102586
-1101346
-1100273
-1100091
-1100372
-1099887
-1098813
-1097866
-1097787
-1098114
-1097767
-1096711
-1095706
-1095845
-1096123
-1095802
-1094888
-1094061
-1094042
-1094498
-1094430
-1093351
-1092635
-1092831
-1093357
-1093300
-1092358
-1091680
-1091967
-1092481
-1092351
-1091517
-1090920
-1091126
-1091838
-1091781
-1090910
-1090349
-1090749
-1091491
-1091279
-1090399
-1089855
-1090150
-1090885
-1090922
-1090106
-1089499
-1089784
-1090487
-1090595
-1089795
-1089384
-1089620
-1090225
-1090250
-1089474
-1089019
-1089291
-1089987
-1089962
-1089175
-1088579
-1088971
-1089525
-1089467
-1088879
-1088342
-1088741
-1089363
-1089397
-1088528
-1088153
-1088465
-1089189
-1089197
-1088358
-1087934
-1088258
-1088938
-1088907
-1088158
-1087772
-1088024
-1088672
-1088642
-1087953
-1087380
-1087854
-1088497
-1088591
-1087876
-1087475
-1087953
-1088655
-1088667
-1087952
-1087611
-1088130
-1088822
-1088942
-1088253
-1087912
-1088489
-1089187
-1089297
-1088670
-1088408
-1088929
-1089714
-1089972
-1089372
-1088887
-1089428
-1090319
-1090510
-1089798
-1089571
-1089977
-1090989
-1090940
-1090398
-1090046
-1090505
-1091466
-1091632
-1090879
-1090464
-1090994
-1091784
-1091789
-1091139
-1090813
-1091278
-1091934
-1092047
-1091241
-1090920
-1091371
-1092089
-1091982
-1091229
-1090707
-1091241
-1091915
-1091608
-1090991
-1090508
-1090823
-1091588
-1091446
-1090596
-1090010
-1090485
-1091098
-1091030
-1090115
-1089743
-1090188
-1090828
-1090677
-1089965
-1089579
-1089995
-1090689
-1090631
-1089863
-1089552
-1089853
-1090568
-1090663
-1089996
-1089566
-1090028
-1090737
-1090781
-1090073
-1089747
-1090231
-1090945
-1090919
-1090284
-1089957
-1090333
-1091106
-1091121
-1090434
-1090212
-1090762
-1091549
-1091448
-1090697
-1090413
-1090920
-1091638
-1091776
-1091148
-1090734
-1091262
-1092042
-1092105
-1091440
-1091254
-1091773
-1092590
-1092580
-1091921
-1091618
-1092167
-1093031
-1093060
-1092354
-1092040
-1092541
-1093287
-1093348
-1092735
-1092513
-1092967
-1093758
-1093866
-1093249
-1092944
-1093409
-1094300
-1094377
-1093658
-1093358
-1093878
-1094614
-1094674
-1094181
-1093827
-1094375
-1095102
-1095153
-1094619
-1094173
-1094708
-1095501
-1095608
-1095073
-1094807
-1095227
-1095946
-1096001
-1095484
-1095174
-1095673
-1096463
-1096432
-1095880
-1095602
-1096192
-1096980
-1097079
-1096604
-1096321
-1097075
-1097782
-1097946
-1097299
-1096991
-1097664
-1098510
-1098620
-1097985
-1097754
-1098353
-1099086
-1099208
-1098557
-1098307
-1098966
-1099802
-1099794
-1099205
-1098815
-1099218
-1100047
-1100199
-1099602
-1099307
-1099850
-1100595
-1100589
-1099794
-1099661
-1100217
-1100872
-1100927
-1100221
-1099953
-1100437
-1101265
-1101200
-1100600
-1100236
-1100699
-1101453
-1101512
-1100832
-1100572
-1101024
-1101664
-1101687
-1100933
-1100580
-1101052
-1101911
-1101781
-1101114
-1100802
-1101419
-1102114
-1102110
-1101340
-1101022
-1101530
-1102289
-1102183
-1101459
-1101211
-1101662
-1102344
-1102404
-1101731
-1101339
-1101836
-1102649
-1102641
-1101995
-1101774
-1102233
-1102807
-1102739
-1102224
-1101958
-1102607
-1103319
-1103143
-1102459
-1102368
-1102963
-1103670
-1103536
-1102994
-1102710
-1103318
-1104143
-1104080
-1103394
-1103015
-1103692
-1104447
-1104333
-1103528
-1103360
-1103824
-1104519
-1104353
-1103619
-1103228
-1103545
-1104004
-1103774
-1102858
-1102435
-1102564
-1103121
-1102593
-1101598
-1100978
-1101012
-1101335
-1100718
-1099517
-1098724
-1098860
-1099132
-1098392
-1097205
-1096409
-1096352
-1096516
-1095996
-1094598
-1093972
-1093884
-1094067
-1093587
-1092474
-1091604
-1091747
-1091985
-1091553
-1090355
-1089710
-1089865
-1090182
-1089743
-1088890
-1088253
-1088411
-1088926
-1088579
-1087486
-1087051
-1087417
-1087741
-1087350
-1086500
-1086077
-1086445
-1086937
-1086489
-1085682
-1085318
-1085621
-1086119
-1085847
-1085090
-1084742
-1085170
-1085727
-1085386
-1084595
-1084221
-1084650
-1085284
-1085097
-1084301
-1084075
-1084532
-1085220
-1084960
-1084062
-1083918
-1084420
-1085013
-1084896
-1084145
-1083878
-1084449
-1085154
-1085023
-1084318
-1084102
-1084661
-1085300
-1085199
-1084537
-1084248
-1084877
-1085433
-1085455
-1084771
-1084504
-1085068
-1085700
-1085611
-1085009
-1084768
-1085244
-1085903
-1085653
-1084890
-1084600
-1085312
-1085828
-1085653
-1084993
-1084717
-1085265
-1085927
-1085772
-1085083
-1084840
-1085408
-1086210
-1086134
-1085352
-1085202
-1085824
-1086708
-1086574
-1085990
-1085950
-1086595
-1087493
-1087402
-1086943
-1086859
-1087597
-1088457
-1088464
-1087939
-1087844
-1088506
-1089389
-1089386
-1088604
-1088534
-1089281
-1090032
-1089856
-1089155
-1089137
-1089848
-1090537
-1090471
-1089608
-1089392
-1090107
-1090856
-1090695
-1089905
-1089694
-1090244
-1091035
-1090885
-1090078
-1089939
-1090466
-1091062
-1090830
-1090165
-1089881
-1090509
-1091289
-1091088
-1090293
-1089960
-1090708
-1091263
-1091058
-1090448
-1090215
-1090810
-1091593
-1091275
-1090546
-1090437
-1091063
-1091683
-1091585
-1090801
-1090567
-1091245
-1091815
-1091629
-1090547
-1090415
-1091022
-1091663
-1091440
-1090539
-1090411
-1091070
-1091786
-1091516
-1090661
-1090606
-1091351
-1092111
-1091914
-1091175
-1091070
-1091772
-1092456
-1092266
-1091569
-1091422
-1092085
-1092646
-1092514
-1091685
-1091605
-1092185
-1092948
-1092837
-1092039
-1091891
-1092487
-1093212
-1093086
-1092264
-1092164
-1092981
-1093792
-1093572
-1092827
-1092747
-1093315
-1094125
-1093962
-1093187
-1093085
-1093863
-1094549
-1094503
-1093823
-1093797
-1094414
-1095225
-1094958
-1094445
-1094402
-1095163
-1095886
-1095822
-1095190
-1095058
-1095854
-1096625
-1096468
-1095963
-1095908
-1096590
-1097474
-1097283
-1096630
-1096601
-1097325
-1098151
-1097857
-1097169
-1097127
-1097873
-1098698
-1098345
-1097746
-1097704
-1098323
-1099019
-1098910
-1098217
-1098069
-1098927
-1099634
-1099465
-1098808
-1098534
-1099292
-1100046
-1100037
-1099225
-1099127
-1100011
-1100832
-1100643
-1099849
-1099821
-1100584
-1101288
-1100995
-1100239
-1100254
-1101006
-1101590
-1101542
-1100872
-1100701
-1101512
-1102110
-1101926
-1101233
-1101033
-1101818
-1102487
-1102358
-1101425
-1101500
-1102215
-1102817
-1102596
-1101945
-1101736
-1102497
-1103188
-1102739
-1102007
-1101931
-1102500
-1103175
-1102857
-1102021
-1101852
-1102625
-1103390
-1102939
-1102142
-1102018
-1102747
-1103323
-1103130
-1102419
-1102254
-1102959
-1103643
-1103249
-1102415
-1102350
-1103094
-1103859
-1103606
-1102722
-1102583
-1103391
-1104002
-1103828
-1103076
-1102971
-1103524
-1104290
-1103864
-1103183
-1102995
-1103739
-1104367
-1104032
-1103280
-1103159
-1103803
-1104573
-1104295
-1103420
-1103213
-1104067
-1104807
-1104508
-1103782
-1103770
-1104530
-1105033
-1104831
-1104039
-1103899
-1104658
-1105287
-1104964
-1104234
-1104015
-1104755
-1105227
-1104732
-1103954
-1103595
-1104235
-1104504
-1104019
-1102986
-1102615
-1102710
-1103095
-1102334
-1101220
-1100759
-1100995
-1101211
-1100436
-1099200
-1098522
-1098698
-1098777
-1097828
-1096632
-1096003
-1096193
-1096350
-1095398
-1094227
-1093620
-1093734
-1093860
-1093032
-1091953
-1091315
-1091547
-1091771
-1090993
-1089927
-1089344
-1089760
-1089930
-1089310
-1088239
-1087856
-1088196
-1088663
-1087977
-1086901
-1086518
-1087082
-1087301
-1086690
-1085660
-1085300
-1085790
-1086162
-1085662
-1084752
-1084479
-1084951
-1085316
-1084887
-1083927
-1083720
-1084312
-1084721
-1084106
-1083289
-1083127
-1083612
-1084249
-1083584
-1082737
-1082641
-1083107
-1083602
-1082988
-1081999
-1081972
-1082500
-1082893
-1082498
-1081538
-1081434
-1081950
-1082544
-1082083
-1081214
-1081151
-1081845
-1082337
-1081953
-1081145
-1080892
-1081647
-1082183
-1081724
-1080886
-1080952
-1081585
-1082125
-1081654
-1080791
-1080711
-1081397
-1081996
-1081558
-1080634
-1080562
-1081192
-1081774
-1081415
-1080644
-1080569
-1081237
-1081785
-1081148
-1080600
-1080627
-1081397
-1081948
-1081633
-1080917
-1081028
-1081636
-1082372
-1082121
-1081398
-1081435
-1082318
-1082948
-1082524
-1081916
-1082028
-1082897
-1083682
-1083504
-1082982
-1082985
-1083879
-1084550
-1084265
-1083737
-1083966
-1084804
-1085477
-1085199
-1084509
-1084789
-1085632
-1086330
-1086134
-1085508
-1085580
-1086346
-1086763
-1086559
-1085750
-1086036
-1086725
-1087435
-1087177
-1086574
-1086435
-1087163
-1087899
-1087614
-1086763
-1086870
-1087565
-1088231
-1087756
-1087107
-1086983
-1087673
-1088323
-1087874
-1087111
-1087177
-1087799
-1088429
-1088017
-1087078
-1087054
-1087746
-1088400
-1087868
-1086990
-1087025
-1087574
-1088224
-1087831
-1086907
-1086945
-1087505
-1087943
-1087487
-1086632
-1086428
-1087178
-1087713
-1087373
-1086631
-1086621
-1087273
-1087737
-1087450
-1086583
-1086485
-1087280
-1087709
-1087337
-1086587
-1086568
-1087156
-1087785
-1087327
-1086594
-1086523
-1087270
-1087580
-1087088
-1086354
-1086276
-1086940
-1087497
-1087162
-1086414
-1087333
-1087247
-1087592
-1087096
-1086320
-1086455
-1087247
-1087879
-1087427
-1086699
-1086764
-1087552
-1087776
-1087586
-1086838
-1087030
-1087760
-1088250
-1087811
-1087150
-1087158
-1087867
-1088498
-1088191
-1087510
-1087382
-1088055
-1088691
-1088288
-1087601
-1087532
-1088256
-1088890
-1088530
-1087838
-1087810
-1088574
-1089050
-1088664
-1087962
-1088080
-1088823
-1089257
-1088803
-1088201
-1088166
-1088925
-1089940
-1089161
-1088494
-1088441
-1089316
-1089823
-1089391
-1088847
-1088906
-1089700
-1090346
-1090037
-1089387
-1090103
-1090537
-1090917
-1090586
-1089887
-1089776
-1090748
-1091345
-1091025
-1090363
-1090198
-1091236
-1091846
-1091550
-1090874
-1090899
-1091711
-1092248
-1091796
-1091217
-1091305
-1092075
-1092605
-1092105
-1091563
-1091485
-1092362
-1092999
-1092484
-1091775
-1091832
-1092714
-1093316
-1092808
-1092139
-1092313
-1093158
-1093640
-1093233
-1092475
-1092427
-1093220
-1093977
-1093497
-1092772
-1092896
-1093552
-1094124
-1093630
-1092865
-1092929
-1093662
-1094155
-1093752
-1093030
-1093130
-1093869
-1094411
-1093897
-1093375
-1093400
-1094025
-1094601
-1094036
-1093350
-1093359
-1094218
-1094697
-1094250
-1093606
-1093575
-1094363
-1094870
-1094394
-1093675
-1093724
-1094392
-1094898
-1094471
-1093921
-1093947
-1094708
-1095310
-1094835
-1094067
-1094299
-1095025
-1095480
-1094976
-1094357
-1094491
-1095302
-1095766
-1095320
-1094759
-1094772
-1095586
-1096083
-1095443
-1094787
-1094808
-1095745
-1096268
-1095784
-1094989
-1095116
-1095954
-1096371
-1095932
-1095384
-1095392
-1096106
-1096680
-1096062
-1095374
-1095518
-1096359
-1096647
-1096182
-1095285
-1095344
-1095997
-1096209
-1095590
-1094771
-1094632
-1095148
-1095407
-1094502
-1093498
-1093187
-1093634
-1093710
-1093179
-1091778
-1091346
-1091494
-1091528
-1090454
-1089148
-1088591
-1088796
-1088815
-1087780
-1086564
-1086115
-1086308
-1086200
-1085212
-1084043
-1083489
-1083738
-1083844
-1082736
-1081605
-1081397
-1081703
-1081833
-1080842
-1079718
-1079461
-1079747
-1079879
-1079095
-1077992
-1077797
-1078323
-1078515
-1077725
-1076758
-1076577
-1077102
-1077160
-1076358
-1075404
-1075298
-1075737
-1075882
-1075167
-1074414
-1074255
-1074788
-1074973
-1074303
-1073312
-1073236
-1073787
-1074067
-1073390
-1072418
-1072422
-1072939
-1073300
-1072722
-1071753
-1071668
-1072383
-1072713
-1071693
-1071020
-1070972
-1071557
-1071799
-1071127
-1070184
-1070311
-1070900
-1071139
-1070440
-1069624
-1069395
-1069358
-1069136
-1068584
-1068113
-1068314
-1069252
-1069709
-1068966
-1068001
-1067966
-1068679
-1069198
-1068612
-1067808
-1067904
-1068707
-1069092
-1068494
-1067674
-1067829
-1068542
-1068843
-1068272
-1067594
-1067737
-1068408
-1068629
-1068135
-1067529
-1067681
-1068390
-1068744
-1068115
-1067406
-1067603
-1068349
-1068757
-1068257
-1067462
-1067592
-1068380
-1068736
-1068187
-1067420
-1067740
-1068554
-1069109
-1068584
-1067944
-1068155
-1068818
-1069379
-1068761
-1068175
-1068511
-1069267
-1069802
-1069231
-1068636
-1068922
-1069687
-1070140
-1069677
-1069104
-1069351
-1070121
-1070526
-1070232
-1069673
-1069779
-1070560
-1070911
-1070429
-1069865
-1069588
-1070768
-1071255
-1070747
-1070104
-1070259
-1070911
-1071286
-1070817
-1070037
-1070191
-1070961
-1071313
-1070774
-1070188
-1070236
-1070955
-1071230
-1070737
-1070020
-1070162
-1070976
-1071361
-1070843
-1070130
-1070186
-1071007
-1071389
-1070685
-1070134
-1070297
-1071019
-1071309
-1070896
-1070321
-1070525
-1071057
-1071499
-1070848
-1070218
-1070386
-1071204
-1071545
-1071074
-1070463
-1070706
-1071425
-1071863
-1071300
-1070700
-1070766
-1071596
-1071594
-1071320
-1070744
-1070818
-1071621
-1072057
-1071447
-1070715
-1070903
-1071758
-1072182
-1071583
-1071023
-1071106
-1071810
-1072435
-1071923
-1071244
-1071281
-1072161
-1072354
-1071863
-1071374
-1071566
-1072239
-1072614
-1072150
-1071543
-1071629
-1072454
-1072777
-1072702
-1071753
-1071823
-1072670
-1073017
-1072659
-1071902
-1072054
-1072905
-1073145
-1072767
-1072093
-1072322
-1073165
-1073510
-1072864
-1072224
-1072466
-1073270
-1073532
-1073035
-1072380
-1072580
-1073404
-1073845
-1073193
-1072595
-1072756
-1073532
-1074994
-1073765
-1072838
-1073044
-1073858
-1074237
-1073661
-1072978
-1073374
-1073949
-1074484
-1074106
-1073207
-1073512
-1074363
-1074801
-1074247
-1073527
-1073897
-1074823
-1074864
-1074569
-1074081
-1074297
-1075152
-1075559
-1074809
-1074408
-1074632
-1075485
-1075844
-1075326
-1074776
-1074880
-1075713
-1076148
-1075536
-1075053
-1075417
-1076269
-1076665
-1076093
-1075548
-1075826
-1076730
-1076956
-1076562
-1075985
-1076381
-1077048
-1077554
-1077147
-1076460
-1076866
-1077556
-1078084
-1077686
-1077061
-1077378
-1077875
-1078529
-1077964
-1077467
-1078353
-1078814
-1079024
-1078393
-1077835
-1078095
-1078970
-1079360
-1079516
-1078501
-1078537
-1079278
-1079570
-1078998
-1078474
-1078663
-1079172
-1079814
-1079195
-1078749
-1079024
-1079763
-1080022
-1079491
-1078840
-1079123
-1080095
-1080403
-1079866
-1079137
-1079511
-1080401
-1080673
-1079852
-1079448
-1079783
-1080699
-1080998
-1080401
-1079898
-1080041
-1080924
-1081194
-1080583
-1080138
-1080340
-1081182
-1081598
-1081088
-1080561
-1080682
-1081623
-1081979
-1081262
-1080855
-1081163
-1081908
-1082379
-1081821
-1081196
-1081493
-1082437
-1082678
-1082202
-1081647
-1081993
-1082890
-1082980
-1082596
-1082073
-1082364
-1083244
-1083466
-1083008
-1082436
-1082612
-1083466
-1083803
-1083281
-1082636
-1082747
-1083426
-1083771
-1083067
-1082466
-1082579
-1083083
-1083290
-1082411
-1081483
-1081551
-1082005
-1082061
-1081151
-1080080
-1080001
-1081239
-1082789
-1082264
-1080812
-1079954
-1079667
-1079290
-1078305
-1077822
-1078081
-1078420
-1077817
-1076534
-1075255
-1075033
-1075444
-1075551
-1074739
-1073712
-1073482
-1073794
-1073671
-1072711
-1071785
-1071580
-1072082
-1072000
-1071307
-1070447
-1070472
-1071058
-1070919
-1070038
-1069300
-1069362
-1069891
-1070172
-1069258
-1068658
-1068694
-1069395
-1069400
-1068628
-1067870
-1068051
-1068735
-1068887
-1067985
-1067464
-1067687
-1068273
-1068438
-1067641
-1066919
-1066762
-1067601
-1067802
-1067211
-1066492
-1066743
-1067451
-1067555
-1066844
-1066237
-1066317
-1067006
-1067067
-1066335
-1065771
-1066023
-1066728
-1066899
-1066083
-1065471
-1065738
-1066446
-1066616
-1065980
-1065369
-1065731
-1066497
-1066686
-1066024
-1065368
-1065568
-1066226
-1066546
-1065836
-1065228
-1065512
-1066199
-1066458
-1065717
-1065111
-1065405
-1066165
-1066521
-1065886
-1065269
-1065545
-1066360
-1066742
-1066142
-1065776
-1066092
-1066979
-1067218
-1066588
-1066139
-1066584
-1067485
-1068046
-1067611
-1067021
-1067542
-1068494
-1068997
-1069000
-1068121
-1068510
-1069451
-1069846
-1069413
-1069039
-1069491
-1070473
-1070908
-1070458
-1069938
-1070340
-1071389
-1071703
-1071333
-1070863
-1071160
-1072171
