PPG
-1145658
-1145726
-1144830
-1144571
-1145079
-1145970
-1145921
-1145203
-1144833
-1145348
-1146252
-1146425
-1145754
-1145447
-1145997
-1146827
-1146834
-1146173
-1145808
-1146441
-1148186
-1147640
-1146785
-1146426
-1146967
-1147726
-1147685
-1146847
-1146511
-1147083
-1148056
-1148072
-1147463
-1147266
-1147770
-1148653
-1148630
-1147940
-1147533
-1148071
-1148853
-1148742
-1147990
-1147601
-1148289
-1149117
-1149027
-1148286
-1147990
-1148618
-1149375
-1149381
-1148368
-1148044
-1148610
-1149276
-1149108
-1148259
-1147738
-1147986
-1148889
-1148555
-1147593
-1147081
-1147510
-1148029
-1147712
-1146588
-1146063
-1146165
-1146592
-1146147
-1144913
-1144164
-1144455
-1144877
-1144660
-1143513
-1142824
-1143103
-1143543
-1142969
-1141842
-1141214
-1141312
-1141861
-1141527
-1140397
-1139801
-1140061
-1140122
-1139327
-1138075
-1137318
-1137461
-1137962
-1137454
-1136282
-1135632
-1135722
-1136365
-1135933
-1134884
-1134410
-1134775
-1135434
-1135160
-1134165
-1133826
-1134328
-1134864
-1134635
-1133685
-1133101
-1133753
-1134309
-1133981
-1133097
-1132759
-1133257
-1133973
-1133615
-1132808
-1132365
-1132860
-1133440
-1133216
-1132374
-1131778
-1132340
-1132922
-1132586
-1131763
-1131275
-1131840
-1132362
-1132153
-1131217
-1130858
-1131051
-1131861
-1131567
-1130694
-1130245
-1130742
-1131511
-1131321
-1130307
-1129885
-1130467
-1131078
-1130675
-1129831
-1129389
-1129799
-1130380
-1130227
-1129256
-1128914
-1129269
-1129985
-1129794
-1128979
-1128522
-1129072
-1129660
-1129341
-1128549
-1128309
-1128862
-1129495
-1129275
-1128479
-1128199
-1128855
-1129653
-1129355
-1128727
-1128400
-1128975
-1129733
-1129646
-1128824
-1128449
-1128954
-1129736
-1129783
-1128950
-1128846
-1129482
-1130227
-1130168
-1129424
-1129265
-1129939
-1130815
-1130625
-1130722
-1130062
-1130479
-1131398
-1131372
-1130702
-1130392
-1131014
-1131879
-1131972
-1131115
-1130938
-1131785
-1132633
-1132443
-1131716
-1131650
-1132273
-1133127
-1133181
-1132535
-1132241
-1133135
-1133994
-1133933
-1133278
-1133003
-1133775
-1134695
-1134576
-1133634
-1133603
-1134272
-1134954
-1134658
-1133645
-1133289
-1133963
-1134754
-1134489
-1133458
-1133266
-1133764
-1134643
-1134403
-1133538
-1133352
-1134034
-1134697
-1134692
-1134052
-1133743
-1134543
-1135241
-1135032
-1134165
-1134081
-1134836
-1135567
-1135464
-1134656
-1134267
-1134967
-1135768
-1135495
-1134794
-1134580
-1135101
-1135919
-1135749
-1135004
-1134699
-1135411
-1136152
-1135994
-1135237
-1134861
-1135579
-1136329
-1136146
-1135272
-1135040
-1135616
-1136411
-1136158
-1135366
-1135170
-1135843
-1136572
-1136307
-1135478
-1135310
-1136011
-1136851
-1136680
-1135937
-1135583
-1136369
-1137165
-1137024
-1136165
-1136005
-1136611
-1137398
-1137362
-1136509
-1136861
-1137294
-1138143
-1137929
-1136999
-1136964
-1137706
-1138471
-1138376
-1137623
-1137374
-1137945
-1138840
-1138693
-1137973
-1137666
-1138343
-1139191
-1139012
-1138265
-1138149
-1138744
-1139517
-1139348
-1138488
-1138438
-1139165
-1139988
-1139610
-1138962
-1138870
-1139581
-1140432
-1140305
-1139458
-1139403
-1140216
-1140905
-1140801
-1140087
-1140142
-1140836
-1141718
-1141581
-1140816
-1140847
-1141472
-1142569
-1142217
-1141478
-1141325
-1142232
-1143063
-1142873
-1142905
-1142161
-1142899
-1143729
-1143383
-1142582
-1142634
-1143484
-1144199
-1144206
-1143411
-1143196
-1143881
-1144717
-1144617
-1143930
-1143881
-1144762
-1145424
-1145218
-1144506
-1144557
-1145335
-1146082
-1145966
-1145267
-1145078
-1145937
-1146753
-1146025
-1145304
-1145260
-1145763
-1146518
-1146248
-1145470
-1145356
-1146007
-1146777
-1146643
-1145896
-1145735
-1146557
-1147283
-1147036
-1146446
-1146389
-1147089
-1147808
-1147653
-1146962
-1147005
-1147757
-1148480
-1148375
-1147405
-1147346
-1148257
-1149016
-1148706
-1147848
-1147874
-1148641
-1149408
-1149063
-1148259
-1148331
-1148996
-1149743
-1149460
-1148786
-1148648
-1149357
-1150202
-1150008
-1148772
-1148929
-1149878
-1150527
-1150149
-1149521
-1149530
-1150162
-1150879
-1150713
-1149938
-1149829
-1150493
-1151348
-1151140
-1150314
-1150226
-1151077
-1151744
-1151575
-1150882
-1150751
-1151463
-1152215
-1152097
-1151263
-1151296
-1152052
-1152785
-1152600
-1151739
-1151705
-1152542
-1153164
-1152960
-1152217
-1152408
-1153120
-1153825
-1153746
-1152932
-1152930
-1153742
-1154135
-1154213
-1153591
-1153686
-1154455
-1155177
-1154672
-1153762
-1153665
-1154324
-1154985
-1154641
-1153917
-1153861
-1154476
-1155175
-1154861
-1154214
-1154264
-1155092
-1155815
-1155569
-1154675
-1154773
-1155527
-1156143
-1155971
-1155245
-1155205
-1156018
-1156660
-1156325
-1155512
-1155474
-1156248
-1156925
-1156523
-1155914
-1155784
-1156660
-1157278
-1156857
-1156240
-1156172
-1156947
-1157779
-1157434
-1156778
-1156662
-1157458
-1158227
-1157913
-1157180
-1157165
-1157748
-1158509
-1158200
-1157324
-1157379
-1158005
-1158872
-1158622
-1157881
-1157847
-1158582
-1159322
-1159014
-1158230
-1158348
-1159153
-1159904
-1159463
-1158769
-1158939
-1159659
-1160228
-1159967
-1159231
-1158758
-1159753
-1160293
-1160049
-1159402
-1159345
-1160161
-1160940
-1160461
-1159743
-1159849
-1160647
-1161418
-1161051
-1160237
-1160410
-1161134
-1161866
-1161500
-1160862
-1160797
-1161598
-1162212
-1161910
-1160943
-1161079
-1161957
-1162689
-1162266
-1161529
-1161537
-1162410
-1163005
-1162771
-1162032
-1162024
-1162756
-1164423
-1163463
-1162453
-1162222
-1163088
-1163607
-1163245
-1162354
-1161842
-1162693
-1163404
-1162834
-1161792
-1161514
-1162123
-1162479
-1161933
-1160742
-1160459
-1160830
-1161147
-1160236
-1159142
-1158674
-1159038
-1159168
-1158280
-1157106
-1156664
-1156874
-1156841
-1155884
-1154471
-1153959
-1154177
-1154301
-1153365
-1151999
-1151354
-1151672
-1151928
-1151054
-1149790
-1149391
-1149798
-1149838
-1149239
-1148269
-1148876
-1148723
-1148732
-1148190
-1147263
-1146901
-1147508
-1147888
-1147302
-1146278
-1146143
-1146850
-1147231
-1146748
-1145868
-1145819
-1146519
-1146995
-1146395
-1145408
-1145499
-1146295
-1146843
-1146192
-1145378
-1145272
-1145901
-1146412
-1145975
-1145105
-1145175
-1145946
-1146420
-1145884
-1145121
-1145020
-1145636
-1146200
-1145636
-1144703
-1144749
-1145277
-1145924
-1145381
-1144419
-1144446
-1145028
-1145634
-1145265
-1144268
-1144441
-1145093
-1145739
-1145149
-1144349
-1144277
-1145584
-1145656
-1144972
-1143978
-1143987
-1144710
-1145141
-1144742
-1143963
-1143884
-1144604
-1145118
-1144666
-1143850
-1143830
-1144594
-1145225
-1144768
-1143962
-1143932
-1144644
-1145329
-1144830
-1144017
-1144819
-1145154
-1145720
-1145179
-1144470
-1144621
-1145473
-1146238
-1145683
-1145121
-1145164
-1146097
-1146806
-1146333
-1145753
-1145930
-1146795
-1147270
-1147011
-1146281
-1146329
-1147337
-1147928
-1147362
-1146711
-1147003
-1147674
-1148325
-1148081
-1147219
-1147338
-1148230
-1148927
-1148419
-1147829
-1147891
-1148695
-1148928
-1148909
-1148047
-1148088
-1148943
-1149475
-1148992
-1148179
-1148268
-1149131
-1149700
-1149331
-1148423
-1148499
-1149401
-1150037
-1149558
-1148826
-1148935
-1149740
-1150310
-1149799
-1149000
-1149059
-1149796
-1150366
-1150004
-1149654
-1149412
-1150078
-1150618
-1150119
-1149267
-1149503
-1150329
-1150792
-1150342
-1149606
-1149746
-1150599
-1151157
-1150685
-1149998
-1150189
-1151002
-1151458
-1151047
-1150338
-1150510
-1151471
-1151913
-1151270
-1150780
-1150998
-1151653
-1152205
-1151754
-1150998
-1151192
-1152422
-1152619
-1152128
-1151341
-1151178
-1152190
-1152868
-1152449
-1151736
-1151804
-1152617
-1153229
-1152697
-1152113
-1152277
-1153087
-1153705
-1153207
-1152425
-1152704
-1153556
-1154093
-1153680
-1152887
-1153158
-1153915
-1154369
-1153680
-1152992
-1153177
-1154007
-1154443
-1153898
-1153023
-1153256
-1153992
-1154542
-1154146
-1153437
-1153482
-1154285
-1154841
-1154273
-1153551
-1153704
-1154510
-1155197
-1154615
-1153906
-1154172
-1154968
-1155493
-1154896
-1154172
-1154300
-1155224
-1155721
-1155213
-1154514
-1154590
-1155407
-1156237
-1155390
-1154402
-1154485
-1155254
-1155658
-1155115
-1154407
-1154603
-1155333
-1155760
-1155196
-1154480
-1154633
-1155038
-1155775
-1155275
-1154591
-1154881
-1155792
-1156263
-1155978
-1155276
-1155551
-1156523
-1156994
-1156567
-1155909
-1156128
-1156826
-1157398
-1156919
-1156219
-1156526
-1157162
-1157742
-1157176
-1156360
-1156566
-1157395
-1157800
-1157268
-1156613
-1156905
-1157764
-1158331
-1157914
-1157320
-1157546
-1158328
-1159582
-1158452
-1157623
-1157940
-1158766
-1159227
-1158817
-1158244
-1158264
-1159392
-1159877
-1159403
-1158810
-1159035
-1160063
-1160609
-1160039
-1159520
-1159794
-1160717
-1161217
-1160732
-1160025
-1160294
-1161226
-1161888
-1161299
-1160676
-1160971
-1161834
-1162479
-1162025
-1161395
-1161461
-1162504
-1162926
-1162405
-1161621
-1161875
-1162734
-1163207
-1162496
-1161751
-1161923
-1162818
-1163258
-1162813
-1162249
-1162498
-1163346
-1163711
-1163112
-1162532
-1162754
-1163641
-1164153
-1163532
-1163050
-1163318
-1164096
-1164671
-1164068
-1163469
-1163590
-1164457
-1165055
-1164397
-1163754
-1163825
-1164859
-1165200
-1164737
-1164091
-1164372
-1165212
-1165656
-1165065
-1164169
-1164539
-1165252
-1165850
-1165294
-1164564
-1164676
-1165625
-1166102
-1165528
-1164820
-1165108
-1165960
-1166324
-1165752
-1164803
-1165031
-1166037
-1166338
-1165787
-1164973
-1165271
-1166141
-1166556
-1165984
-1165303
-1165633
-1166770
-1167433
-1166908
-1166197
-1166215
-1167319
-1167806
-1167302
-1166792
-1166913
-1167865
-1168402
-1167866
-1167196
-1167491
-1168337
-1168663
-1168108
-1167369
-1167731
-1168486
-1168781
-1168352
-1167605
-1167884
-1168792
-1169207
-1168719
-1168036
-1168299
-1169437
-1169876
-1169322
-1168535
-1168843
-1169668
-1170278
-1169628
-1169043
-1169261
-1170359
-1170840
-1170294
-1169666
-1169996
-1171061
-1171447
-1170772
-1170232
-1170454
-1171219
-1171623
-1171101
-1170444
-1170587
-1171410
-1171751
-1171167
-1170429
-1170833
-1171792
-1172041
-1171405
-1170824
-1171183
-1172078
-1172483
-1171925
-1171423
-1171565
-1172403
-1172826
-1172300
-1171622
-1171952
-1172835
-1173191
-1172667
-1171975
-1172401
-1173242
-1173566
-1173141
-1172396
-1172654
-1173774
-1174264
-1173535
-1173031
-1173151
-1174236
-1174576
-1174111
-1173378
-1173805
-1174685
-1175096
-1174322
-1173834
-1174123
-1174969
-1175292
-1174737
-1173982
-1174271
-1174982
-1175295
-1174657
-1173699
-1173926
-1174583
-1174748
-1173831
-1172832
-1172966
-1173514
-1173307
-1172307
-1171138
-1171074
-1171509
-1171985
-1170239
-1168926
-1168783
-1169140
-1168766
-1167632
-1166406
-1166238
-1166375
-1166223
-1164906
-1163794
-1163615
-1163904
-1163701
-1162528
-1161523
-1161437
-1161908
-1161657
-1160719
-1159559
-1159480
-1160062
-1160077
-1159752
-1158458
-1158339
-1158827
-1158845
-1158062
-1157597
-1157401
-1158083
-1158031
-1158173
-1156707
-1156676
-1157224
-1157084
-1156419
-1155852
-1155629
-1156531
-1156659
-1155990
-1155185
-1155401
-1156104
-1156276
-1155465
-1154681
-1154838
-1155507
-1156291
-1155020
-1154120
-1154139
-1154799
-1154943
-1154142
-1153380
-1153578
-1154193
-1154314
-1153410
-1152711
-1152940
-1153820
-1154095
-1153252
-1152671
-1152767
-1153505
-1153707
-1153005
-1152411
-1152572
-1153418
-1153545
-1152804
-1151974
-1152143
-1152859
-1153049
-1152438
-1152304
-1152107
-1153378
-1153015
-1152121
-1151429
-1151687
-1152406
-1152558
-1151936
-1151363
-1151701
-1152526
-1152739
-1152043
-1151432
-1151703
-1152520
-1152884
-1152230
-1151515
-1151841
-1152874
-1153149
-1152359
-1151951
-1152213
-1153182
-1153482
-1152646
-1152216
-1152593
-1153616
-1153831
-1153256
-1152632
-1153137
-1154005
-1154219
-1153705
-1153106
-1153536
-1154543
-1154838
-1154183
-1153638
-1154181
-1155050
-1155321
-1154969
-1154685
-1155216
-1156190
-1156542
-1156012
-1155397
-1155746
-1156704
-1156969
-1156161
-1155738
-1156092
-1157009
-1157198
-1156671
-1156147
-1156464
-1157413
-1158607
-1157219
-1156542
-1157069
-1157712
-1157900
-1157235
-1156792
-1157212
-1157956
-1158291
-1157679
-1157125
-1157588
-1158464
-1158721
-1157895
-1157087
-1157868
-1158811
-1159006
-1158077
-1157781
-1158345
-1159131
-1159444
-1158814
-1158241
-1158556
-1159501
-1159676
-1159061
-1158287
-1158881
-1159759
-1159830
-1159135
-1158390
-1158749
-1159574
-1159843
-1159083
-1158490
-1158797
-1159734
-1160006
-1159206
-1158582
-1158996
-1159918
-1160186
-1159377
-1158793
-1159325
-1160246
-1160501
-1159706
-1159255
-1159643
-1160496
-1160644
-1159909
-1159314
-1159795
-1160679
-1160798
-1160111
-1159391
-1159706
-1160636
-1160697
-1159904
-1159373
-1159650
-1160524
-1160784
-1160024
-1159505
-1159781
-1160797
-1160788
-1160184
-1159460
-1159930
-1160866
-1161070
-1160145
-1159541
-1160119
-1160959
-1161000
-1160301
-1159698
-1160210
-1160934
-1161047
-1160313
-1159699
-1160264
-1161012
-1161031
-1160292
-1159801
-1160204
-1160956
-1161078
-1160458
-1159868
-1160363
-1161202
-1161219
-1160530
-1159950
-1160456
-1161326
-1161476
-1160643
-1160247
-1160621
-1161616
-1161736
-1161103
-1160558
-1160766
-1161688
-1161949
-1161298
-1160703
-1161124
-1162003
-1162327
-1161518
-1161005
-1161308
-1162286
-1162326
-1161669
-1161012
-1161586
-1162311
-1162561
-1161931
-1161278
-1161877
-1162657
-1162773
-1162111
-1161687
-1162052
-1162924
-1163076
-1162369
-1161900
-1162435
-1163181
-1163279
-1162673
-1162051
-1162522
-1163413
-1163650
-1163423
-1162561
-1162838
-1163641
-1163747
-1162993
-1162627
-1163074
-1163881
-1163974
-1163004
-1162810
-1163232
-1164082
-1164293
-1163565
-1163069
-1163618
-1164428
-1164423
-1163769
-1163283
-1163728
-1164746
-1164879
-1164212
-1163743
-1164138
-1165706
-1165425
-1164627
-1163961
-1164481
-1166356
-1165808
-1164873
-1164307
-1164880
-1165742
-1165819
-1165096
-1164689
-1164991
-1165977
-1166128
-1165355
-1164601
-1165211
-1166204
-1166105
-1165588
-1165119
-1165613
-1166575
-1166570
-1165968
-1165337
-1165854
-1166623
-1166776
-1166040
-1165567
-1166086
-1166809
-1167014
-1166183
-1165668
-1166155
-1167007
-1167047
-1166423
-1165984
-1166366
-1167305
-1167326
-1166661
-1166160
-1166416
-1167376
-1167455
-1166659
-1166147
-1166771
-1167628
-1167617
-1167019
-1167047
-1167222
-1167956
-1167996
-1167122
-1166691
-1167308
-1168223
-1168389
-1167675
-1167123
-1167504
-1168561
-1168623
-1167809
-1167425
-1167956
-1168744
-1168954
-1168161
-1167853
-1168289
-1169126
-1169153
-1168409
-1168009
-1168628
-1169514
-1169566
-1168747
-1168340
-1168851
-1169765
-1169793
-1168976
-1168584
-1169059
-1169801
-1169849
-1169184
-1168926
-1169361
-1170202
-1170277
-1169437
-1169076
-1169505
-1170481
-1170572
-1169928
-1169493
-1170082
-1171003
-1171159
-1170462
-1170056
-1170696
-1171667
-1171627
-1170890
-1170416
-1171000
-1171974
-1172018
-1171235
-1170682
-1171351
-1172136
-1172259
-1171473
-1171118
-1171705
-1172596
-1172712
-1171879
-1171583
-1172143
-1173032
-1173016
-1172452
-1171964
-1172624
-1173473
-1173465
-1172861
-1172512
-1173190
-1173977
-1173662
-1173059
-1172742
-1173280
-1174229
-1174331
-1173673
-1173269
-1173765
-1174634
-1174706
-1174002
-1173776
-1174230
-1175087
-1175126
-1174379
-1173947
-1174638
-1175384
-1175576
-1174794
-1174550
-1175095
-1175959
-1176072
-1175323
-1174815
-1175072
-1176150
-1176403
-1175695
-1175350
-1175975
-1176794
-1176760
-1176010
-1175679
-1176167
-1176957
-1177090
-1176205
-1175814
-1176208
-1177045
-1176820
-1175870
-1175243
-1175632
-1176336
-1175930
-1174934
-1174134
-1174321
-1174788
-1174181
-1172992
-1172057
-1172220
-1172571
-1172422
-1170791
-1170498
-1169902
-1169948
-1169348
-1167871
-1167113
-1167167
-1167576
-1166960
-1165642
-1164655
-1164867
-1165226
-1164792
-1164128
-1162930
-1163045
-1163362
-1162923
-1161799
-1161113
-1161371
-1161819
-1161368
-1160407
-1159718
-1160058
-1160584
-1160167
-1159302
-1158538
-1159068
-1159723
-1159312
-1158353
-1157726
-1158141
-1158807
-1158454
-1157713
-1157149
-1157678
-1158330
-1158147
-1157237
-1156718
-1157095
-1157840
-1157574
-1156571
-1156062
-1156625
-1157362
-1156974
-1156105
-1155311
-1155808
-1156479
-1156412
-1155406
-1154955
-1155268
-1155948
-1155686
-1154817
-1154181
-1154557
-1155188
-1154917
-1154058
-1153583
-1153890
-1154395
-1154438
-1153576
-1153064
-1153357
-1154030
-1153966
-1152996
-1152517
-1153063
-1153585
-1153468
-1152550
-1151957
-1152555
-1152989
-1153064
-1152107
-1151680
-1152224
-1152955
-1152812
-1151910
-1151438
-1151968
-1152551
-1152373
-1151682
-1151244
-1151902
-1152629
-1152365
-1151588
-1151298
-1151755
-1152703
-1152565
-1151573
-1151331
-1152021
-1153024
-1152904
-1152265
-1151988
-1152629
-1153518
-1153305
-1152681
-1152359
-1153072
-1153829
-1153839
-1153144
-1152894
-1153529
-1154237
-1154168
-1153483
-1153215
-1153827
-1154552
-1154532
-1153649
-1153285
-1154042
-1154810
-1154615
-1153815
-1153529
-1154212
-1155105
-1154732
-1154029
-1153783
-1154309
-1155170
-1154937
-1154173
-1153734
-1154265
-1155039
-1154867
-1153925
-1153720
-1154338
-1155104
-1154832
-1153997
-1153520
-1154247
-1154988
-1154822
-1154042
-1153778
-1154288
-1155000
-1154808
-1153858
-1153454
-1154134
-1154906
-1154719
-1153874
-1153602
-1154209
-1154865
-1154717
-1153815
-1153564
-1154099
-1154861
-1154746
-1153989
-1153646
-1154241
-1154921
-1154878
-1153977
-1153670
-1154299
-1155059
-1154988
-1154227
-1153879
-1154434
-1155392
-1155138
-1154333
-1154144
-1154786
-1155457
-1155357
-1154645
-1154297
-1154984
-1155801
-1155709
-1154899
-1154560
-1155127
-1156069
-1155927
-1155049
-1154769
-1155256
-1156137
-1156181
-1155413
-1155170
-1155759
-1156588
-1156532
-1155709
-1155362
-1156081
-1156813
-1156825
-1155942
-1155690
-1156349
-1157221
-1157053
-1156248
-1155987
-1156591
-1157325
-1157227
-1156395
-1156228
-1156882
-1157555
-1157434
-1156641
-1156289
-1157008
-1157811
-1157737
-1156898
-1156555
-1157347
-1158110
-1157874
-1157011
-1156871
-1157582
-1158101
-1158158
-1157346
-1157142
-1157668
-1158426
-1158435
-1157524
-1157415
-1158033
-1158810
-1158582
-1157844
-1157678
-1158328
-1159144
-1158961
-1158208
-1157887
-1158377
-1159330
-1159204
-1158277
-1158156
-1158756
-1159467
-1159342
-1158453
-1158289
-1158990
-1159711
-1159658
-1158739
-1158506
-1159150
-1159885
-1159729
-1158937
-1158695
-1159489
-1160028
-1159834
-1159135
-1159045
-1159688
-1160552
-1160267
-1159387
-1159182
-1160006
-1160817
-1160449
-1159742
-1159589
-1160269
-1160898
-1160720
-1159981
-1159849
-1160519
-1161262
-1161124
-1160259
-1159999
-1160801
-1161601
-1161444
-1160610
-1160333
-1161001
-1161774
-1161593
-1160839
-1160652
-1161314
-1162192
-1161926
-1161243
-1161077
-1161756
-1162696
-1162335
-1161681
-1161483
-1162114
-1162823
-1162470
-1161826
-1161668
-1162426
-1162802
-1162886
-1162102
-1162061
-1162650
-1163448
-1163352
-1162500
-1162417
-1163072
-1163881
-1163621
-1162824
-1162600
-1163219
-1164126
-1163423
-1163046
-1162811
-1163515
-1164281
-1164208
-1163531
-1163233
-1164001
-1164688
-1164423
-1163657
-1163548
-1164276
-1165079
-1164822
-1164000
-1163953
-1164679
-1165286
-1165069
-1164338
-1164120
-1164922
-1165686
-1165427
-1164618
-1164635
-1165314
-1166035
-1165867
-1165106
-1164884
-1165656
-1166419
-1166269
-1165405
-1165306
-1166093
-1166775
-1166406
-1165680
-1165542
-1166339
-1166956
-1166763
-1166099
-1165888
-1166757
-1167499
-1167263
-1166394
-1166312
-1167063
-1167733
-1166546
-1166516
-1167319
-1167984
-1168281
-1167207
-1166806
-1167544
-1168329
-1168191
-1167410
-1167276
-1167992
-1168672
-1168546
-1167606
-1167643
-1168403
-1169137
-1168898
-1168108
-1167962
-1168789
-1169464
-1169202
-1168271
-1168222
-1168960
-1169679
-1169453
-1168630
-1168549
-1169310
-1169920
-1169761
-1168969
-1168886
-1169600
-1170402
-1170107
-1169340
-1169134
-1169839
-1170456
-1170177
-1169521
-1169321
-1170160
-1170850
-1170510
-1169797
-1169575
-1170392
-1171008
-1170797
-1169891
-1169878
-1170628
-1171385
-1170968
-1170079
-1169981
-1170936
-1171636
-1171341
-1170481
-1170415
-1171109
-1171838
-1171380
-1170547
-1170519
-1171324
-1171938
-1171692
-1170928
-1170772
-1171610
-1172196
-1171993
-1170914
-1171558
-1171962
-1172464
-1172223
-1171472
-1171419
-1172129
-1172796
-1172600
-1171833
-1171633
-1172272
-1173076
-1172766
-1171916
-1171856
-1172673
-1173418
-1172995
-1172150
-1172176
-1172925
-1173614
-1173328
-1172519
-1172491
-1173296
-1174083
-1173822
-1173147
-1172920
-1173782
-1174570
-1175096
-1173904
-1173613
-1174221
-1174857
-1174558
-1173771
-1173765
-1174524
-1175354
-1174962
-1174192
-1174134
-1175014
-1175754
-1175095
-1174488
-1174270
-1175293
-1175960
-1175576
-1174915
-1174751
-1175812
-1176301
-1175872
-1175046
-1174993
-1175509
-1176248
-1175772
-1174841
-1174660
-1175080
-1175660
-1175002
-1173929
-1173524
-1173994
-1174301
-1173357
-1172304
-1171699
-1171980
-1172043
-1171247
-1169973
-1169458
-1169596
-1169745
-1168680
-1167337
-1166790
-1167118
-1167284
-1166233
-1164846
-1164440
-1164767
-1165078
-1164040
-1162703
-1162297
-1162530
-1162830
-1162121
-1160987
-1160483
-1160988
-1161290
-1160638
-1159462
-1159138
-1159736
-1160125
-1159374
-1158468
-1158244
-1158672
-1159142
-1158536
-1157463
-1157411
-1157871
-1158461
-1157895
-1156875
-1156623
-1157327
-1157732
-1157110
-1156225
-1156090
-1156688
-1157198
-1156698
-1155614
-1155412
-1156270
-1156705
-1156137
-1155269
-1155219
-1155798
-1156356
-1155738
-1154859
-1154718
-1155320
-1155787
-1155276
-1154209
-1153979
-1154851
-1155120
-1154411
-1153276
-1153169
-1153689
-1154161
-1153428
-1152508
-1152118
-1152632
-1153184
-1152666
-1151688
-1151644
-1152380
-1152853
-1152364
-1151378
-1151451
-1151907
-1152578
-1152066
-1151226
-1151100
-1151612
-1152072
-1151499
-1150719
-1150710
-1151315
-1151831
-1151442
-1150725
-1150662
-1151449
-1152150
-1151550
-1150654
-1150695
-1151428
-1152116
-1151848
-1151050
-1151163
-1151913
-1152578
-1152254
-1151445
-1151563
-1152529
-1153224
-1152706
-1152083
-1152224
-1153177
-1153904
-1153490
-1152662
-1152839
-1153673
-1154295
-1153842
-1153052
-1153091
-1153843
-1154355
-1153831
-1153091
-1153145
-1153879
-1153983
-1153781
-1152734
-1152982
-1153746
-1154226
-1153784
-1153010
-1152883
-1154391
-1154401
-1153564
-1152627
-1152665
-1153210
-1153811
-1153297
-1152388
-1152399
-1153025
-1153572
-1152983
-1152154
-1152190
-1152857
-1153268
-1152709
-1151816
-1151677
-1152431
-1152896
-1152552
-1151962
-1152143
-1152931
-1153512
-1153962
-1152459
-1152463
-1153154
-1153737
-1153129
-1152326
-1152214
-1153023
-1153421
-1153097
-1152245
-1152285
-1153117
-1153653
-1153175
-1152402
-1152590
-1153335
-1153951
-1153460
-1152599
-1152597
-1153455
-1153861
-1153394
-1152720
-1152814
-1153606
-1154070
-1153630
-1152801
-1152992
-1153624
-1154153
-1153853
-1152931
-1152823
-1153826
-1154597
-1154142
-1153261
-1153316
-1154154
-1154865
-1154418
-1153561
-1153722
-1154517
-1155034
-1154458
-1153721
-1153804
-1154376
-1155296
-1154896
-1154153
-1154895
-1155157
-1155520
-1155183
-1154474
-1154501
-1155910
-1156041
-1155340
-1154622
-1154502
-1155426
-1155878
-1155270
-1154583
-1154719
-1155509
-1156118
-1155758
-1155030
-1155071
-1156018
-1156528
-1155960
-1155267
-1155357
-1156224
-1156773
-1156363
-1155581
-1155715
-1156432
-1157121
-1156634
-1155703
-1155962
-1156688
-1157252
-1156726
-1155995
-1156164
-1156806
-1157379
-1156895
-1156164
-1156299
-1157230
-1157714
-1157175
-1156499
-1156655
-1157316
-1157884
-1157392
-1156561
-1156695
-1157613
-1158164
-1157698
-1156805
-1156946
-1157834
-1158345
-1157974
-1157200
-1157502
-1158328
-1158995
-1158204
-1157755
-1158035
-1158651
-1159400
-1158835
-1158073
-1158187
-1159053
-1159406
-1158973
-1158039
-1158258
-1159056
-1159606
-1159089
-1158373
-1158511
-1159493
-1159899
-1159484
-1158831
-1158925
-1159942
-1160387
-1159738
-1158829
-1159226
-1159959
-1160533
-1160034
-1159353
-1159581
-1160314
-1160856
-1160387
-1159725
-1159913
-1160738
-1160855
-1160558
-1159838
-1160070
-1160991
-1161441
-1160947
-1160158
-1160273
-1161208
-1161727
-1161288
-1160498
-1160784
-1161509
-1162055
-1161655
-1160954
-1161096
-1161895
-1162377
-1161924
-1161280
-1161466
-1162365
-1162799
-1162285
-1161567
-1161685
-1162445
-1162948
-1162546
-1161680
-1161995
-1162818
-1163259
-1162716
-1161901
-1162148
-1162966
-1163413
-1162946
-1162123
-1162017
-1162949
-1163598
-1162900
-1162294
-1162561
-1163318
-1163704
-1163174
-1162537
-1162778
-1163553
-1164104
-1163493
-1162737
-1163006
-1163794
-1164315
-1163851
-1163057
-1163253
-1164180
-1164732
-1164132
-1164240
-1163833
-1164517
-1164985
-1164489
-1163648
-1164003
-1164802
-1165218
-1164688
-1163870
-1164254
-1165121
-1165590
-1164932
-1164091
-1164270
-1165047
-1165590
-1165251
-1164687
-1165028
-1165723
-1166177
-1165676
-1164930
-1165129
-1165710
-1165994
-1166415
-1165761
-1164993
-1165360
-1166045
-1166563
-1165882
-1165336
-1165415
-1166293
-1166568
-1166100
-1165271
-1165581
-1166452
-1166799
-1166371
-1165780
-1166373
-1166986
-1167504
-1167043
-1166500
-1166911
-1167771
-1168226
-1167776
-1166995
-1167362
-1168121
-1168514
-1167976
-1167343
-1167603
-1168535
-1168905
-1168196
-1167463
-1167784
-1168733
-1169136
-1168589
-1167814
-1168007
-1168854
-1169238
-1168591
-1167929
-1168211
-1169081
-1169603
-1168982
-1168296
-1168451
-1169333
-1169772
-1169113
-1168555
-1168749
-1169618
-1169949
-1169237
-1168714
-1168838
-1169818
-1170107
-1169651
-1168584
-1169105
-1170132
-1170656
-1170044
-1169381
-1169625
-1170471
-1170874
-1170083
-1169424
-1169876
-1170612
-1170928
-1170517
-1169919
-1170028
-1170855
-1171249
-1170661
-1170003
-1170398
-1171359
-1171660
-1171073
-1170579
-1170858
-1171671
-1172036
-1171531
-1170798
-1171138
-1171997
-1172540
-1171892
-1171249
-1171691
-1172468
-1172928
-1172434
-1171789
-1171676
-1172853
-1173161
-1172625
-1171978
-1172222
-1173015
-1173452
-1172793
-1172200
-1172519
-1173417
-1173920
-1173178
-1172606
-1173054
-1173840
-1174142
-1173654
-1172953
-1173168
-1174041
-1174397
-1173939
-1173139
-1173433
-1174419
-1174766
-1174160
-1173450
-1173637
-1174558
-1174707
-1174098
-1173239
-1173495
-1174066
-1174276
-1173355
-1172442
-1172419
-1173112
-1173013
-1172183
-1171088
-1171093
-1171628
-1171439
-1170533
-1169493
-1169160
-1169663
-1169575
-1168488
-1167194
-1167076
-1167322
-1167233
-1166211
-1164973
-1164977
-1165285
-1165079
-1164015
-1162823
-1162737
-1163280
-1163163
-1162129
-1160896
-1160822
-1161359
-1161433
-1160382
-1159402
-1159460
-1160005
-1160067
-1158987
-1157993
-1158107
-1158656
-1158746
-1158041
-1157218
-1157325
-1158017
-1158104
-1157313
-1156547
-1156615
-1157260
-1157481
-1156722
-1155883
-1156133
-1156811
-1156925
-1156223
-1155412
-1155509
-1156221
-1156397
-1155634
-1154851
-1155025
-1155691
-1155828
-1155145
-1154288
-1154405
-1155172
-1155112
-1154259
-1153513
-1153683
-1154356
-1154496
-1153630
-1153015
-1153199
-1153802
-1153848
-1153135
-1152266
-1152445
-1153126
-1153152
-1152360
-1151725
-1151815
-1152437
-1152640
-1151826
-1151010
-1151235
-1151872
-1152166
-1151262
-1150512
-1150655
-1151379
-1151603
-1150896
-1150152
-1150375
-1152014
-1151448
-1150828
-1150013
-1150197
-1150954
-1151176
-1150508
-1149827
-1150100
-1151095
-1151215
-1150471
-1149914
-1150341
-1151056
-1151422
-1150832
-1150042
-1150474
-1151088
-1151202
-1150839
-1150334
-1150723
-1151450
-1151864
-1151008
-1150448
-1150793
-1151590
-1151694
-1151088
-1150482
-1150855
-1151639
-1151681
-1150906
-1150474
-1150763
-1151364
-1151631
-1150648
-1149827
-1150218
-1150944
-1151125
-1150355
-1149599
-1149908
-1150550
-1150584
-1149608
-1148734
-1149151
-1150043
-1150219
-1149563
-1149023
-1149278
-1149800
-1150098
-1149444
-1148856
-1149309
-1150134
-1150302
-1149285
-1148754
-1149168
-1150065
-1150235
-1149525
-1148869
-1149164
-1150083
-1150268
-1149462
-1148838
-1149297
-1149996
-1150116
-1149395
-1148804
-1149214
-1149989
-1151115
-1149741
-1149002
-1148979
-1150032
-1150194
-1149634
-1149013
-1149478
-1150315
-1150494
-1149775
-1149092
-1149508
-1150434
-1150651
-1149933
-1149262
-1149762
-1150663
-1150891
-1150204
-1149603
-1149955
-1150646
-1151031
-1150345
-1149762
-1150252
-1151142
-1151259
-1150492
-1150055
-1150341
-1151204
-1151332
-1150535
-1150031
-1150324
-1151200
-1151309
-1150518
-1149903
-1150340
-1151095
-1151170
-1150614
-1150043
-1150350
-1151313
-1151447
-1150704
-1150087
-1150593
-1151232
-1151334
-1150610
-1150085
-1150541
-1151419
-1151627
-1150878
-1150240
-1150640
-1151523
-1151496
-1150747
-1150204
-1150700
-1151402
-1151559
-1150848
-1150354
-1150756
-1151682
-1151573
-1151008
-1150407
-1150839
-1151705
-1151736
-1151049
-1150571
-1150950
-1151830
-1151835
-1151104
-1150638
-1151042
-1151824
-1152046
-1151345
-1150826
-1151179
-1151954
-1152086
-1151195
-1150817
-1151293
-1152285
-1152410
-1151682
-1150994
-1151595
-1152540
-1152567
-1151718
-1151191
-1151759
-1152661
-1152664
-1152018
-1151514
-1152026
-1152879
-1153023
-1152299
-1151661
-1152252
-1153152
-1153220
-1152572
-1151890
-1152416
-1153172
-1153289
-1152583
-1152016
-1152452
-1153318
-1153563
-1152778
-1152341
-1152889
-1153815
-1153805
-1153114
-1152623
-1153071
-1153841
-1153995
-1153340
-1152620
-1153027
-1154040
-1154002
-1153426
-1152904
-1153373
-1154150
-1154309
-1153621
-1153024
-1153437
-1154326
-1154386
-1153718
-1153283
-1153841
-1154674
-1154858
-1154156
-1153694
-1154170
-1154920
-1155057
-1154332
-1153836
-1154240
-1155192
-1155356
-1154679
-1154168
-1154677
-1155492
-1155603
-1154846
-1154278
-1154792
-1155611
-1155731
-1155074
-1154537
-1154975
-1155814
-1156019
-1155148
-1154640
-1155253
-1156199
-1156114
-1155468
-1154909
-1155423
-1156274
-1156257
-1155622
-1155171
-1155519
-1156565
-1156488
-1155859
-1155406
-1155923
-1156754
-1156783
-1156202
-1155472
-1156161
-1157139
-1158028
-1156641
-1156018
-1156372
-1157346
-1157322
-1156571
-1156141
-1156792
-1157664
-1157288
-1156840
-1156562
-1157083
-1157950
-1158034
-1157232
-1156738
-1157953
-1158466
-1158280
-1157458
-1157121
-1157559
-1158479
-1158549
-1157924
-1157525
-1159087
-1159149
-1159286
-1159223
-1158585
-1158063
-1158623
-1159533
-1159569
-1158956
-1158456
-1158974
-1159988
-1160055
-1159341
-1158746
-1159306
-1160314
-1160303
-1159477
-1159124
-1159656
-1160456
-1160545
-1159844
-1159457
-1159973
-1160865
-1160967
-1160191
-1159705
-1160323
-1161276
-1161167
-1160478
-1160103
-1160676
-1161484
-1161532
-1160724
-1160258
-1160755
-1161676
-1161758
-1160940
-1160508
-1161098
-1162009
-1162039
-1161393
-1160995
-1161372
-1162243
-1162840
-1161577
-1160977
-1161541
-1162420
-1162366
-1161715
-1161186
-1161765
-1162564
-1162720
-1161890
-1161581
-1162089
-1162929
-1162945
-1162178
-1161739
-1162145
-1162982
-1163033
-1162011
-1161861
-1162405
-1163347
-1163198
-1162498
-1162102
-1162648
-1163505
-1163568
-1162699
-1162464
-1162977
-1163694
-1163683
-1163038
-1162579
-1163171
-1164230
-1164092
-1163461
-1162975
-1163526
-1164564
-1164589
-1163828
-1163380
-1164006
-1164957
-1164955
-1164052
-1163848
-1164008
-1165232
-1164549
-1164106
-1164708
-1165571
-1165686
-1164969
-1164708
-1165190
-1166021
-1166121
-1165345
-1164902
-1165579
-1166453
-1166506
-1165702
-1165424
-1165933
-1166781
-1166805
-1166100
-1165765
-1166404
-1167129
-1167181
-1166418
-1166004
-1166411
-1167400
-1167162
-1166345
-1165839
-1166434
-1166960
-1166891
-1165802
-1165190
-1165515
-1166263
-1165912
-1164839
-1164035
-1164352
-1164688
-1164113
-1162853
-1162181
-1162405
-1162562
-1162066
-1160750
-1159800
-1159698
-1160090
-1159402
-1158106
-1157214
-1157144
-1157544
-1156890
-1155570
-1154696
-1154777
-1156072
-1154685
-1153373
-1152353
-1152559
-1152924
-1152499
-1151211
-1150544
-1150834
-1151298
-1150896
-1149770
-1148990
-1149219
-1150738
-1149638
-1148415
-1147863
-1148103
-1148232
-1148253
-1147351
-1146744
-1147173
-1147757
-1147067
-1146341
-1145783
-1146256
-1146922
-1146591
-1145462
-1145008
-1145390
-1145903
-1145705
-1144561
-1143975
-1144472
-1145192
-1144683
-1143692
-1143238
-1143619
-1144271
-1143974
-1142831
-1142361
-1142719
-1143300
-1143041
-1141362
-1141756
-1142364
-1140926
-1140470
-1140963
-1141506
-1141119
-1140004
-1139664
-1140035
-1140516
-1140131
-1139301
-1138773
-1139271
-1139828
-1139487
-1138462
-1138007
-1138501
-1139122
-1138832
-1137773
-1137350
-1137843
-1138506
-1138176
-1137357
-1136897
-1137328
-1138095
-1137684
-1136578
-1136261
-1136765
-1137651
-1137353
-1136460
-1136222
-1136711
-1137577
-1137463
-1136669
-1136411
-1136999
-1137665
-1137416
-1136610
-1136347
-1136935
-1137872
-1137559
-1136823
-1136374
-1137158
-1137908
-1137843
-1137065
-1136741
-1137361
-1138115
-1138008
-1137242
-1136893
-1137440
-1138278
-1138149
-1137336
-1137056
-1137514
-1138332
-1138199
-1137380
-1136939
-1137474
-1138244
-1138183
-1137283
-1137144
-1137721
-1138376
-1138188
-1137222
-1136862
-1137134
-1137994
-1137980
-1137035
-1136631
-1137287
-1138096
-1137774
-1136929
-1136565
-1137143
-1137708
-1137242
-1136601
-1136292
-1136906
-1137733
-1137360
-1136354
-1136050
-1136710
-1137340
-1137244
-1136247
-1135901
-1136663
-1137393
-1137003
-1136321
-1136045
-1136738
-1137429
-1137195
-1136352
-1136106
-1136695
-1137454
-1137212
-1136394
-1136140
-1136802
-1137478
-1137296
-1136304
-1136093
-1136821
-1137473
-1137353
-1136386
-1136902
-1137093
-1137640
-1137367
-1136436
-1136130
-1136777
-1137627
-1137376
-1136607
-1136231
-1136828
-1137676
-1137363
-1136485
-1136355
-1137063
-1137851
-1137598
-1136587
-1136406
-1137018
-1137809
-1137491
-1136628
-1136552
-1137086
-1137916
-1137664
-1136717
-1136585
-1137177
-1137929
-1137635
-1136892
-1136681
-1137372
-1138216
-1138001
-1137183
-1136895
-1137571
-1138292
-1138108
-1137388
-1137185
-1137849
-1138590
-1138194
-1137343
-1137238
-1137902
-1138651
-1138386
-1137646
-1137416
-1138087
-1139021
-1138611
-1137922
-1137786
-1138464
-1139048
-1138865
-1138037
-1137896
-1138552
-1139332
-1138976
-1138195
-1137981
-1138745
-1139387
-1139189
-1138433
-1138198
-1138915
-1139666
-1139502
-1138611
-1138412
-1139178
-1139958
-1139610
-1138823
-1138814
-1139385
-1140220
-1139914
-1139017
-1138782
-1139400
-1140215
-1140003
-1139192
-1139005
-1139769
-1140476
-1140210
-1139361
-1139286
-1140118
-1140662
-1140454
-1139607
-1139511
-1140137
-1140925
-1140669
-1139848
-1139776
-1140564
-1141066
-1140923
-1140146
-1139964
-1140711
-1141388
-1141222
-1140403
-1140416
-1140991
-1141816
-1141572
-1140832
-1140700
-1141438
-1142154
-1141777
-1141060
-1140810
-1142419
-1142597
-1142216
-1141334
-1141148
-1141927
-1142650
-1142430
-1141625
-1141349
-1142140
-1143004
-1142679
-1141785
-1141654
-1142342
-1143240
-1142942
-1142086
-1141968
-1142844
-1143426
-1143131
-1142365
-1142391
-1143127
-1143830
-1143559
-1142673
-1142641
-1143477
-1144083
-1143782
-1143134
-1143023
-1143624
-1144463
-1144105
-1143211
-1143190
-1143824
-1144558
-1144224
-1143434
-1143515
-1144237
-1144883
-1144708
-1144010
-1143847
-1144667
-1145405
-1145070
-1144290
-1144157
-1144877
-1145631
-1145246
-1144526
-1144443
-1145254
-1145949
-1145570
-1144822
-1144765
-1145576
-1146255
-1145856
-1145082
-1145152
-1145901
-1146517
-1145958
-1145334
-1145292
-1146077
-1146849
-1146455
-1145608
-1145551
-1146488
-1147044
-1146707
-1145991
-1146009
-1146750
-1147499
-1147221
-1146347
-1146289
-1147150
-1147732
-1147495
-1146655
-1146744
-1147465
-1148022
-1147818
-1147007
-1146939
-1147696
-1148503
-1148056
-1147350
-1147358
-1148186
-1148749
-1148525
-1147809
-1147767
-1148435
-1149217
-1148840
-1148060
-1148070
-1148889
-1149458
-1149435
-1148709
-1148648
-1149522
-1150207
-1149717
-1149033
-1149028
-1149776
-1150406
-1150159
-1149332
-1149271
-1150163
-1150787
-1150427
-1149579
-1149483
-1150305
-1151012
-1150770
-1150024
-1149910
-1150671
-1151192
-1150922
-1150039
-1150194
-1150944
-1151431
-1151097
-1150345
-1150286
-1151000
-1151844
-1151388
-1150462
-1150564
-1151312
-1151977
-1151558
-1150684
-1150617
-1151465
-1152220
-1151880
-1151094
-1150999
-1151857
-1152350
-1151865
-1151220
-1151173
-1151953
-1152682
-1152384
-1151587
-1151630
-1152358
-1153050
-1152524
-1151693
-1151781
-1152503
-1153201
-1152859
-1151946
-1152016
-1152848
-1153440
-1153110
-1152391
-1152279
-1153224
-1153939
-1153549
-1152769
-1152740
-1153446
-1154109
-1153742
-1152986
-1153068
-1153703
-1154354
-1154065
-1153346
-1153387
-1154160
-1154844
-1154492
-1153643
-1153586
-1154433
-1155189
-1154792
-1153949
-1153900
-1154872
-1155357
-1155117
-1154352
-1154335
-1154860
-1155832
-1155499
-1154636
-1154633
-1155614
-1156167
-1155886
-1155078
-1155149
-1156023
-1156634
-1156164
-1155438
-1155493
-1156248
-1156844
-1156431
-1155605
-1155716
-1156511
-1156982
-1156531
-1155672
-1155569
-1156220
-1156745
-1156167
-1155110
-1154731
-1155411
-1155845
-1155109
-1153705
-1153676
-1154125
-1154315
-1153068
-1152063
-1151580
-1151891
-1152112
-1151136
-1149865
-1149490
-1149700
-1149788
-1148620
-1147484
-1146941
-1147086
-1147241
-1146295
-1145021
-1144451
-1144849
-1145016
-1144116
-1142764
-1142335
-1142782
-1142941
-1142085
-1140939
-1140591
-1141001
-1141196
-1140512
-1139512
-1139375
-1139909
-1140153
-1139416
-1138339
-1138206
-1138779
-1139058
-1138356
-1137353
-1137485
-1138124
-1138506
-1137790
-1136778
-1136882
-1137529
-1137936
-1137308
-1136416
-1136347
-1136905
-1137298
-1136597
-1135854
-1135725
-1136396
-1136872
-1136360
-1135504
-1135397
-1136136
-1136536
-1135923
-1135087
-1134992
-1135455
-1135848
-1135158
-1134224
-1134173
-1134892
-1135161
-1134483
-1133525
-1133551
-1134073
-1134381
-1133706
-1132997
-1132885
-1133566
-1133939
-1133195
-1132179
-1132115
-1132787
-1133250
-1132667
-1131723
-1131690
-1132209
-1132717
-1132119
-1131246
-1131181
-1131824
-1132337
-1131700
-1130790
-1130800
-1131536
-1131936
-1131553
-1130601
-1130810
-1131554
-1132108
-1131621
-1130830
-1130932
-1131714
-1132106
-1131553
-1130776
-1130886
-1131757
-1132250
-1131756
-1131090
-1131118
-1132013
-1132401
-1131963
-1131131
-1131238
-1132149
-1132750
-1131986
-1131193
-1131331
-1132239
-1132619
-1132089
-1131361
-1131455
-1132308
-1132610
-1132162
-1131388
-1131292
-1132105
-1132525
-1131883
-1131068
-1131238
-1132037
-1132582
-1131883
-1131091
-1131176
-1131807
-1132200
-1132347
-1130996
-1131093
-1131753
-1132214
-1131564
-1130787
-1130834
-1131465
-1131967
-1131358
-1130476
-1130664
-1131400
-1131881
-1131085
-1130394
-1130480
-1131304
-1131570
-1130955
-1130186
-1130421
-1131158
-1131694
-1130988
-1130299
-1130535
-1131386
-1131821
-1131207
-1130436
-1130603
-1131213
-1131680
-1131161
-1130480
-1130567
-1131283
-1131734
-1131298
-1130535
-1130561
-1131468
-1131785
-1131148
-1130449
-1130699
-1132284
-1132066
-1131460
-1130639
-1130686
-1131514
-1131999
-1131378
-1130641
-1130883
-1131765
-1132267
-1131664
-1130989
-1131107
-1131985
-1132331
-1131757
-1131149
-1131331
-1132111
-1132569
-1131580
-1131189
-1131370
-1132342
-1132775
-1132054
-1131428
-1131530
-1132394
-1132927
-1132380
-1131646
-1131811
-1132526
-1133079
-1132512
-1131642
-1131825
-1132762
-1133269
-1132614
-1131898
-1132005
-1133041
-1133404
-1132866
-1132126
-1132380
-1133283
-1133660
-1132730
-1132197
-1132542
-1133884
-1134019
-1132987
-1132452
-1132779
-1133543
-1134021
-1133483
-1132773
-1132878
-1133711
-1134095
-1133599
-1132856
-1133086
-1134052
-1134359
-1133698
-1133142
-1133359
-1134134
-1134441
-1133916
-1133116
-1133520
-1134240
-1134670
-1134025
-1133304
-1133616
-1134381
-1134776
-1134268
-1133254
-1133758
-1134574
-1134991
-1134266
-1133731
-1133902
-1134715
-1135093
-1134555
-1133990
-1134173
-1135003
-1135509
-1134947
-1134072
-1134362
-1135273
-1135639
-1135001
-1134378
-1134649
-1135602
-1135875
-1135403
-1134832
-1135090
-1135941
-1136285
-1135541
-1134908
-1135043
-1136126
-1136585
-1135908
-1135216
-1135545
-1136409
-1136742
-1136266
-1135488
-1135755
-1136653
-1136970
-1136468
-1135697
-1136068
-1136991
-1137212
-1136610
-1135879
-1136216
-1137063
-1137584
-1136877
-1136260
-1136623
-1137451
-1137823
-1136821
-1136440
-1136846
-1137756
-1138079
-1137498
-1136894
-1137148
-1138017
-1138334
-1137666
-1137069
-1137396
-1138366
-1138722
-1137986
-1137376
-1137566
-1138448
-1138799
-1138096
-1137499
-1138757
-1138964
-1139076
-1138482
-1137912
-1138119
-1138966
-1139318
-1138521
-1137800
-1138150
-1139048
-1139557
-1138876
-1138342
-1138550
-1139158
-1139771
-1139185
-1138525
-1139018
-1139901
-1140180
-1139566
-1138774
-1139147
-1140171
-1140623
-1139848
-1139321
-1139802
-1140759
-1141143
-1140420
-1139767
-1140191
-1141021
-1141408
-1140630
-1140114
-1140330
-1141372
-1141693
-1141029
-1140442
-1140800
-1141816
-1142103
-1141432
-1140876
-1140971
-1141985
-1142201
-1141537
-1140886
-1141401
-1142227
-1142536
-1141901
-1141092
-1141533
-1142531
-1142796
-1142071
-1141409
-1141851
-1142790
-1143136
-1142389
-1141795
-1142233
-1143120
-1143449
-1142826
-1142176
-1142441
-1143449
-1143711
-1143004
-1142529
-1142863
-1143718
-1144106
-1143482
-1144376
-1143673
-1143190
-1143472
-1144291
-1144768
-1144051
-1143414
-1143833
-1144592
-1144947
-1144228
-1143550
-1144019
-1144888
-1145138
-1144575
-1143985
-1144381
-1145127
-1145375
-1144726
-1144113
-1144531
-1145303
-1145586
-1144944
-1144281
-1144694
-1145551
-1145819
-1145186
-1144650
-1144843
-1145666
-1146028
-1145225
-1144754
-1145144
-1145897
-1146184
-1145624
-1145002
-1145292
-1146222
-1146407
-1145818
-1145166
-1145607
-1146298
-1146732
-1146153
-1145664
-1145990
-1146875
-1147128
-1146395
-1145905
-1146298
-1147125
-1147472
-1146731
-1146078
-1146588
-1147526
-1147777
-1147148
-1146657
-1146882
-1147909
-1148150
-1147360
-1146916
-1147358
-1148284
-1148502
-1147847
-1147294
-1147688
-1148640
-1148914
-1148240
-1147568
-1148043
-1149061
-1149174
-1148413
-1147852
-1148436
-1149283
-1149454
-1148771
-1148310
-1148665
-1149492
-1149919
-1149210
-1148752
-1149185
-1150108
-1150230
-1149558
-1149083
-1149479
-1150299
-1150419
-1149770
-1149047
-1149604
-1150286
-1150484
-1149610
-1149066
-1149332
-1149891
-1149894
-1149048
-1148197
-1148332
-1148788
-1148518
-1147473
-1146451
-1146443
-1147007
-1146773
-1145614
-1144498
-1144299
-1144740
-1144288
-1143011
-1141903
-1141836
-1142186
-1141618
-1140415
-1139440
-1139154
-1139636
-1139282
-1138077
-1137012
-1136956
-1137392
-1137056
-1135804
-1134985
-1135055
-1135385
-1135063
-1134101
-1133156
-1133268
-1133850
-1133740
-1132638
-1131801
-1131970
-1132484
-1132305
-1131249
-1130347
-1130508
-1131083
-1130919
-1129869
-1128677
-1129103
-1129667
-1129648
-1128588
-1127776
-1127946
-1128606
-1128617
-1127814
-1127122
-1127345
-1127912
-1127797
-1126890
-1126189
-1126442
-1127132
-1127082
-1126060
-1125393
-1125593
-1126103
-1125818
-1125145
-1124319
-1124527
-1125105
-1125095
-1124111
-1123408
-1123629
-1124330
-1124274
-1123328
-1122619
-1122920
-1123510
-1123324
-1122335
-1121711
-1121906
-1122567
-1122419
-1121555
-1120846
-1121105
-1121725
-1121659
-1120702
-1119956
-1120217
-1120799
-1120668
-1119790
-1119071
-1119532
-1120192
-1120102
-1119284
-1118639
-1118897
-1119551
-1119536
-1118587
-1118025
-1118306
-1119148
-1119101
-1118146
-1117711
-1118181
-1118963
-1118947
-1118204
-1117753
-1118210
-1118952
-1119032
-1118364
-1117782
-1118174
-1119099
-1119157
-1118444
-1117953
-1118408
-1119153
-1119292
-1118674
-1118192
-1118759
-1119476
-1119587
-1118758
-1118310
-1118839
-1119553
-1119646
-1118871
-1118373
-1118814
-1119630
-1119270
-1118692
-1118345
-1118850
-1119616
-1119620
-1119197
-1118405
-1118861
-1119629
-1119513
-1118824
-1118334
-1118812
-1119541
-1119453
-1118885
-1118364
-1118703
-1119473
-1119490
-1118733
-1118278
-1118576
-1119490
-1119497
-1118968
-1118488
-1119067
-1119839
-1119726
-1119073
-1118464
-1118876
-1119730
-1119745
-1118907
-1118440
-1118925
-1119812
-1119731
-1119023
-1118417
-1118982
-1119626
-1119808
-1119009
-1118463
-1118980
-1119781
-1119775
-1119141
-1118656
-1119254
-1119926
-1119980
-1119173
-1118727
-1119250
-1120168
-1120023
-1119337
-1118828
-1119876
-1120438
-1120247
-1119505
-1119125
-1119650
-1120462
-1120489
-1119550
-1119208
-1119693
-1120436
-1120457
-1119832
-1119344
-1119765
-1120722
-1120657
-1119962
-1119441
-1120010
-1120897
-1120828
-1120130
-1119771
-1120355
-1121009
-1121093
-1121334
-1120145
-1120487
-1121300
-1121331
-1120537
-1120048
-1120551
-1121490
-1121321
-1120604
-1120222
-1120704
-1121611
-1121583
-1120818
-1120340
-1120949
-1121825
-1121657
-1120952
-1120610
-1121170
-1121936
-1121903
-1121286
-1120895
-1121440
-1122119
-1122109
-1121413
-1121080
-1121587
-1122351
-1122251
-1121544
-1121115
-1121581
-1122500
-1122332
-1121640
-1121188
-1121812
-1122645
-1122653
-1121860
-1121510
-1122084
-1122917
-1122759
-1121613
-1121509
-1122156
-1123114
-1123036
-1122351
-1121908
-1122349
-1123283
-1123144
-1122398
-1122047
-1122624
-1123500
-1123361
-1122426
-1122142
-1122753
-1123463
-1123415
-1122582
-1122288
-1122866
-1123650
-1123531
-1122946
-1122562
-1123192
-1123875
-1123919
-1123055
-1123319
-1123487
-1124217
-1124140
-1123217
-1122903
-1123588
-1124324
-1124128
-1123426
-1123163
-1123829
-1124558
-1124607
-1123846
-1123485
-1124004
-1124883
-1124751
-1124014
-1123750
-1124394
-1125302
-1125275
-1124464
-1124117
-1124727
-1125392
-1125379
-1124679
-1124454
-1125079
-1125958
-1125788
-1124881
-1124575
-1125163
-1126099
-1126007
-1125300
-1124744
-1125499
-1126444
-1126394
-1125539
-1125200
-1125791
-1126621
-1126563
-1125678
-1126556
-1126434
-1127047
-1126927
-1126104
-1125675
-1126273
-1127115
-1127016
-1126351
-1126177
-1126741
-1127582
-1127483
-1126614
-1126401
-1126965
-1127618
-1127544
-1126727
-1126435
-1127122
-1128028
-1127945
-1127265
-1126936
-1127561
-1128234
-1128214
-1127364
-1127140
-1127794
-1128723
-1128516
-1127630
-1127401
-1128045
-1128927
-1128875
-1128037
-1128739
-1128356
-1129234
-1128979
-1128134
-1127984
-1128638
-1129537
-1129268
-1128475
-1128031
-1128924
-1129633
-1129460
-1128820
-1128577
-1129214
-1129975
-1129712
-1129015
-1128707
-1129459
-1130183
-1130087
-1129261
-1128961
-1129728
-1130435
-1130360
-1129486
-1129191
-1129915
-1130763
-1130624
-1129797
-1129616
-1130159
-1130933
-1130739
-1129909
-1129854
-1130665
-1131525
-1131189
-1130500
-1130182
-1130951
-1131766
-1131444
-1130753
-1130431
-1131105
-1131875
-1131750
-1131078
-1130858
-1131479
-1132277
-1132082
-1131214
-1130956
-1131693
-1132549
-1132354
-1131479
-1131267
-1132005
-1132797
-1132559
-1131803
-1131578
-1132126
-1132974
-1132728
-1131947
-1131767
-1132356
-1133112
-1133005
-1132139
-1131997
-1132635
-1133410
-1133081
-1132285
-1132168
-1132856
-1133695
-1133264
-1132605
-1132485
-1133120
-1133862
-1133680
-1132862
-1132736
-1133292
-1134156
-1133677
-1133054
-1132946
-1133748
-1134528
-1134411
-1133621
-1133486
-1134171
-1134983
-1134653
-1133920
-1133893
-1134626
-1135331
-1135242
-1134352
-1135541
-1134696
-1134608
-1135413
-1136166
-1135931
-1135144
-1135140
-1135735
-1136621
-1136401
-1135665
-1135497
-1136117
-1136518
-1136599
-1135915
-1135886
-1136538
-1137424
-1137118
-1136401
-1136205
-1137008
-1137656
-1137492
-1136709
-1136431
-1137126
-1137840
-1137701
-1136840
-1136795
-1137539
-1138122
-1137812
-1136923
-1136834
-1136895
-1137849
-1137280
-1137733
-1137326
-1136239
-1135841
-1136402
-1136834
-1136193
-1135044
-1135148
-1135114
-1135154
-1134420
-1133127
-1132461
-1132646
-1132933
-1132136
-1130779
-1130165
-1130345
-1130404
-1129679
-1128214
-1127706
-1127909
-1128079
-1127142
-1125772
-1125224
-1125550
-1125694
-1125679
-1123912
-1123238
-1123355
-1123683
-1122929
-1121644
-1121155
-1121446
-1121774
-1121086
-1119956
-1119582
-1119997
-1120362
-1119745
-1118679
-1118517
-1118982
-1119437
-1118765
-1117641
-1117450
-1117940
-1118341
-1117652
-1116632
-1116420
-1117045
-1117275
-1116836
-1115720
-1115456
-1115936
-1116362
-1115900
-1114850
-1114552
-1114996
-1115463
-1114750
-1113777
-1113643
-1113997
-1114455
-1114075
-1113061
-1112848
-1113349
-1113709
-1113200
-1112275
-1111922
-1112500
-1112880
-1112248
-1111357
-1111085
-1111679
-1112158
-1111635
-1110644
-1110386
-1110848
-1111265
-1110768
-1109792
-1109509
-1110087
-1110651
-1110123
-1109031
-1108800
-1109289
-1109630
-1109247
-1108283
-1108016
-1108749
-1109200
-1108857
-1107834
-1107754
-1108338
-1108794
-1108305
-1107472
-1107262
-1107858
-1109514
-1108495
-1107459
-1107200
-1107866
-1108546
-1108149
-1107408
-1107212
-1107950
-1108644
-1108175
-1107422
-1107421
-1108025
-1108562
-1108202
-1107533
-1107463
-1108113
-1108725
-1108451
-1107760
-1107694
-1108358
-1108961
-1108662
-1107980
-1107895
-1108610
-1109101
-1108865
-1108095
-1108139
-1108864
-1109474
-1109109
-1108235
-1108221
-1108811
-1109491
-1109102
-1108404
-1108306
-1109082
-1109686
-1109349
-1108544
-1108472
-1109176
-1109598
-1109152
-1108386
-1108329
-1109149
-1109782
-1109153
-1108424
-1108432
-1109195
-1109809
-1109278
-1108349
-1108353
-1109148
-1109771
-1109369
-1108522
-1108501
-1109063
-1109589
-1109181
-1108368
-1108265
-1109122
-1109566
-1109154
-1108010
-1108270
-1108968
-1109478
-1109130
-1108331
-1108260
-1108915
-1109623
-1109228
-1108385
-1108414
-1109147
-1109623
-1109259
-1108443
-1108650
-1109381
-1109958
-1109605
-1108725
-1108709
-1109558
-1110053
-1109676
-1109011
-1108905
-1109757
-1110429
-1110133
-1109455
-1109388
-1110228
-1110824
-1110529
-1109757
-1109810
-1110697
-1111219
-1110895
-1110254
-1110223
-1111235
-1111724
-1111287
-1110434
-1110625
-1110979
-1111949
-1111563
-1110829
-1110822
-1111682
-1112128
-1111823
-1111104
-1111102
-1111887
-1112567
-1112097
-1111292
-1111355
-1112198
-1112657
-1112260
-1111460
-1111363
-1112070
-1112778
-1112296
-1111605
-1111714
-1112485
-1113051
-1112615
-1111766
-1111783
-1112512
-1113104
-1112641
-1111777
-1111964
-1112719
-1113175
-1112653
-1112016
-1112045
-1112950
-1113432
-1113021
-1112120
-1112378
-1113134
-1113783
-1113363
-1112647
-1112779
-1113560
-1114080
-1113561
-1112863
-1113017
-1113812
-1114321
-1113759
-1113081
-1113057
-1113906
-1114573
-1114063
-1113353
-1113488
-1114242
-1114910
-1114407
-1113450
-1113750
-1114442
-1114784
-1114423
-1113776
-1113934
-1114876
-1115455
-1114856
-1114103
-1114254
-1115027
-1115443
-1115090
-1114405
-1114493
-1115217
-1115727
-1115274
-1114497
-1114665
-1115517
-1115990
-1115471
-1114618
-1114677
-1115666
-1116088
-1115690
-1114830
-1114983
-1115802
-1116316
-1115870
-1115011
-1115188
-1115969
-1116394
-1115912
-1115151
-1115059
-1115976
-1116523
-1116185
-1115457
-1115593
-1116401
-1116853
-1116368
-1115704
-1115796
-1116678
-1117171
-1116562
-1115961
-1116229
-1117005
-1117515
-1117007
-1116276
-1116457
-1117823
-1117199
-1116581
-1116664
-1117530
-1118084
-1117518
-1116780
-1117078
-1117783
-1118440
-1117943
-1117264
-1117450
-1118115
-1118643
-1118273
-1117644
-1117641
-1118278
-1118928
-1118460
-1117762
-1118092
-1118993
-1119437
-1118956
-1118440
-1118587
-1119392
-1120011
-1119494
-1118847
-1119170
-1120041
-1120472
-1119895
-1119318
-1119587
-1120466
-1120913
-1120473
-1119713
-1120021
-1120806
-1121391
-1120810
-1119749
-1120180
-1121095
-1121611
-1121139
-1120604
-1120918
-1121776
-1122279
-1121615
-1120893
-1121108
-1122116
-1122477
-1122146
-1121345
-1121659
-1122503
-1122904
-1122363
-1121777
-1122044
-1122908
-1123316
-1122917
-1122249
-1122398
-1123175
-1123477
-1123184
-1122272
-1122675
-1123663
-1124222
-1123696
-1123094
-1123335
-1123890
-1124456
-1123910
-1123111
-1123285
-1124085
-1124598
-1124092
-1123368
-1123531
-1124425
-1124970
-1124395
-1123712
-1124045
-1124845
-1125420
-1124754
-1124120
-1124442
-1125250
-1125736
-1125069
-1124540
-1124774
-1125603
-1125948
-1125333
-1124709
-1124945
-1125617
-1125972
-1125391
-1124664
-1124879
-1125764
-1126033
-1125529
-1124817
-1124940
-1125613
-1126194
-1125553
-1124797
-1125104
-1125887
-1126228
-1125784
-1125148
-1125491
-1126309
-1126810
-1126165
-1125467
-1125778
-1126817
-1127098
-1126506
-1126018
-1126198
-1127025
-1127391
-1126740
-1126045
-1126356
-1127000
-1127537
-1126920
-1126183
-1126360
-1127288
-1127708
-1127159
-1126387
-1126774
-1127536
-1128064
-1127459
-1126844
-1127268
-1128208
-1128604
-1128079
-1127469
-1127878
-1128801
-1129208
-1128623
-1127905
-1128367
-1129224
-1129550
-1129000
-1128285
-1128611
-1129450
-1129837
-1129291
-1128787
-1129051
-1129908
-1129824
-1129448
-1128796
-1129219
-1130180
-1130377
-1129748
-1129169
-1129356
-1130325
-1130699
-1130029
-1129354
-1129620
-1130559
-1130804
-1130202
-1129581
-1129926
-1130756
-1131230
-1130395
-1129909
-1129999
-1131217
-1131650
-1131159
-1130532
-1130801
-1131644
-1131888
-1131376
-1130653
-1130722
-1131506
-1131709
-1131018
-1130115
-1130271
-1130888
-1130940
-1130022
-1128950
-1128910
-1129362
-1129093
-1128167
-1127110
-1126888
-1127251
-1127047
-1126049
-1124908
-1124796
-1125181
-1124942
-1123821
-1122612
-1122350
-1122280
-1122374
-1121231
-1120126
-1119916
-1120311
-1120051
-1119027
-1117950
-1117622
-1118039
-1117860
-1116496
-1116959
-1116098
-1116363
-1116214
-1115183
-1114201
-1114078
-1114668
-1114546
-1113486
-1112616
-1112562
-1113064
-1112999
-1112028
-1111294
-1111306
-1111784
-1111827
-1110936
-1110173
-1110180
-1110766
-1110779
-1109909
-1109008
-1109122
-1109591
-1109686
-1108844
-1107822
-1107988
-1108602
-1108604
-1107690
-1106745
-1106940
-1107599
-1107640
-1106558
-1105628
-1105839
-1106410
-1106462
-1105515
-1104638
-1104769
-1105357
-1105378
-1104533
-1103684
-1103780
-1104226
-1104186
-1103316
-1102514
-1102609
-1103107
-1103179
-1102290
-1101538
-1101620
-1102267
-1102235
-1101418
-1100558
-1100868
-1101445
-1101489
-1100688
-1099947
-1099999
-1100764
-1100875
-1100031
-1099338
-1099495
-1100244
-1100409
-1099479
-1098776
-1099092
-1099935
-1099904
-1099225
-1098440
-1098753
-1099497
-1099686
-1099051
-1098479
-1098709
-1099504
-1099696
-1099124
-1098377
-1098916
-1099632
-1099906
-1099251
-1098669
-1099083
-1099952
-1100174
-1099360
-1098884
-1099186
-1100043
-1100279
-1099520
-1099099
-1099263
-1100147
-1100270
-1099615
-1099068
-1099063
-1100027
-1100463
-1099672
-1099069
-1099413
-1100197
-1100314
-1099640
-1098975
-1099432
-1100107
-1100285
-1099429
-1098933
-1099180
-1100099
-1100194
-1099466
-1098707
-1099164
-1099794
-1100000
-1099245
-1098673
-1099030
-1099756
-1099801
-1099053
-1098375
-1098701
-1099639
-1099692
-1099003
-1098393
-1098894
-1099903
-1099955
-1099282
-1098818
-1099758
-1100450
-1100429
-1099753
-1099080
-1099562
-1100374
-1100560
-1099872
-1099349
-1099784
-1100676
-1100813
-1100079
-1099030
-1099735
-1100583
-1101277
-1100100
-1099433
-1099983
-1100726
-1100830
-1100038
-1099575
-1099985
-1100804
-1100979
-1100147
-1099720
-1100102
-1100982
-1101129
-1100194
-1099678
-1100080
-1101044
-1101221
-1100323
-1099861
-1100396
-1101166
-1101173
-1100407
-1099978
-1100454
-1101271
-1101327
-1100680
-1100261
-1100627
-1101230
-1101578
-1100940
-1100526
-1101035
-1101944
-1102172
-1101497
-1101035
-1101545
-1102382
-1102351
-1101782
-1101329
-1101784
-1102613
-1102642
-1101903
-1101483
-1101908
-1102822
-1102886
-1102025
-1101607
-1102029
-1102934
-1102976
-1102254
-1101845
-1102325
-1102772
-1103090
-1102545
-1102101
-1102632
-1103371
-1103440
-1102671
-1102244
-1102844
-1103705
-1103753
-1103170
-1102597
-1103071
-1103924
-1104053
-1103265
-1102979
-1103460
-1104300
-1104496
-1103702
-1103372
-1103831
-1104782
-1104752
-1104095
-1103605
-1104086
-1104908
-1105093
-1104399
-1103982
-1104422
-1105331
-1105300
-1104555
-1104188
-1104754
-1105578
-1105582
-1104868
-1104473
-1104893
-1105722
-1105906
-1105127
-1104822
-1105347
-1106151
-1106362
-1105665
-1105168
-1105556
-1106585
-1106493
-1105780
-1105521
-1105955
-1106943
-1106967
-1105987
-1105765
-1106372
-1107301
-1107453
-1106644
-1106228
-1106859
-1107765
-1107774
-1106963
-1106674
-1107234
-1108052
-1108160
-1107461
-1106984
-1107523
-1108395
-1108414
-1107716
-1107410
-1107987
-1108755
-1108807
-1108268
-1107816
-1108418
-1109167
-1109225
-1108555
-1108236
-1108590
-1109449
-1109587
-1108861
-1108411
-1109038
-1109902
-1109958
-1109165
-1108821
-1109297
-1110243
-1110355
-1109594
-1109256
-1109728
-1110510
-1110602
-1109782
-1109374
-1109970
-1110909
-1111025
-1110308
-1110032
-1110792
-1110419
-1111033
-1111933
-1111995
-1111273
-1111605
-1111558
-1112355
-1111608
-1111077
-1111534
-1112423
-1112427
-1111683
-1111199
-1111713
-1112520
-1112537
-1111794
-1111509
-1112063
-1112926
-1113052
-1112301
-1111792
-1112384
-1113339
-1113409
-1112689
-1112289
-1112859
-1113814
-1113855
-1113075
-1112688
-1113214
-1114023
-1114151
-1113073
-1112788
-1113588
-1114613
-1114525
-1113747
-1113422
-1113967
-1114812
-1114851
-1114022
-1113751
-1114374
-1115290
-1115278
-1114552
-1114262
-1114715
-1115662
-1115635
-1114755
-1114165
-1115079
-1115969
-1115862
-1115059
-1115617
-1115648
-1116166
-1115890
-1115515
-1115099
-1115851
-1116571
-1116749
-1115884
-1115661
-1116166
-1117137
-1117143
-1116397
-1116097
-1116784
-1117569
-1117566
-1116611
-1116430
-1117081
-1118044
-1117819
-1117174
-1116938
-1117610
-1118417
-1118476
-1117737
-1117382
-1117901
-1118654
-1118693
-1117822
-1117434
-1118082
-1118961
-1118882
-1118163
-1117890
-1118363
-1119192
-1119059
-1118425
-1118085
-1118642
-1119451
-1119555
-1118755
-1118444
-1119091
-1119849
-1119745
-1119033
-1118634
-1119283
-1120064
-1119976
-1119344
-1118897
-1119531
-1120386
-1120295
-1119508
-1119325
-1119856
-1120642
-1120546
-1119802
-1119628
-1120324
-1121102
-1121064
-1120336
-1120021
-1120671
-1121612
-1121447
-1120833
-1120598
-1121319
-1121996
-1121925
-1121257
-1120997
-1121715
-1122664
-1122603
-1121905
-1121613
-1122343
-1123209
-1123146
-1122431
-1122173
-1122812
-1123736
-1123644
-1122939
-1122418
-1123354
-1124244
-1124159
-1123400
-1123187
-1123811
-1124778
-1124565
-1123936
-1123514
-1124193
-1125003
-1124867
-1123885
-1123662
-1124171
-1124991
-1124763
-1124636
-1123625
-1124111
-1124355
-1124124
-1123096
-1122780
-1123131
-1123774
-1123239
-1122074
-1121576
-1121801
-1122187
-1121598
-1120508
-1119857
-1120079
-1120206
-1119618
-1118270
-1117538
-1117630
-1117869
-1117169
-1115829
-1114955
-1115155
-1115488
-1114793
-1113367
-1112631
-1112835
-1113162
-1112487
-1111426
-1110628
-1110807
-1111199
-1110584
-1109422
-1108784
-1108983
-1109472
-1108851
-1107702
-1107680
-1107678
-1107887
-1107349
-1106188
-1105778
-1106112
-1106684
-1106185
-1105112
-1104806
-1105241
-1105754
-1105226
-1104142
-1103766
-1104221
-1104687
-1104199
-1103100
-1102811
-1103290
-1103809
-1103554
-1102533
-1102172
-1102716
-1103234
-1102810
-1101841
-1101175
-1101874
-1102377
-1101788
-1100901
-1100499
-1100970
-1101443
-1100982
-1100006
-1099501
-1099885
-1100323
-1099969
-1098944
-1098494
-1099071
-1099589
-1099023
-1098143
-1097700
-1098215
-1098754
-1098177
-1097145
-1096924
-1097287
-1097702
-1097298
-1096308
-1096082
-1096523
-1096966
-1096516
-1095648
-1095324
-1095802
-1096185
-1095929
-1095095
-1094673
-1095188
-1095819
-1095406
-1094522
-1094337
-1094961
-1095636
-1095368
-1094348
-1094266
-1094826
-1095579
-1095352
-1094502
-1094343
-1094968
-1095626
-1095453
-1094708
-1094531
-1095100
-1095963
-1095662
-1094971
-1094859
-1095472
-1096167
-1095983
-1095235
-1095180
-1095892
-1096726
-1096412
-1095607
-1095594
-1096254
-1096917
-1096583
-1095870
-1095785
-1096581
-1097341
-1096921
-1096120
-1095964
-1096752
-1097488
-1097140
-1096448
-1096965
-1097584
-1097235
-1096278
-1096928
-1097408
-1096089
-1095995
-1096592
-1097013
-1096884
-1096158
-1095995
-1096672
-1097346
-1096939
-1096963
-1096202
-1096826
-1097302
-1097142
-1096388
-1096272
-1096987
-1097724
-1097430
-1096584
-1096373
-1097029
-1097789
-1097524
-1096552
-1096465
-1097207
-1097847
-1097627
-1096798
-1096732
-1097389
-1098017
-1097594
-1096801
-1096795
-1097472
-1098245
-1097951
-1097145
-1096962
-1097791
-1098553
-1098224
-1097505
-1097427
-1098177
-1098866
-1098473
-1097727
-1097721
-1098308
-1099066
-1098720
-1097806
-1097884
-1098618
-1099378
-1099018
-1098251
-1098047
-1098834
-1098968
-1099036
-1098285
-1098325
-1098935
-1099633
-1099315
-1098622
-1098536
-1099314
-1099896
-1099603
-1098711
-1098645
-1099336
-1100045
-1099771
-1098861
-1098911
-1099503
-1100139
-1099759
-1098906
-1098864
-1099615
-1100329
-1099970
-1099222
-1099196
-1099869
-1100554
-1100159
-1099348
-1099371
-1100075
-1100654
-1100362
-1099584
-1099504
-1100279
-1100817
-1100386
-1099704
-1099569
-1100251
-1100904
-1100477
-1099747
-1099833
-1100499
-1101099
-1100687
-1099907
-1099919
-1100654
-1101343
-1100927
-1100166
-1100074
-1100772
-1101442
-1100920
-1100312
-1100365
-1101163
-1101871
-1101205
-1100472
-1100538
-1101362
-1102005
-1101685
-1101133
-1101209
-1102111
-1102733
-1102413
-1101689
-1101675
-1102588
-1102739
-1102514
-1101760
-1101982
-1102608
-1103369
-1102989
-1102133
-1102286
-1103054
-1103653
-1103400
-1102524
-1102616
-1103460
-1104059
-1103787
-1103047
-1103131
-1103922
-1104579
-1104163
-1103513
-1103621
-1104348
-1104806
-1104343
-1103626
-1103691
-1104428
-1104713
-1104569
-1103934
-1104060
-1104919
-1105426
-1105172
-1104435
-1104460
-1105299
-1105856
-1105568
-1104815
-1104879
-1105639
-1106264
-1105835
-1105145
-1105254
-1105992
-1106526
-1106111
-1105459
-1105581
-1106419
-1106978
-1106700
-1106061
-1106121
-1106891
-1107555
-1107178
-1106497
-1106736
-1107623
-1108273
-1108425
-1108104
-1107450
-1107477
-1108245
-1108876
-1108442
-1107774
-1107672
-1108613
-1109199
-1108751
-1108162
-1108224
-1109086
-1109765
-1109250
-1108444
-1108734
-1109636
-1110166
-1109837
-1109135
-1109275
-1110060
-1110696
-1110206
-1109293
-1109518
-1110363
-1111054
-1110686
-1109837
-1109960
-1110909
-1111525
-1111121
-1110390
-1110468
-1111192
-1111775
-1111388
-1110621
-1110789
-1111692
-1112233
-1111783
-1111106
-1111942
-1112509
-1112007
-1111246
-1111466
-1112370
-1112806
-1112401
-1111733
-1111734
-1112714
-1113244
-1112932
-1112148
-1112402
-1113236
-1113692
-1113226
-1112454
-1112731
-1113541
-1114066
-1113676
-1113003
-1113042
-1113850
-1114488
-1114022
-1113374
-1113628
-1114200
-1114821
-1114417
-1113559
-1113684
-1114564
-1115005
-1114511
-1113793
-1113608
-1114535
-1115160
-1114660
-1113894
-1114005
-1114770
-1115233
-1114840
-1114079
-1114153
-1115049
-1115489
-1115003
-1114236
-1114383
-1115381
-1115951
-1115275
-1114590
-1114853
-1115619
-1116196
-1115703
-1115044
-1115160
-1115972
-1116402
-1115876
-1115112
-1115390
-1116171
-1116766
-1116156
-1115358
-1115661
-1116492
-1117065
-1116550
-1115855
-1116131
-1116991
-1117495
-1116986
-1116373
-1116533
-1117313
-1117853
-1117478
-1116609
-1116455
-1117594
-1118156
-1117651
-1116913
-1117225
-1118055
-1118544
-1117990
-1117203
-1117476
-1118276
-1118873
-1118485
-1117710
-1117994
-1118849
-1119454
-1119014
-1118371
-1118615
-1119529
-1120136
-1119604
-1119024
-1119155
-1120089
-1120666
-1120144
-1119428
-1119729
-1120719
-1121798
-1120797
-1120177
-1120365
-1121129
-1121657
-1121085
-1120559
-1120841
-1121754
-1122167
-1121744
-1121093
-1121342
-1122316
-1122721
-1122242
-1121650
-1121884
-1122832
-1123271
-1122788
-1122204
-1122355
-1123118
-1123440
-1122941
-1122204
-1122316
-1123017
-1123099
-1122242
-1121409
-1121992
-1122103
-1122151
-1121253
-1120125
-1120085
-1120509
-1120551
-1119479
-1118253
-1118198
-1118581
-1118498
-1117518
-1116343
-1115962
-1116287
-1116149
-1115065
-1113862
-1113587
-1113765
-1113718
-1112591
-1111463
-1111055
-1111386
-1111298
-1110116
-1109016
-1108662
-1109046
-1109085
-1108058
-1106889
-1106875
-1107359
-1107308
-1106364
-1105350
-1105214
-1105695
-1105673
-1104860
-1103906
-1103886
-1104328
-1104548
-1103586
-1102651
-1102549
-1103091
-1103137
-1102142
-1101278
-1101152
-1101712
-1101915
-1100991
-1100011
-1099988
-1100578
-1100591
-1099820
-1098983
-1098959
-1099512
-1099460
-1098680
-1097758
-1097742
-1098378
-1098341
-1097596
-1096680
-1096599
-1097277
-1097448
-1096767
-1095717
-1095867
-1096414
-1096559
-1095720
-1094859
-1094932
-1095528
-1095619
-1094471
-1093697
-1093836
-1094491
-1094572
-1093806
-1092770
-1092946
-1093548
-1093712
-1092841
-1091915
-1092046
-1092666
-1092853
-1092063
-1090898
-1091159
-1091710
-1091894
-1091306
-1090552
-1090780
-1091375
-1091656
-1091032
-1090349
-1090597
-1091370
-1091520
-1091002
-1090260
-1090526
-1091359
-1091491
-1090822
-1090257
-1090448
-1091207
-1091576
-1090915
-1090163
-1090485
-1091382
-1092148
-1091182
-1090557
-1090878
-1091745
-1092162
-1091533
-1090984
-1091226
-1092106
-1092469
-1091804
-1091216
-1091563
-1092382
-1092629
-1092052
-1091544
-1091935
-1092712
-1092929
-1092245
-1091690
-1091861
-1092642
-1092763
-1092194
-1091429
-1091842
-1092673
-1092958
-1092128
-1091582
-1092057
-1092798
-1093103
-1092540
-1091959
-1092200
-1093028
-1093254
-1092513
-1091895
-1092030
-1092974
-1093219
-1092572
-1091834
-1092198
-1093037
-1093356
-1092595
-1091933
-1092342
-1093113
-1093319
-1092762
-1092070
-1092407
-1093358
-1093575
-1093054
-1092290
-1092608
-1093450
-1093673
-1093020
-1092516
-1092899
-1093672
-1093873
-1093355
-1092648
-1093127
-1093861
-1094088
-1093391
-1092778
-1093110
-1093971
-1094362
-1093625
-1093130
-1093481
-1094298
-1094632
-1093901
-1093413
-1093767
-1094615
-1094861
-1094281
-1093559
-1093748
-1094653
-1095177
-1094518
-1093908
-1094374
-1095142
-1095498
-1094810
-1094269
-1094692
-1095452
-1095596
-1094703
-1094145
-1094470
-1095332
-1095426
-1094872
-1094216
-1094582
-1095499
-1095715
-1095064
-1094500
-1095698
-1095880
-1096027
-1095391
-1094644
-1095048
-1096091
-1096204
-1095598
-1095037
-1095517
-1096423
-1096451
-1095794
-1095373
-1095753
-1096521
-1096694
-1096582
-1095706
-1096189
-1096893
-1097058
-1096467
-1095886
-1096289
-1097108
-1097194
-1096559
-1096069
-1096519
-1097307
-1097515
-1096943
-1096350
-1096800
-1097653
-1097867
-1097176
-1096512
-1096957
-1097820
-1097975
-1097364
-1096875
-1097215
-1098015
-1098114
-1097519
-1096904
-1097398
-1098290
-1098456
-1097938
-1097519
-1097983
-1098723
-1098928
-1098364
-1097863
-1098245
-1099085
-1099151
-1098562
-1098025
-1098405
-1099343
-1099351
-1098736
-1098270
-1098620
-1099504
-1099649
-1098983
-1098391
-1098736
-1099618
-1099963
-1099193
-1098620
-1099212
-1100118
-1100232
-1099553
-1099126
-1099637
-1100414
-1100633
-1100030
-1099486
-1099857
-1100894
-1100926
-1100362
-1099826
-1100391
-1101214
-1101450
-1100609
-1100265
-1100614
-1101494
-1101676
-1101077
-1100492
-1101016
-1101979
-1102058
-1101491
-1101014
-1101433
-1102446
-1102402
-1101814
-1101328
-1101885
-1102672
-1102770
-1102081
-1101610
-1101881
-1103307
-1103425
-1103338
-1102553
-1101956
-1102470
-1103342
-1103333
-1102735
-1102102
-1102619
-1103547
-1103782
-1103162
-1102667
-1103163
-1104150
-1104327
-1103600
-1103069
-1103654
-1104543
-1104743
-1104033
-1103620
-1104104
-1104976
-1105145
-1104448
-1104005
-1104476
-1105312
-1105338
-1104617
-1104307
-1104877
-1105575
-1105774
-1105144
-1104665
-1105113
-1106039
-1106011
-1105301
-1104901
-1105506
-1106349
-1106550
-1105767
-1105355
-1105946
-1106788
-1106744
-1105998
-1105746
-1106135
-1107051
-1107166
-1106512
-1105979
-1106575
-1107476
-1107578
-1106851
-1106318
-1107008
-1107763
-1107955
-1107186
-1106893
-1107390
-1108109
-1108190
-1107553
-1107122
-1107609
-1108492
-1108441
-1107707
-1107323
-1107909
-1108800
-1108773
-1108209
-1107671
-1108298
-1109139
-1109065
-1108053
-1107909
-1108403
-1109391
-1109336
-1108690
-1108193
-1108782
-1109653
-1109729
-1109029
-1108701
-1109067
-1110080
-1110207
-1109562
-1109170
-1109659
-1110576
-1110512
-1109759
-1109336
-1109900
-1110749
-1110720
-1109916
-1109329
-1109747
-1110490
-1110500
-1109832
-1109260
-1109635
-1110431
-1110305
-1109454
-1108952
-1109516
-1110402
-1110262
-1109331
-1108835
-1109440
-1110266
-1110214
-1109493
-1109001
-1109589
-1110412
-1110371
-1109599
-1109151
-1109714
-1110635
-1110633
-1109983
-1109616
-1110213
-1111043
-1111012
-1110334
-1109874
-1110583
-1111481
-1111547
-1110728
-1110540
-1111360
-1112092
-1112243
-1111542
-1111192
-1111803
-1112744
-1112841
-1112128
-1111833
-1112355
-1113226
-1113178
-1112550
-1112105
-1113273
-1112544
-1112106
-1112822
-1113619
-1113450
-1112719
-1112264
-1112842
-1113742
-1113698
-1112960
-1112728
-1113184
-1114161
-1114091
-1113347
-1112998
-1113779
-1114550
-1114537
-1113803
-1113591
-1114168
-1115069
-1115248
-1114460
-1114133
-1114722
-1116086
-1115702
-1114947
-1114621
-1115166
-1115969
-1115838
-1115027
-1114497
-1115157
-1115763
-1115463
-1114608
-1113937
-1114393
-1114922
-1114430
-1113424
-1112634
-1112702
-1113205
-1112656
-1111506
-1110652
-1110724
-1111073
-1110294
-1109005
-1108076
-1108177
-1108547
-1108030
-1106966
-1106394
-1106522
-1106825
-1106335
-1105062
-1104204
-1104269
-1104662
-1104043
-1102649
-1101876
-1101967
-1102215
-1101756
-1100521
-1099945
-1100203
-1100570
-1100230
-1099235
-1098500
-1098837
-1099367
-1098906
-1097875
-1097362
-1097647
-1098172
-1097747
-1096740
-1096061
-1096553
-1097192
-1096864
-1095954
-1095431
-1095664
-1096309
-1095951
-1095033
-1094540
-1094853
-1095688
-1095429
-1094420
-1094006
-1094406
-1094928
-1094604
-1093635
-1093340
-1093780
-1094422
-1094047
-1092983
-1092486
-1092948
-1093613
-1093126
-1092194
-1091819
-1092231
-1092879
-1092489
-1091529
-1091080
-1091514
-1092251
-1091819
-1090877
-1090424
-1090859
-1091358
-1091149
-1090233
-1089634
-1090203
-1090695
-1090572
-1089653
-1089326
-1089745
-1090389
-1090211
-1089294
-1088991
-1089454
-1090001
-1089748
-1088976
-1088475
-1089195
-1089853
-1089803
-1088911
-1088503
-1089005
-1089754
-1089704
-1088745
-1088497
-1089229
-1089889
-1089906
-1089208
-1088928
-1089448
-1090365
-1090124
-1089310
-1089025
-1089807
-1090468
-1090193
-1089425
-1089361
-1089980
-1090783
-1090436
-1089698
-1089652
-1090337
-1090934
-1090870
-1090094
-1089772
-1090399
-1090901
-1090671
-1089994
-1089608
-1090219
-1090966
-1090640
-1089840
-1089606
-1090071
-1090795
-1090244
-1089669
-1089476
-1089925
-1090511
-1090270
-1089289
-1089055
-1089704
-1090291
-1089984
-1089276
-1088932
-1089496
-1090171
-1090016
-1089071
-1088858
-1089359
-1090172
-1090035
-1089138
-1088820
-1089443
-1090141
-1089893
-1089006
-1088730
-1089201
-1090095
-1089877
-1089145
-1088852
-1089498
-1090311
-1090197
-1089246
-1089057
-1089839
-1090572
-1090354
-1089591
-1089471
-1090059
-1090800
-1090622
-1089741
-1089689
-1090387
-1091082
-1090794
-1089687
-1089642
-1090320
-1091024
-1090800
-1089949
-1089902
-1090495
-1091351
-1090722
-1090230
-1090193
-1090708
-1091455
-1091254
-1090563
-1090450
-1091095
-1091869
-1091672
-1090831
-1090541
-1091249
-1091771
-1091604
-1090712
-1090655
-1091122
-1091773
-1091428
-1090716
-1090490
-1091278
-1091872
-1091643
-1090986
-1090940
-1091635
-1092339
-1092258
-1091492
-1091560
-1092355
-1093018
-1092776
-1092045
-1092065
-1092876
-1093482
-1093217
-1092564
-1092366
-1093007
-1093663
-1093257
-1092437
-1092333
-1092947
-1093633
-1093476
-1093507
-1092703
-1093061
-1093942
-1093792
-1092990
-1092858
-1093529
-1094221
-1093895
-1093219
-1093098
-1093887
-1094373
-1094155
-1093513
-1093235
-1093866
-1094556
-1094334
-1093447
-1093209
-1093943
-1094444
-1094316
-1093582
-1093514
-1094193
-1094446
-1094375
-1093679
-1093674
-1094408
-1095088
-1094680
-1094218
-1094082
-1094876
-1095671
-1095339
-1094578
-1094600
-1095323
-1096026
-1095809
-1095220
-1095108
-1095966
-1096663
-1096478
-1095770
-1095705
-1096531
-1097207
-1096900
-1096147
-1096188
-1096840
-1097600
-1097194
-1096362
-1096266
-1097110
-1097649
-1097181
-1096522
-1096396
-1097030
-1097529
-1097146
-1096225
-1096207
-1096850
-1097465
-1097058
-1096152
-1096021
-1096548
-1097042
-1096746
-1095971
-1095859
-1096417
-1096972
-1096567
-1095831
-1096370
-1096463
-1097029
-1096994
-1096440
-1096485
-1097283
-1098145
-1097848
-1097216
-1097931
-1098132
-1098739
-1098412
-1097715
-1097692
-1098339
-1098945
-1098742
-1097961
-1097929
-1098928
-1099629
-1099260
-1098440
-1098324
-1099056
-1099899
-1100572
-1099220
-1098847
-1099578
-1100261
-1099953
-1099258
-1099331
-1099964
-1100768
-1100355
-1099690
-1099621
-1100382
-1101193
-1100791
-1100193
-1100196
-1100861
-1101509
-1101242
-1100569
-1100524
-1101157
-1101744
-1101500
-1100835
-1100772
-1101444
-1102115
-1101743
-1101113
-1101314
-1101931
-1102563
-1102353
-1101604
-1101719
-1102467
-1103067
-1102771
-1102041
-1102016
-1102772
-1103555
-1103011
-1102344
-1102365
-1103120
-1103666
-1103327
-1102540
-1102558
-1103228
-1103820
-1103551
-1102836
-1103029
-1103458
-1104259
-1103784
-1103124
-1103090
-1103834
-1104549
-1104144
-1103373
-1103475
-1104191
-1104870
-1104578
-1103711
-1103854
-1104720
-1105354
-1104968
-1104272
-1104340
-1105258
-1105977
-1105534
-1104945
-1104747
-1105673
-1106288
-1105925
-1105155
-1105207
-1105816
-1106477
-1106064
-1105258
-1105384
-1106136
-1106748
-1106319
-1105636
-1106600
-1106589
-1106952
-1106531
-1105965
-1105818
-1106488
-1107078
-1106726
-1105960
-1106107
-1106886
-1107586
-1107017
-1106327
-1106322
-1107236
-1107981
-1107363
-1107021
-1107390
-1108048
-1108666
-1108263
-1107510
-1107454
-1108258
-1108885
-1108356
-1107649
-1107647
-1108421
-1108875
-1108351
-1107780
-1107972
-1108646
-1109263
-1108970
-1108334
-1108288
-1109240
-1109873
-1109432
-1108838
-1108882
-1109762
-1110396
-1109918
-1109302
-1109297
-1110215
-1110752
-1110291
-1109649
-1109724
-1110558
-1111253
-1110793
-1109988
-1110196
-1111001
-1111680
-1111248
-1110553
-1110712
-1111515
-1112022
-1111760
-1110935
-1111182
-1111817
-1112447
-1111799
-1111013
-1111212
-1112070
-1112411
-1111764
-1110980
-1110858
-1111320
-1111751
-1110990
-1110033
-1109952
-1110267
-1110513
-1109789
-1108753
-1108434
-1108969
-1109165
-1108332
-1107046
-1106606
-1106997
-1107050
-1106123
-1104978
-1104641
-1104981
-1104946
-1104014
-1102750
-1102313
-1102523
-1102603
-1101651
-1100486
-1100247
-1100535
-1100623
-1099700
-1098539
-1098207
-1098782
-1098905
-1098076
-1096814
-1096289
-1096771
-1097046
-1096154
-1095084
-1094917
-1095687
-1095973
-1095022
-1093921
-1093865
-1094366
-1094659
-1093902
-1092747
-1092697
-1093230
-1093428
-1092765
-1091790
-1091643
-1092122
-1092473
-1091666
-1090682
-1090368
-1090930
-1091198
-1090384
-1089615
-1089731
-1090363
-1090507
-1089749
-1088760
-1088538
-1089190
-1089085
-1088746
-1087946
-1087807
-1088396
-1088475
-1087743
-1086825
-1086895
-1087457
-1087829
-1086890
-1085979
-1086629
-1086568
-1086886
-1085952
-1085129
-1085041
-1085858
-1086110
-1085441
-1084524
-1084570
-1084982
-1085141
-1084338
-1083492
-1083374
-1084062
-1084570
-1083941
-1083183
-1083390
-1084058
-1084363
-1083743
-1082783
-1082969
-1083758
-1083994
-1083372
-1082702
-1082661
-1083363
-1083568
-1083035
-1082168
-1082314
-1083248
-1083812
-1083182
-1082555
-1082698
-1083660
-1084115
-1083678
-1083054
-1083351
-1084173
-1084782
-1084068
-1083521
-1083754
-1084691
-1085158
-1084626
-1083776
-1083949
-1084618
-1084971
-1084225
-1083584
-1083671
-1084465
-1084772
-1084257
-1083312
-1083827
-1085055
-1085807
-1085132
-1084401
-1084633
-1085317
-1085727
-1085081
-1084014
-1084530
-1085489
-1085801
-1085209
-1084435
-1084749
-1085539
-1086043
-1085545
-1084940
-1085189
-1085920
-1086314
-1085580
-1084975
-1085154
-1086005
-1086363
-1085765
-1085064
-1085367
-1086021
-1086501
-1085915
-1085248
-1085420
-1086286
-1086631
-1086072
-1085347
-1085636
-1086375
-1086956
-1086435
-1085801
-1086008
-1086877
-1087200
-1086691
-1086093
-1086363
-1087149
-1087589
-1087023
-1086407
-1086600
-1087436
-1087931
-1087214
-1087321
-1087115
-1087880
-1088195
-1087427
-1086819
-1087109
-1087897
-1088204
-1087593
-1086837
-1087261
-1088187
-1088562
-1087953
-1087522
-1087749
-1088896
-1089457
-1089076
-1088488
-1088843
-1089621
-1089893
-1089229
-1088500
-1088856
-1089459
-1089767
-1089148
-1088632
-1089040
-1089885
-1090556
-1090041
-1089008
-1089097
-1090124
-1090764
-1090260
-1089630
-1089828
-1090689
-1091190
-1090552
-1089790
-1090035
-1090859
-1091311
-1090698
-1090247
-1090470
-1091297
-1091582
-1091051
-1090481
-1090819
-1091650
-1092226
-1091501
-1090760
-1090591
-1091469
-1092085
-1091408
-1090759
-1091001
-1091859
-1092105
-1091543
-1090866
-1091031
-1091886
-1092324
-1091716
-1091069
-1091268
-1092144
-1092350
-1091854
-1091439
-1091854
-1092763
-1093018
-1092335
-1091689
-1092279
-1093103
-1093531
-1092928
-1092777
-1093383
-1094332
-1094390
-1093714
-1093093
-1093365
-1094240
-1094619
-1094152
-1093712
-1093991
-1094943
-1095149
-1094496
-1094013
-1094345
-1095330
-1095549
-1094892
-1094372
-1094716
-1095596
-1095837
-1095335
-1094741
-1095139
-1096057
-1096410
-1095829
-1095110
-1095511
-1096423
-1096771
-1096175
-1095540
-1095753
-1096518
-1096855
-1096130
-1095434
-1095655
-1096589
-1096733
-1096269
-1095697
-1096117
-1097620
-1097410
-1096707
-1096079
-1096506
-1097447
-1097801
-1097246
-1096566
-1096946
-1097952
-1098157
-1097475
-1096943
-1097187
-1098064
-1098605
-1098020
-1097502
-1097913
-1098862
-1099218
-1098511
-1097926
-1098357
-1099210
-1099332
-1098761
-1098143
-1098576
-1099470
-1099828
-1099077
-1098458
-1099006
-1099951
-1100268
-1099576
-1099156
-1099514
-1100533
-1100917
-1100306
-1099624
-1100100
-1100923
-1101101
-1100473
-1099799
-1100339
-1101194
-1101458
-1100706
-1100201
-1100670
-1101569
-1101749
-1101167
-1100590
-1101191
-1101982
-1102297
-1101717
-1101073
-1101681
-1102637
-1102855
-1102141
-1101663
-1101914
-1102984
-1103291
-1102688
-1102016
-1102600
-1103597
-1103606
-1103032
-1102532
-1102900
-1103812
-1104035
-1103480
-1102966
-1103074
-1104179
-1104358
-1103757
-1103310
-1103743
-1104684
-1104890
-1104237
-1103764
-1104216
-1104975
-1105190
-1104513
-1104106
-1104524
-1105342
-1105784
-1105091
-1104794
-1105264
-1106130
-1106326
-1105701
-1105240
-1105732
-1106716
-1106885
-1106189
-1105674
-1106112
-1107177
-1107462
-1106742
-1106220
-1106631
-1107623
-1107860
-1107205
-1106687
-1107137
-1108166
-1108333
-1107575
-1107111
-1107694
-1108678
-1108816
-1108231
-1107801
-1108334
-1109350
-1109559
-1108901
-1108467
-1108996
-1109941
-1110066
-1109370
-1108900
-1109557
-1110583
-1110773
-1110314
-1109912
-1110367
-1111152
-1111230
-1110496
-1110026
-1110505
-1111331
-1111562
-1110856
-1110377
-1110715
-1111554
-1111478
-1111055
-1110711
-1111148
-1112075
-1112245
-1111561
-1111171
-1111716
-1112516
-1112749
-1112224
-1111764
-1112260
-1113072
-1113167
-1112520
-1112034
-1112680
-1113524
-1113676
-1113106
-1112577
-1113166
-1114070
-1114092
-1113492
-1113124
-1113581
-1114554
-1114666
-1114098
-1113564
-1114035
-1114997
-1115129
-1114579
-1114176
-1114711
-1115747
-1115798
-1115235
-1114712
-1115343
-1116235
-1116474
-1116703
-1116833
-1116132
-1115627
-1116289
-1116958
-1117170
-1116472
-1115950
-1116428
-1117339
-1117424
-1116670
-1116112
-1116389
-1117088
-1117039
-1116048
-1115228
-1115495
-1116131
-1115997
-1114925
-1113973
-1114156
-1114621
-1114301
-1113239
-1112253
-1112290
-1112773
-1112381
-1111166
-1110237
-1110572
-1110070
-1108780
-1107759
-1107688
-1108127
-1107497
-1106338
-1105310
-1105289
-1105656
-1105275
-1104042
-1103237
-1103261
-1103642
-1103359
-1102306
-1101464
-1101660
-1102213
-1101931
-1100822
-1100003
-1100217
-1100635
-1100334
-1099227
-1098689
-1098963
-1099510
-1099367
-1098400
-1097791
-1098028
-1098659
-1098530
-1097645
-1096874
-1097279
-1097867
-1097764
-1096833
-1096153
-1096545
-1097324
-1097177
-1096351
-1095861
-1096268
-1096864
-1096801
-1095920
-1095421
-1095854
-1096523
-1096286
-1095401
-1094870
-1095119
-1095818
-1095740
-1094907
-1094291
-1094667
-1095437
-1095375
-1094467
-1093863
-1094269
-1094839
-1094668
-1093761
-1093194
-1093730
-1094411
-1094327
-1093462
-1092949
-1093407
-1094671
-1094132
-1093031
-1092455
-1092729
-1093388
-1093314
-1092486
-1092047
-1092463
-1093096
-1093018
-1092269
-1091747
-1092255
-1092895
-1092863
-1092093
-1091630
-1092113
-1092858
-1092832
-1092173
-1091680
-1092126
-1093098
-1093070
-1092310
-1091789
-1092422
-1093285
-1093352
-1092628
-1092303
-1092992
-1093732
-1093759
-1092961
-1092634
-1093113
-1094092
-1094202
-1093558
-1093085
-1093712
-1094537
-1094732
-1094081
-1093766
-1094469
-1095444
-1095482
-1094656
-1094419
-1094996
-1095919
-1095907
-1094921
-1094448
-1094931
-1095586
-1095670
-1094880
-1094486
-1094953
-1095614
-1095474
-1094807
-1094306
-1094775
-1095748
-1095630
-1094725
-1094282
-1094761
-1095567
-1095498
-1094596
-1094021
-1094424
-1095090
-1094929
-1094067
-1093547
-1094157
-1094914
-1095009
-1094206
-1093949
-1094539
-1095241
-1095357
-1094544
-1094317
-1094873
-1095681
-1095585
-1094929
-1094689
-1095224
-1096083
-1095883
-1095093
-1094680
-1095231
-1095981
-1095844
-1095285
-1094788
-1095321
-1096203
-1096147
-1095307
-1094914
-1095420
-1096668
-1096316
-1095512
-1095201
-1095618
-1096487
-1096415
-1095712
-1095383
-1096045
-1097019
-1096848
-1096182
-1095744
-1096396
-1097171
-1097195
-1096378
-1096048
-1096656
-1097398
-1097451
-1096570
-1096411
-1096985
-1097708
-1097664
-1096932
-1096679
-1097163
-1098139
-1097711
-1097233
-1097052
-1098029
-1099061
-1099003
-1098224
-1097977
-1098446
-1099311
-1099287
-1098468
-1098144
-1098507
-1099430
-1099362
-1098675
-1098386
-1098627
-1099789
-1099757
-1099122
-1098887
-1099619
-1100344
-1100245
-1099479
-1099215
-1099831
-1100609
-1100417
-1099818
-1099436
-1100202
-1100961
-1101033
-1100290
-1099951
-1100637
-1101431
-1101221
-1100575
-1100282
-1100866
-1101756
-1101703
-1100908
-1100573
-1101293
-1102007
-1101904
-1101181
-1100984
-1101392
-1102420
-1102370
-1101675
-1101272
-1101991
-1102637
-1102529
-1101733
-1101633
-1102242
-1103107
-1102836
-1102192
-1101985
-1102674
-1103373
-1103128
-1102500
-1102343
-1103030
-1103824
-1103554
-1102892
-1102777
-1103301
-1104125
-1103919
-1103013
-1102939
-1103498
-1104349
-1104219
-1103423
-1103103
-1103657
-1104463
-1104282
-1103606
-1103325
-1104022
-1104950
-1104894
-1104237
-1104012
-1104720
-1105499
-1105446
-1104699
-1104563
-1105109
-1105875
-1105883
-1105162
-1105019
-1105544
-1106309
-1106190
-1105467
-1105481
-1106166
-1106765
-1106674
-1106018
-1105832
-1106691
-1107417
-1107200
-1106552
-1106367
-1107161
-1107931
-1107621
-1106863
-1106581
-1107254
-1108111
-1107934
-1107291
-1107171
-1107923
-1108972
-1108770
-1108066
-1107821
-1108392
-1109192
-1108999
-1108388
-1108207
-1108963
-1109758
-1109586
-1108853
-1108696
-1109423
-1110937
-1110225
-1109392
-1109094
-1109853
-1110632
-1110479
-1109693
-1109561
-1110267
-1110960
-1110713
-1110050
-1109989
-1110695
-1111747
-1111557
-1110892
-1110883
-1111659
-1112262
-1112243
-1111669
-1111532
-1112435
-1113233
-1112850
-1111955
-1111781
-1112450
-1113335
-1112954
-1112062
-1111745
-1112433
-1112863
-1112898
-1112318
-1112206
-1113000
-1113799
-1113661
-1112913
-1112683
-1113405
-1114187
-1114139
-1113415
-1113321
-1113935
-1114662
-1114594
-1113888
-1113570
-1114445
-1115061
-1114908
-1113989
-1113965
-1114677
-1115445
-1115073
-1114229
-1114215
-1114938
-1115720
-1115492
-1114650
-1114513
-1115148
-1115840
-1115593
-1114719
-1114655
-1115370
-1116037
-1115799
-1115035
-1114803
-1115438
-1116197
-1115895
-1114997
-1114960
-1115463
-1116462
-1116416
-1115641
-1115479
-1116320
-1117274
-1117144
-1116420
-1116419
-1117220
-1118076
-1117925
-1117194
-1117322
-1118065
-1118870
-1118702
-1118059
-1117986
-1119013
-1119782
-1119658
-1118952
-1118917
-1119780
-1120590
-1120382
-1119365
-1119297
-1120190
-1120925
-1120584
-1119826
-1119752
-1120377
-1121127
-1120748
-1119958
-1119821
-1120452
-1121572
-1120600
-1119723
-1120636
-1120392
-1121021
-1120624
-1119682
-1119565
-1120238
-1120899
-1121451
-1119809
-1119406
-1120143
-1121392
-1120702
-1119946
-1119916
-1120737
-1121357
-1120930
-1120171
-1119958
-1120516
-1121135
-1120627
-1119489
-1119275
-1119660
-1120051
-1119404
-1118253
-1117625
-1118030
-1118240
-1117423
-1116122
-1115502
-1115837
-1115965
-1115206
-1113983
-1113432
-1113607
-1113788
-1112956
-1111700
-1111264
-1111394
-1111662
-1110898
-1109672
-1109161
-1109448
-1109636
-1108846
-1107675
-1107307
-1107603
-1107970
-1107455
-1106414
-1106068
-1106406
-1106808
-1106328
-1105245
-1104818
-1105418
-1105865
-1105332
-1104189
-1103899
-1104377
-1104841
-1104173
-1103152
-1102907
-1103330
-1103765
-1103146
-1102123
-1101933
-1102459
-1103012
-1102460
-1101464
-1101228
-1101836
-1102367
-1102042
-1101072
-1100891
-1101453
-1101902
-1101367
-1100560
-1100473
-1101032
-1101467
-1101029
-1100294
-1100184
-1100806
-1101449
-1101004
-1100132
-1100040
-1100705
-1101331
-1100876
-1100108
-1099997
-1100621
-1101340
-1100716
-1100006
-1099513
-1100295
-1100926
-1100448
-1099689
-1099479
-1100256
-1100840
-1100411
-1099586
-1099260
-1099938
-1100610
-1100016
-1099035
-1099167
-1099890
-1100367
-1099909
-1098978
-1098852
-1099444
-1099892
-1099490
-1098449
-1098287
-1099043
-1099689
-1099112
-1098362
-1098213
-1098938
-1099584
-1099138
-1098494
-1098366
-1099242
-1099811
-1099480
-1098872
-1098923
-1099777
-1100435
-1100083
-1099445
-1099551
-1100355
-1101010
-1100332
-1099857
-1099969
-1100754
-1101453
-1100996
-1100296
-1100343
-1101223
-1101910
-1101364
-1100747
-1100852
-1101669
-1102205
-1101915
-1101105
-1101174
-1102015
-1102700
-1102327
-1101448
-1101539
-1102431
-1103059
-1102687
-1101990
-1101932
-1102656
-1103343
-1102883
-1102030
-1102029
-1102911
-1103487
-1103156
-1102348
-1102461
-1103023
-1103678
-1103285
-1102455
-1102503
-1103177
-1103655
-1103217
-1102381
-1102324
-1103122
-1103488
-1103100
-1102310
-1102290
-1103020
-1103470
-1102870
-1102288
-1102306
-1103039
-1103586
-1103259
-1102411
-1102505
-1103263
-1103961
-1103484
-1102703
-1102822
-1103636
-1104277
-1104458
-1103353
-1103415
-1104183
-1104869
-1104549
-1103804
-1103952
-1104734
-1105411
-1104955
-1104136
-1104313
-1105073
-1105713
-1105316
-1104511
-1104774
-1105515
-1106157
-1105706
-1104858
-1105119
-1105964
-1107421
-1106351
-1105484
-1105506
-1106447
-1106892
-1106500
-1105824
-1106021
-1106800
-1107432
-1107124
-1106312
-1106350
-1107363
-1107978
-1107517
-1106788
-1106849
-1107761
-1108265
-1107895
-1107138
-1107156
-1108061
-1108526
-1108139
-1107327
-1107548
-1108418
-1108850
-1108335
-1107635
-1107834
-1108618
-1108922
-1108561
-1107726
-1108009
-1108724
-1109193
-1108867
-1107998
-1108049
-1108853
-1109429
-1109046
-1108403
-1108436
-1109210
-1109638
-1109210
-1108437
-1108537
-1109348
-1109767
-1109318
-1108494
-1108706
-1109501
-1110518
-1109541
-1108702
-1108823
-1109655
-1110116
-1109464
-1108717
-1108944
-1109797
-1110250
-1110296
-1109211
-1109130
-1109866
-1110507
-1109968
-1109185
-1109461
-1110434
-1111054
-1110595
-1109819
-1110159
-1111066
-1111584
-1111128
-1110516
-1110731
-1111649
-1112247
-1111934
-1111434
-1111634
-1112714
-1113362
-1112901
-1112375
-1112750
-1113615
-1114149
-1113952
-1113455
-1113660
-1114679
-1115322
-1114892
-1114401
-1114732
-1115736
-1116409
-1116021
-1115556
-1115895
-1116951
-1117559
-1117121
-1116558
-1116883
-1117315
-1117323
-1116645
-1116090
-1116337
-1117105
-1117345
-1116882
-1116044
-1116333
-1117109
-1117236
-1116768
-1116230
-1116505
-1117500
-1117855
-1117430
-1116665
-1116914
-1117748
-1118310
-1117938
-1117247
-1117283
-1118215
-1118675
-1118222
-1117433
-1117647
-1118496
-1119142
-1118654
-1117613
-1118086
-1118995
-1119573
-1119192
-1118555
-1118919
-1119785
-1120357
-1119790
-1119188
-1119381
-1120353
-1120787
-1119933
-1119330
-1119426
-1120291
-1120607
-1120068
-1119003
-1119130
-1119711
-1119917
-1119202
-1118401
-1118460
-1119312
-1120128
-1119926
-1119598
-1119904
-1120731
-1121234
-1120950
-1120376
-1120770
-1121750
-1122186
-1121697
-1121065
-1121156
-1122171
-1122595
-1121794
-1121313
-1121639
-1122552
-1122864
-1122300
-1121769
-1121957
-1122964
-1123458
-1122809
-1122272
-1122439
-1123360
-1123903
-1123438
-1122662
-1122983
-1123900
-1123091
-1124719
-1124208
-1123594
-1123998
-1124986
-1125436
-1124905
-1124415
-1124768
-1125753
-1126308
-1125856
-1125086
-1125638
-1126779
-1127238
-1126896
-1126438
-1126641
-1127480
-1127730
-1127304
-1126551
-1126893
-1127583
-1128145
-1127446
-1126777
-1127182
-1128023
-1129110
-1127787
-1126803
-1127494
-1128519
-1128824
-1128352
-1127688
-1128113
-1129011
-1129444
-1128897
-1128093
-1128664
-1129710
-1130098
-1129572
-1129038
-1129316
-1130179
-1130281
-1129908
-1129441
-1130402
-1130698
-1131024
-1130555
-1129764
-1130230
-1131121
-1131603
-1130829
-1130251
-1130680
-1131408
-1132806
-1131987
-1132224
-1132168
-1133270
-1133162
-1132432
-1131683
-1132037
-1133006
-1133274
-1132724
-1132166
-1132435
-1133250
-1133817
-1133121
-1132570
-1132995
-1133912
-1134417
-1133824
-1133319
-1133604
-1134565
-1135019
-1134294
-1133743
-1134161
-1135179
-1135490
-1134936
-1134252
-1134568
-1135536
-1137057
-1135579
-1134885
-1135095
-1135836
-1136133
-1135489
-1134838
-1135160
-1135808
-1136114
-1135298
-1134537
-1134805
-1135421
-1135448
-1134538
-1133572
-1133544
-1133986
-1134048
-1132954
-1131964
-1131717
-1132229
-1132072
-1130895
-1129884
-1129736
-1129974
-1129808
-1128319
-1127491
-1127438
-1127765
-1127446
-1126399
-1125367
-1125108
-1125592
-1125576
-1124559
-1123467
-1123344
-1123947
-1123811
-1122725
-1121625
-1121601
-1122325
-1122436
-1121441
-1120569
-1120682
-1121345
-1121459
-1120562
-1119709
-1119982
-1120673
-1120751
-1120139
-1119319
-1119685
-1120420
-1120524
-1119878
-1119143
-1119355
-1120189
-1120385
-1119837
-1119105
-1119433
-1120317
-1120597
-1119979
-1119385
-1119472
-1120398
-1120598
-1119963
-1119272
-1119686
-1120562
-1120777
-1119931
-1120352
-1120012
-1120667
-1120855
-1120062
-1119234
-1119739
-1120436
-1120744
-1120033
-1119542
-1119786
-1120532
-1120703
-1120020
-1119302
-1119645
-1120429
-1120563
-1119995
-1119322
-1119490
-1120287
-1120546
-1119863
-1119205
-1119477
-1120315
-1120506
-1119811
-1119101
-1119442
-1120308
-1120430
-1119720
-1119117
-1119413
-1120059
-1120827
-1119953
-1119167
-1119168
-1120377
-1120669
-1119999
-1119387
-1119922
-1120860
-1121089
-1120460
-1119868
-1120323
-1121300
-1121632
-1121019
-1120562
-1120744
-1121963
-1122331
-1121681
-1121281
-1121727
-1122778
-1123048
-1122381
-1121995
-1122392
-1123299
-1123601
-1123053
-1122503
-1122884
-1123896
-1124319
-1123663
-1122976
-1123484
-1125449
-1125016
-1124194
-1123532
-1123902
-1124881
-1125145
-1124561
-1124029
-1124258
-1125125
-1125393
-1124739
-1124058
-1124491
-1125279
-1125406
-1124714
-1124166
-1124616
-1125462
-1125604
-1124915
-1125037
-1125395
-1125777
-1125758
-1124859
-1124339
-1124747
-1125606
-1125825
-1125127
-1124518
-1124932
-1125786
-1125843
-1125217
-1124723
-1125875
-1126221
-1126155
-1125392
-1125427
-1126295
-1126484
-1125871
-1125244
-1125723
-1126699
-1126854
-1126088
-1125605
-1126059
-1127101
-1127378
-1126682
-1126091
-1126592
-1127533
-1127712
-1127009
-1126694
-1127040
-1127826
-1128226
-1127468
-1127043
-1127579
-1128312
-1128612
-1127821
-1127500
-1128019
-1128971
-1129207
-1128534
-1127896
-1128341
-1129295
-1129412
-1128773
-1128218
-1128635
-1130068
-1129889
-1129032
-1129038
-1129030
-1129799
-1129884
-1129203
-1128689
-1129209
-1130042
-1130195
-1129511
-1128976
-1129415
-1130235
-1130385
-1129780
-1129243
-1129799
-1130776
-1130961
-1130238
-1129660
-1130106
-1131080
-1131262
-1130656
-1130049
-1130470
-1131404
-1131661
-1130742
-1130471
-1130991
-1132016
-1133050
-1131707
-1131196
-1131565
-1132411
-1132763
-1132140
-1131572
-1132081
-1132913
-1133110
-1132503
-1132288
-1132496
-1133656
-1133854
-1133371
-1133067
-1133615
-1134492
-1134719
-1134107
-1133720
-1134289
-1135082
-1135428
-1134747
-1134213
-1134848
-1135789
-1135988
-1135416
-1134830
-1135418
-1136251
-1136435
-1135743
-1135428
-1135893
-1136861
-1136923
-1136219
-1135755
-1136343
-1137261
-1137412
-1136675
-1136180
-1136627
-1137515
-1137627
-1136911
-1136471
-1136843
-1137879
-1137259
-1136742
-1137042
-1138176
-1138232
-1137604
-1137200
-1137681
-1138509
-1138552
-1138009
-1137412
-1137966
-1138792
-1138950
-1138197
-1137679
-1138387
-1139291
-1139454
-1138768
-1138381
-1138806
-1139733
-1139742
-1139175
-1138659
-1139217
-1140174
-1140127
-1139409
-1139003
-1139487
-1140366
-1140395
-1139748
-1139266
-1139872
-1140768
-1140887
-1140100
-1139691
-1140123
-1141063
-1141108
-1140438
-1139924
-1140600
-1141504
-1141645
-1140928
-1140537
-1141023
-1141911
-1142021
-1141392
-1140859
-1141918
-1142613
-1142537
-1141823
-1141352
-1141953
-1142827
-1142961
-1142343
-1141934
-1142548
-1143419
-1143598
-1142919
-1142546
-1143092
-1144076
-1144137
-1143444
-1143108
-1143682
-1144408
-1144587
-1143932
-1143451
-1144171
-1144945
-1145157
-1144462
-1144037
-1144660
-1145665
-1145608
-1144983
-1144506
-1145058
-1146033
-1146032
-1145314
-1145036
-1145642
-1146570
-1146478
-1145897
-1145528
-1146124
-1147015
-1147102
-1146232
-1145905
-1146602
-1147483
-1147659
-1146833
-1146503
-1147104
-1147896
-1148004
-1147259
-1146866
-1147465
-1148333
-1148329
-1147570
-1147234
-1147886
-1148729
-1148849
-1148028
-1147583
-1148075
-1148958
-1148920
-1148212
-1147908
-1148562
-1149339
-1149428
-1148691
-1148433
-1148889
-1149843
-1149577
-1149027
-1148883
-1149544
-1150307
-1150433
-1149722
-1149387
-1150021
-1150913
-1150845
-1150234
-1149825
-1150405
-1151415
-1151566
-1150920
-1150533
-1151056
-1151965
-1151950
-1151288
-1150963
-1151548
-1152436
-1152518
-1151787
-1151460
-1152097
-1152858
-1152779
-1151738
-1151670
-1152426
-1153314
-1153285
-1152623
-1152283
-1152855
-1153693
-1153708
-1152961
-1152593
-1152834
-1153940
-1153955
-1153176
-1152788
-1152773
-1153868
-1153796
-1153049
-1152599
-1152918
-1153592
-1153199
-1152233
-1151548
-1151783
-1152422
-1152061
-1150712
-1150042
-1150090
-1150510
-1150008
-1148766
-1147815
-1147918
-1148211
-1148676
-1146723
-1145629
-1145742
-1145983
-1145600
-1144287
-1143523
-1143603
-1144271
-1143598
-1142281
-1141498
-1141738
-1142008
-1141602
-1140522
-1139776
-1140139
-1140768
-1140351
-1139140
-1138568
-1138926
-1139344
-1139033
-1138096
-1137598
-1137977
-1138441
-1138341
-1137353
-1136678
-1137069
-1137813
-1137621
-1136802
-1136251
-1136759
-1137517
-1137151
-1136262
-1135909
-1136491
-1137203
-1137035
-1136260
-1135828
-1136269
-1137347
-1136971
-1136125
-1135756
-1136295
-1137025
-1136767
-1135957
-1135500
-1136103
-1136915
-1136841
-1135958
-1135788
-1136221
-1137071
-1136756
-1135929
-1135512
-1136188
-1136870
-1136789
-1135850
-1135485
-1136142
-1136916
-1136789
-1135864
-1135594
-1136035
-1136855
-1136720
-1135864
-1135488
-1136000
-1136760
-1136640
-1135876
-1135233
-1135996
-1136709
-1136477
-1135772
-1135540
-1135974
-1136733
-1136681
-1135904
-1135629
-1136094
-1136871
-1136895
-1136133
-1135845
-1136489
-1137344
-1137255
-1136398
-1136127
-1136942
-1137781
-1137786
-1137053
-1136616
-1137528
-1138449
-1138394
-1137798
-1137693
-1138381
-1139453
-1139426
-1138757
-1138514
-1139230
-1140356
-1140266
-1139601
-1139447
-1140206
-1141101
-1140862
-1140206
-1140075
-1140860
-1141654
-1141664
-1140984
-1140799
-1141558
-1142400
-1142342
-1141479
-1141204
-1141972
-1142904
-1142766
-1142006
-1141724
-1142336
-1143142
-1143079
-1142302
-1141936
-1142661
-1143615
-1143256
-1142505
-1142165
-1142823
-1143711
-1143559
-1142663
-1142425
-1143121
-1143786
-1143650
-1142805
-1142519
-1143099
-1143950
-1143696
-1142815
-1142512
-1143272
-1143963
-1143812
-1142993
-1142669
-1143394
-1144048
-1143913
-1143055
-1142727
-1143364
-1144197
-1144026
-1143188
-1142990
-1143566
-1144453
-1144318
-1143299
-1143153
-1143807
-1144539
-1144298
-1143423
-1143120
-1143816
-1144717
-1144378
-1143574
-1143445
-1144151
-1144770
-1144647
-1143773
-1143577
-1144134
-1145090
-1144884
-1144087
-1143858
-1144571
-1145308
-1145035
-1144171
-1144041
-1144649
-1145443
-1145218
-1144543
-1144239
-1144743
-1145639
-1145418
-1144545
-1144471
-1145190
-1146041
-1145809
-1145031
-1144874
-1145579
-1146485
-1146113
-1145504
-1145279
-1145997
-1146955
-1146852
-1146115
-1146009
-1146867
-1147726
-1147461
-1146695
-1146663
-1147468
-1147007
-1147711
-1148457
-1148318
-1147572
-1147488
-1148234
-1149014
-1148847
-1148042
-1147877
-1148593
-1149401
-1149208
-1148487
-1148232
-1149080
-1149850
-1149551
-1148887
-1148679
-1149518
-1150244
-1150065
-1149393
-1149187
-1150024
-1150754
-1150721
-1150037
-1149894
-1150550
-1151440
-1151269
-1150572
-1150451
-1151096
-1151864
-1151704
-1150990
-1150861
-1151551
-1152409
-1152240
-1151474
-1151554
-1152186
-1153019
-1152862
-1152154
-1151918
-1152743
-1153622
-1153471
-1152702
-1152660
-1153525
-1154310
-1154064
-1153280
-1153209
-1153958
-1154882
-1154630
-1153942
-1153783
-1154542
-1155363
-1155143
-1154544
-1154376
-1155257
-1156082
-1155920
-1155029
-1154938
-1155781
-1156508
-1156305
-1155534
-1155560
-1156285
-1157033
-1156923
-1156155
-1156123
-1156945
-1157641
-1157471
-1156618
-1156655
-1157448
-1158180
-1157914
-1157196
-1157116
-1157854
-1158758
-1158505
-1157691
-1157591
-1158540
-1159219
-1159029
-1158297
-1158296
-1159087
-1159970
-1159755
-1158999
-1158940
-1159648
-1160564
-1160267
-1159309
-1158890
-1159010
-1159756
-1159463
-1158761
-1158619
-1159120
-1159790
-1159479
-1158804
-1158825
-1159446
-1160134
-1160084
-1159357
-1159219
-1160077
-1160915
-1160730
-1159984
-1159990
-1160630
-1161362
-1161117
-1160505
-1160414
-1161009
-1161840
-1161502
-1160583
-1160648
-1161454
-1162240
-1161936
-1161081
-1161104
-1161942
-1162660
-1162418
-1161644
-1161501
-1162457
-1163211
-1162818
-1162139
-1162083
-1162832
-1163572
-1163406
-1162629
-1162444
-1163210
-1164112
-1163636
-1162866
-1162852
-1163690
-1164298
-1163981
-1163191
-1163244
-1163913
-1164703
-1164424
-1163636
-1163674
-1164362
-1165013
-1164679
-1163964
-1163945
-1164894
-1165566
-1165269
-1164182
-1164439
-1165218
-1166044
-1165565
-1165022
-1165062
-1165821
-1166707
-1166433
-1165525
-1165411
-1166314
-1166959
-1166669
-1165984
-1165975
-1166894
-1167479
-1167262
-1166467
-1166472
-1167262
-1167836
-1167472
-1166902
-1166926
-1168333
-1168612
-1168056
-1167350
-1167317
-1168228
-1169004
-1168501
-1167891
-1167766
-1168708
-1169459
-1169166
-1168315
-1168496
-1169287
-1169960
-1169536
-1168752
-1168878
-1169654
-1170366
-1170137
-1169290
-1169273
-1170071
-1170857
-1170480
-1169790
-1169782
-1170670
-1171450
-1171112
-1170288
-1170398
-1171212
-1171780
-1171587
-1170831
-1170941
-1171656
-1172366
-1171906
-1171199
-1171239
-1171910
-1172715
-1172341
-1171565
-1171512
-1172271
-1172879
-1172512
-1171624
-1171553
-1172298
-1172790
-1172151
-1171137
-1170942
-1171426
-1171831
-1171184
-1170038
-1169598
-1169962
-1169970
-1169200
-1167765
-1167378
-1167644
-1167679
-1166789
-1165336
-1164905
-1165179
-1165339
-1164201
-1162948
-1162444
-1162722
-1162766
-1161934
-1160678
-1160210
-1160581
-1160759
-1160034
-1158768
-1158580
-1158975
-1159415
-1158568
-1157537
-1157379
-1157982
-1158304
-1157770
-1156797
-1156692
-1157117
-1157761
-1157134
-1156314
-1156255
-1156720
-1157332
-1156778
-1155867
-1155783
-1156622
-1157052
-1156536
-1155603
-1155588
-1156225
-1156741
-1156304
-1155272
-1155200
-1155965
-1156515
-1155969
-1155157
-1155100
-1155838
-1156335
-1155806
-1155019
-1155076
-1155814
-1156202
-1155769
-1154935
-1154792
-1155594
-1156158
-1155663
-1154681
-1154641
-1155303
-1155833
-1155385
-1154482
-1154554
-1155247
-1155815
-1155184
-1154394
-1155154
-1155484
-1155771
-1155178
-1154215
-1154312
-1155025
-1155560
-1155099
-1153701
-1153695
-1154786
-1155410
-1154765
-1153895
-1153862
-1154590
-1155144
-1154697
-1153763
-1153678
-1154565
-1155148
-1154728
-1153926
-1153937
-1154797
-1155370
-1154824
-1154137
-1154237
-1155016
-1155535
-1155175
-1154355
-1154563
-1155504
-1156143
-1155728
-1155050
-1155098
-1156033
-1156552
-1156368
-1155667
-1155712
-1156593
-1157330
-1156936
-1156174
-1156404
-1157387
-1157871
-1157531
-1156862
-1156930
-1157841
-1158401
-1157822
-1157240
-1157316
-1158191
-1158800
-1158332
-1157562
-1157601
-1158520
-1159076
-1158602
-1157745
-1157802
-1158607
-1159187
-1158684
-1157946
-1158097
-1158889
-1159312
-1158692
-1158400
-1158164
-1158872
-1159472
-1158882
-1158128
-1158351
-1159061
-1159533
-1159202
-1158374
-1158489
-1159289
-1159849
-1159490
-1158689
-1158910
-1159855
-1160379
-1159783
-1159076
-1159238
-1160086
-1160817
-1160387
-1159678
-1159893
-1160700
-1161267
-1160701
-1159864
-1160178
-1161053
-1161591
-1160983
-1160310
-1160443
-1161350
-1161736
-1161214
-1160547
-1160666
-1161615
-1162151
-1161585
-1160958
-1161156
-1161928
-1162583
-1162058
-1161314
-1161344
-1162285
-1162977
-1162556
-1161915
-1162163
-1163050
-1163625
-1163143
-1162492
-1162788
-1163666
-1164217
-1163781
-1163144
-1163361
-1164160
-1164704
-1164063
-1163459
-1163563
-1164433
-1164987
-1164586
-1163837
-1163783
-1164788
-1165431
-1164885
-1164212
-1164408
-1165309
-1165728
-1165341
-1164636
-1164886
-1165757
-1166216
-1165635
-1164993
-1165093
-1165900
-1166580
-1166010
-1165238
-1165510
-1166291
-1166755
-1166250
-1165514
-1165832
-1166798
-1167345
-1166716
-1166014
-1166212
-1167153
-1167609
-1167165
-1166389
-1166691
-1167587
-1168023
-1167601
-1166930
-1167169
-1168045
-1168453
-1167939
-1167270
-1167597
-1168397
-1169020
-1168516
-1167766
-1167834
-1168722
-1169388
-1168752
-1168096
-1168428
-1169329
-1169861
-1169304
-1168499
-1168765
-1169727
-1170061
-1169453
-1168890
-1169017
-1169989
-1170528
-1170024
-1169402
-1169551
-1170458
-1170842
-1170348
-1169648
-1169989
-1170833
-1170750
-1171304
-1171867
-1171379
-1170738
-1170567
-1171820
-1172360
-1171761
-1171141
-1171317
-1172409
-1172941
-1172361
-1171652
-1171921
-1172883
-1173321
-1172608
-1172044
-1172381
-1173235
-1173761
-1173265
-1172460
-1172752
-1173589
-1174205
-1173789
-1173043
-1173326
-1174350
-1174737
-1174318
-1173702
-1173875
-1174809
-1175449
-1175037
-1174355
-1174504
-1175609
-1176075
-1175575
-1174900
-1175240
-1176161
-1176723
-1176093
-1175453
-1175779
-1176739
-1177301
-1176764
-1176149
-1176417
-1177412
-1177836
-1177369
-1176763
-1176981
-1177930
-1178442
-1177865
-1177291
-1177531
-1178549
-1179019
-1178399
-1177774
-1178037
-1178997
-1179373
-1178823
-1178221
-1178436
-1179232
-1179617
-1179181
-1178583
-1178895
-1179788
-1180276
-1179662
-1178963
-1179260
-1180276
-1180575
-1180065
-1179469
-1179702
-1180534
-1181149
-1180489
-1179952
-1179911
-1181068
-1181356
-1180819
-1180235
-1180267
-1181160
-1181537
-1180701
-1180179
-1180386
-1181310
-1181602
-1181100
-1180462
-1180613
-1181651
-1182007
-1181509
-1180778
-1181209
-1182025
-1182438
-1181869
-1181278
-1181475
-1182414
-1182729
-1182025
-1181484
-1181830
-1182696
-1182997
-1182340
-1181738
-1182052
-1183001
-1183414
-1182740
-1182068
-1182391
-1183313
-1183731
-1183116
-1182493
-1182801
-1183653
-1184159
-1183563
-1182933
-1183245
-1184132
-1184441
-1183818
-1183151
-1183630
-1184622
-1184851
-1184169
-1183375
-1183936
-1184911
-1185197
-1184601
-1184038
-1184287
-1185152
-1185559
-1184953
-1184295
-1184649
-1185478
-1185986
-1185291
-1184524
-1184951
-1185823
-1186142
-1185543
-1184833
-1185290
-1186315
-1187251
-1186093
-1185457
-1185783
-1186647
-1186870
-1186366
-1185679
-1186023
-1186991
-1187457
-1186899
-1186270
-1186531
-1187551
-1187744
-1187238
-1186600
-1186942
-1187789
-1188233
-1187565
-1186846
-1187245
-1188038
-1188413
-1187692
-1187008
-1187289
-1188179
-1188391
-1187499
-1186640
-1186942
-1187724
-1187836
-1186797
-1185865
-1185904
-1186582
-1186364
-1185341
-1184351
-1184176
-1184704
-1184510
-1183239
-1182124
-1181911
-1182394
-1182161
-1181016
-1179792
-1179669
-1179908
-1179810
-1178652
-1177508
-1177344
-1177710
-1177625
-1176571
-1175597
-1175570
-1176103
-1175961
-1174926
-1174076
-1174085
-1174679
-1174583
-1173687
-1172854
-1173098
-1173851
-1173902
-1173050
-1172201
-1172450
-1173037
-1173251
-1172502
-1171827
-1172065
-1172717
-1172938
-1172198
-1171519
-1171720
-1172632
-1172690
-1171913
-1171336
-1171684
-1172376
-1172552
-1171692
-1171189
-1171411
-1172263
-1172447
-1171820
-1171090
-1171395
-1172129
-1172228
-1171480
-1170775
-1171052
-1171743
-1171926
-1171098
-1170426
-1170787
-1171583
-1171600
-1170796
-1170170
-1170450
-1171095
-1171215
-1170494
-1169795
-1170083
-1170769
-1170910
-1170118
-1169498
-1169793
-1170457
-1170514
-1169879
-1169074
-1169367
-1170272
-1170462
-1169709
-1168871
-1169398
-1170303
-1170467
-1169646
-1169015
-1169378
-1170319
-1170458
-1169810
-1169288
-1169546
-1170550
-1170824
-1170113
-1169397
-1169983
-1170978
-1171269
-1170501
-1170013
-1170251
-1171353
-1171616
-1171072
-1170560
-1171010
-1171955
-1172367
-1171746
-1171224
-1171637
-1172727
-1172920
-1172377
-1171862
-1172293
-1173227
-1173450
-1172840
-1172162
-1172822
-1173659
-1173949
-1173260
-1172834
-1173084
-1174057
-1174145
-1173363
-1172999
-1173435
-1174440
-1174599
-1173878
-1173297
-1173673
-1174585
-1174661
-1173917
-1173328
-1173767
-1174701
-1174723
-1173863
-1173242
-1173631
-1174512
-1174659
-1173977
-1173437
-1173886
-1174635
-1174855
-1174097
-1173588
-1173858
-1174727
-1174907
-1174102
-1173516
-1173986
-1174904
-1175104
-1174219
-1173727
-1174247
-1174982
-1175194
-1174385
-1173825
-1174400
-1175274
-1175363
-1174726
-1174128
-1174595
-1175292
-1175422
-1174715
-1174302
-1174725
-1175551
-1175499
-1174892
-1174451
-1174865
-1175932
-1176085
-1175293
-1174645
-1175088
-1175975
-1176216
-1175491
-1174838
-1175384
-1176314
-1176404
-1175566
-1175074
-1175620
-1176556
-1176535
-1175851
-1175297
-1175803
-1176593
-1176824
-1175962
-1175542
-1175981
-1176745
-1176854
-1176119
-1175623
-1176092
-1177078
-1177043
-1176365
-1175705
-1176172
-1177173
-1177321
-1176538
-1175944
-1176542
-1177382
-1177507
-1176783
-1176249
-1176634
-1177563
-1177647
-1176916
-1176537
-1176840
-1177860
-1177930
-1177160
-1176652
-1177188
-1177921
-1177937
-1176955
-1176735
-1177223
-1178201
-1178180
-1177611
-1177005
-1177597
-1178527
-1178590
-1177779
-1177293
-1177666
-1178736
-1178804
-1178065
-1177543
-1178110
-1178892
-1178986
-1178414
-1177939
-1178325
-1179367
-1179331
-1179423
-1178428
-1178747
-1179609
-1179732
-1178948
-1178551
-1179081
-1179934
-1179909
-1179189
-1178805
-1179214
-1180173
-1180299
-1179596
-1179090
-1179548
-1180490
-1180411
-1179696
-1179402
-1179938
-1180949
-1180847
-1180144
-1179593
-1180102
-1181080
-1181141
-1180477
-1179930
-1180412
-1181441
-1181438
-1180728
-1180227
-1180875
-1181374
-1181751
-1181067
-1180517
-1181156
-1182049
-1181996
-1181273
-1180789
-1181484
-1182333
-1182503
-1181702
-1181229
-1181761
-1182716
-1182767
-1181937
-1181689
-1182188
-1183137
-1183155
-1182224
-1182014
-1182493
-1183394
-1183582
-1183386
-1182640
-1182891
-1183798
-1183843
-1183122
-1184295
-1183616
-1183123
-1183544
-1184357
-1184507
-1183879
-1183354
-1183898
-1184846
-1184906
-1184149
-1183725
-1184300
-1185243
-1185348
-1184650
-1184046
-1184598
-1185570
-1185629
-1184850
-1184343
-1185014
-1185729
-1185830
-1184960
-1184599
-1185276
-1186135
-1186139
-1185476
-1185005
-1185662
-1186479
-1186592
-1185827
-1185493
-1185943
-1186969
-1187056
-1186226
-1185775
-1186369
-1187340
-1187356
-1186650
-1186300
-1186824
-1187767
-1187841
-1187018
-1186655
-1187278
-1188210
-1188258
-1187347
-1187019
-1187525
-1188495
-1188459
-1187767
-1187300
-1187921
-1188793
-1188570
-1187827
-1187539
-1188135
-1188564
-1188868
-1188136
-1187771
-1188159
-1189006
-1189094
-1188215
-1187943
-1188491
-1189423
-1189421
-1188577
-1188136
-1188595
-1189628
-1189571
-1188736
-1188380
-1188917
-1189717
-1189741
-1189090
-1188654
-1189254
-1190134
-1190167
-1189315
-1188930
-1189575
-1190377
-1190402
-1189675
-1189172
-1189906
-1190768
-1190727
-1189828
-1189489
-1190122
-1191049
-1190960
-1190127
-1189746
-1190314
-1191196
-1191111
-1190384
-1190121
-1190796
-1191600
-1191501
-1190789
-1190561
-1191069
-1192092
-1192122
-1191378
-1190929
-1191637
-1192395
-1192454
-1191743
-1191321
-1191680
-1192899
-1192881
-1191981
-1191732
-1192371
-1193223
-1193070
-1192290
-1192061
-1192785
-1193758
-1193638
-1192938
-1192474
-1193295
-1194185
-1194138
-1193456
-1192936
-1193562
-1194526
-1194565
-1193839
-1193454
-1194086
-1194999
-1194974
-1194106
-1193760
-1194255
-1195089
-1194936
-1193967
-1193551
-1194031
-1194741
-1194392
-1193382
-1192734
-1193037
-1193617
-1192961
-1191783
-1191100
-1191325
-1191903
-1191349
-1190101
-1189444
-1189514
-1189662
-1189021
-1187638
-1186864
-1187051
-1187317
-1186839
-1185414
-1184670
-1184814
-1185290
-1184715
-1183343
-1182653
-1182785
-1183260
-1182851
-1181244
-1180956
-1181230
-1181803
-1181409
-1180319
-1179681
-1180135
-1180664
-1180245
-1179320
-1178884
-1179268
-1179902
-1179430
-1178492
-1178145
-1178590
-1179213
-1179003
-1178084
-1177687
-1178019
-1178890
-1178665
-1177711
-1177180
-1177853
-1178509
-1178299
-1177405
-1177008
-1177590
-1178119
-1178002
-1177145
-1176770
-1177306
-1177885
-1177557
-1176737
-1176340
-1176881
-1177569
-1177238
-1176360
-1175888
-1176456
-1178076
-1177155
-1175948
-1175478
-1175923
-1176603
-1176092
-1175203
-1174919
-1175513
-1176208
-1175862
-1174920
-1174369
-1175095
-1175645
-1175329
-1174451
-1174043
-1174597
-1175408
-1175006
-1174188
-1173752
-1174199
-1174882
-1174681
-1174161
-1173521
-1174104
-1174829
-1174528
-1173516
-1173305
-1173891
-1174709
