PPG
-382016
-382118
-382201
-382140
-382273
-382389
-382442
-382552
-382646
-382769
-382954
-383112
-383218
-383382
-383547
-383661
-383811
-383944
-384129
-384282
-384391
-384633
-384827
-385056
-385232
-385377
-385596
-385788
-385979
-386247
-386348
-386496
-386748
-386944
-387203
-387350
-387557
-387716
-387874
-388083
-388274
-388381
-388601
-388788
-388902
-389086
-389235
-389366
-389544
-389667
-389790
-389871
-390032
-390166
-390238
-390351
-390398
-390594
-390663
-390870
-390925
-390971
-391137
-391154
-391218
-391318
-391436
-391493
-391587
-391588
-391621
-391652
-391726
-391731
-391838
-391863
-391931
-392010
-392134
-392115
-392098
-392067
-392122
-392144
-392167
-392142
-392225
-392309
-392266
-392220
-392366
-392388
-392400
-392440
-392471
-392481
-392580
-392549
-392626
-392680
-392664
-392683
-392753
-392781
-392829
-392866
-392953
-392958
-393017
-393057
-393121
-393165
-393210
-393193
-393297
-393324
-393366
-393485
-393513
-393680
-394077
-393831
-393796
-393879
-393944
-393975
-394095
-394168
-394261
-394274
-394292
-394468
-394526
-394565
-394597
-394706
-394803
-394894
-394983
-395109
-395240
-395256
-395616
-395955
-395687
-395686
-395742
-395816
-395960
-396056
-396160
-396257
-396401
-396420
-396554
-396728
-396874
-396979
-397073
-397227
-397244
-397442
-397519
-397631
-397775
-397856
-397936
-398072
-398223
-398319
-398461
-398591
-398644
-398788
-398923
-399021
-399175
-399276
-399467
-399545
-399660
-399733
-399887
-400001
-400188
-400278
-400360
-400487
-400619
-400685
-400819
-400989
-401009
-401166
-401266
-401408
-401587
-401677
-401818
-401938
-402052
-402157
-402263
-402397
-402439
-402606
-402721
-402853
-402976
-403069
-403166
-403314
-403336
-403467
-403548
-403699
-403820
-403968
-404092
-404198
-404275
-404404
-404495
-404601
-404676
-404787
-404891
-404965
-405116
-405268
-405321
-405490
-405553
-405660
-405753
-405814
-405937
-406027
-406199
-406278
-406452
-406463
-406596
-406653
-406765
-406886
-407008
-407060
-407194
-407261
-407390
-407431
-407555
-407730
-407873
-407891
-407928
-408114
-408204
-408276
-408368
-408453
-408518
-408647
-408722
-408790
-408881
-408939
-409082
-409135
-409285
-409370
-409461
-409532
-409605
-409808
-409878
-409894
-410032
-410074
-410177
-410224
-410390
-410483
-410577
-410751
-410766
-410786
-410905
-411090
-411093
-411133
-411270
-411385
-411451
-411554
-411615
-411714
-411810
-411946
-412049
-412131
-412206
-412248
-412367
-412485
-412510
-412671
-412696
-412828
-412974
-412959
-413060
-413134
-413283
-413319
-413431
-413549
-413665
-413720
-413871
-413944
-414041
-414149
-414180
-414199
-414323
-414427
-414560
-414599
-414662
-414670
-414869
-414912
-414948
-415033
-415187
-415258
-415292
-415364
-415449
-415512
-415617
-415680
-415701
-415836
-415879
-415941
-416312
-416213
-416311
-416331
-416349
-416465
-416561
-416709
-416723
-416783
-416853
-416906
-417028
-417147
-417168
-417113
-417335
-417432
-417530
-417563
-417686
-417775
-417855
-417929
-417960
-418034
-418023
-418118
-418164
-418202
-418278
-418204
-418262
-418161
-418074
-418055
-417875
-417811
-417589
-417462
-417202
-417045
-416708
-416336
-416066
-415616
-415200
-414765
-414243
-413842
-413322
-412806
-412245
-411602
-411092
-410477
-409863
-409213
-408379
-407754
-407210
-406554
-405827
-405057
-404391
-403712
-403091
-402395
-401767
-401116
-400471
-399901
-399240
-398649
-398072
-397512
-396957
-396382
-395887
-395335
-394900
-394417
-394018
-393561
-393100
-392734
-392346
-391949
-391584
-391254
-390888
-390615
-390253
-389976
-389663
-389391
-389148
-388940
-388776
-388550
-388235
-388138
-387852
-387787
-387473
-387366
-387218
-387166
-387005
-386919
-386735
-386676
-386518
-386446
-386331
-386244
-386215
-386102
-386111
-385951
-386010
-385964
-385845
-385865
-385789
-385770
-385753
-385789
-385777
-385721
-385733
-385690
-385686
-385721
-385756
-385733
-385720
-385704
-385684
-385773
-385766
-385812
-385847
-385781
-385819
-385920
-385903
-385944
-386068
-386028
-386136
-386104
-386116
-386198
-386221
-386244
-386250
-386420
-386418
-386510
-386573
-386663
-386714
-386753
-386844
-386913
-386887
-387032
-387134
-387216
-387288
-387418
-387474
-387565
-387685
-387816
-387924
-388033
-388200
-388372
-388517
-388684
-388862
-389017
-389149
-389290
-389525
-389685
-389893
-390104
-390326
-390493
-390641
-390848
-391046
-391247
-391422
-391639
-391886
-392185
-392294
-392468
-392672
-392814
-393007
-393163
-393320
-393507
-393673
-393828
-394064
-394261
-394343
-394429
-394544
-394736
-394851
-394942
-395093
-395213
-395326
-395492
-395557
-395698
-395719
-395812
-395991
-396015
-396086
-396166
-396264
-396339
-396374
-396388
-396484
-396542
-396669
-396652
-396663
-396769
-396760
-396850
-396914
-396862
-396980
-396981
-397005
-397015
-397095
-397113
-397061
-397103
-397129
-397187
-397244
-397335
-397221
-397303
-397344
-397286
-397353
-397340
-397383
-397428
-397468
-397470
-397431
-397465
-397527
-397635
-397658
-397647
-397676
-397694
-397914
-397820
-397822
-397856
-397886
-397925
-397957
-398005
-398042
-398114
-398142
-398255
-398304
-398286
-398436
-398491
-398576
-398601
-398627
-398688
-398767
-398760
-398932
-398986
-399113
-399130
-399248
-399301
-399369
-399494
-399575
-399579
-399683
-399765
-400086
-399992
-400042
-400134
-400262
-400360
-400435
-400448
-400604
-400744
-400784
-400959
-401007
-401144
-401199
-401329
-401419
-401522
-401657
-401797
-401869
-401953
-402077
-402199
-402290
-402352
-402474
-402666
-402723
-402873
-402977
-403091
-403209
-403303
-403368
-403543
-403711
-403846
-403871
-403984
-404044
-404179
-404339
-404418
-404490
-404575
-404700
-404895
-404918
-405058
-405198
-405253
-405381
-405488
-405606
-405645
-405727
-405906
-406073
-406146
-406298
-406365
-406414
-406579
-406655
-406775
-406906
-406927
-407050
-407248
-407268
-407411
-407497
-407545
-407669
-407797
-407850
-407926
-408047
-408193
-408300
-408418
-408472
-408573
-408646
-408770
-408875
-408960
-409125
-409187
-409229
-409383
-409448
-409592
-409660
-409716
-409765
-409966
-410008
-410123
-410207
-410354
-410496
-410612
-410616
-410719
-410811
-410844
-410972
-411130
-411225
-411296
-411415
-411455
-411504
-411621
-411696
-411866
-411875
-411964
-412023
-412184
-412273
-412378
-412470
-412547
-412637
-412789
-412848
-412980
-413012
-413186
-413270
-413291
-413395
-413331
-413442
-413598
-413706
-413749
-413906
-414004
-414019
-414144
-414508
-414606
-414631
-414775
-414927
-415015
-415133
-415215
-415284
-415280
-415458
-415532
-415719
-415772
-415935
-415922
-415977
-416103
-416129
-416280
-416393
-416456
-416507
-416671
-416790
-416856
-416905
-416909
-417031
-417379
-417288
-417352
-417392
-417382
-417536
-417564
-417665
-417763
-417755
-417912
-417977
-418038
-418104
-418179
-418228
-418309
-418335
-418436
-418446
-418584
-418561
-418753
-418841
-418850
-418984
-418981
-419061
-419082
-419163
-419268
-419350
-419454
-419555
-419577
-419597
-419766
-419783
-419880
-419969
-420030
-420065
-420200
-420283
-420364
-420478
-420515
-420576
-420570
-420635
-420686
-420788
-420853
-420957
-420966
-421100
-420918
-420849
-420768
-420719
-420566
-420330
-420251
-420061
-419857
-419691
-419363
-419089
-418656
-418322
-417923
-417438
-417045
-416567
-416093
-415575
-414997
-414424
-413843
-413223
-412562
-411951
-411289
-410662
-410039
-409323
-408684
-408006
-407389
-406707
-405992
-405329
-404728
-404083
-403565
-402889
-402253
-401733
-401111
-400481
-400032
-399422
-398945
-398456
-397929
-397565
-397063
-396716
-396254
-395790
-395420
-395071
-394715
-394448
-394071
-393726
-393474
-393122
-392906
-392587
-392304
-392071
-391867
-391673
-391502
-391316
-391175
-390933
-390784
-390678
-390459
-390311
-390220
-390099
-390041
-389982
-389804
-389746
-389624
-389527
-389516
-389458
-389387
-389407
-389303
-389311
-389210
-389234
-389213
-389128
-389176
-389152
-389186
-389106
-389216
-389224
-389198
-389162
-389179
-389167
-389185
-389180
-389263
-389341
-389356
-389402
-389419
-389428
-389494
-389573
-389663
-389684
-389743
-389779
-389852
-389929
-390003
-390045
-390095
-390084
-390221
-390258
-390299
-390360
-390381
-390544
-390557
-390641
-390728
-390822
-390906
-390953
-391102
-391195
-391282
-391404
-391511
-391587
-391666
-391826
-391969
-392158
-392260
-392448
-392606
-392724
-392903
-393085
-393285
-393457
-393623
-393737
-393990
-394121
-394393
-394567
-394777
-394983
-395195
-395409
-395585
-395787
-395995
-396185
-396331
-396484
-396649
-396721
-396978
-397166
-397392
-397551
-397740
-397885
-397961
-398132
-398275
-398411
-398569
-398662
-398754
-398885
-399057
-399049
-399270
-399321
-399486
-399503
-399571
-399677
-399804
-399767
-399927
-400019
-400094
-400192
-400166
-400237
-400605
-400413
-400437
-400485
-400508
-400600
-400604
-400654
-400665
-400651
-400714
-400759
-400825
-400816
-400829
-400912
-400947
-400901
-400946
-400941
-400980
-400975
-401038
-401048
-401037
-401059
-401135
-401166
-401168
-401207
-401210
-401268
-401340
-401349
-401374
-401424
-401441
-401461
-401487
-401591
-401583
-401676
-401668
-401717
-401802
-401856
-401867
-401921
-401939
-401958
-402067
-402029
-402071
-402251
-402305
-402330
-402379
-402474
-402444
-402600
-402621
-402702
-402751
-402788
-402794
-402979
-403098
-403110
-403144
-403490
-403461
-403772
-403584
-403605
-403772
-403857
-403926
-404057
-404093
-404096
-404299
-404430
-404539
-404599
-404718
-404782
-404827
-404929
-405056
-405156
-405251
-405295
-405439
-405504
-405660
-405748
-405944
-406077
-406089
-406198
-406302
-406467
-406529
-406640
-406783
-406896
-407028
-407119
-407259
-407279
-407356
-407412
-407613
-407667
-407850
-407903
-408033
-408155
-408216
-408280
-408384
-408546
-408713
-408755
-408858
-409029
-409116
-409196
-409300
-409427
-409540
-409651
-409721
-409843
-409990
-410031
-410123
-410246
-410382
-410474
-410549
-410661
-410748
-410828
-410866
-411030
-411098
-411216
-411330
-411430
-411524
-411596
-411713
-411815
-411994
-412072
-412099
-412196
-412291
-412372
-412402
-412548
-412671
-412753
-412904
-412966
-413108
-413193
-413300
-413400
-413461
-413603
-413649
-413732
-413854
-413975
-414102
-414177
-414264
-414306
-414429
-414510
-414633
-414747
-414791
-414968
-414991
-415103
-415128
-415272
-415373
-415462
-415608
-415680
-415803
-415941
-415946
-415968
-416179
-416200
-416343
-416401
-416448
-416573
-416714
-416778
-416931
-417032
-417127
-417241
-417305
-417424
-417431
-417575
-417660
-417724
-417836
-417949
-417991
-418172
-418093
-418326
-418385
-418489
-418592
-418732
-418881
-418942
-419045
-419101
-419210
-419262
-419349
-419505
-419620
-419735
-419791
-419879
-419979
-420037
-420091
-420188
-420329
-420464
-420493
-420585
-420696
-420745
-420678
-420868
-420911
-421020
-421224
-421262
-421338
-421430
-421479
-421610
-421719
-421794
-421868
-421956
-422048
-422148
-422203
-422280
-422413
-422423
-422477
-422592
-422641
-422678
-422723
-422844
-422983
-423023
-423045
-423116
-423207
-423248
-423202
-423356
-423458
-423499
-423544
-423686
-423785
-423822
-423867
-423948
-424014
-424072
-424184
-424243
-424382
-424556
-424593
-424649
-424682
-424791
-424883
-425013
-425061
-425082
-425182
-425282
-425290
-425345
-425466
-425481
-425493
-425562
-425538
-425642
-425609
-425544
-425567
-425526
-425404
-425296
-425164
-424936
-424788
-424567
-424305
-424008
-423704
-423375
-423039
-422537
-422140
-421747
-421209
-420741
-420179
-419593
-418994
-418359
-417748
-417131
-416469
-415744
-415096
-414381
-413698
-413043
-412379
-411746
-411014
-410289
-409619
-408972
-408294
-407537
-406914
-406586
-405743
-405144
-404466
-403922
-403343
-402736
-402300
-401802
-401279
-400842
-400383
-399918
-399377
-398922
-398566
-398127
-397850
-397483
-397185
-396870
-396488
-396205
-395963
-395601
-395325
-395042
-394810
-394591
-394370
-394194
-394246
-393861
-393615
-393343
-393234
-393096
-392947
-392763
-392699
-392603
-392475
-392359
-392195
-392492
-392047
-391934
-391844
-391768
-391697
-391705
-391584
-391576
-391495
-391464
-391439
-391390
-391386
-391365
-391382
-391341
-391326
-391324
-391294
-391330
-391273
-391317
-391291
-391372
-391402
-391372
-391365
-391427
-391374
-391366
-391403
-391432
-391484
-391559
-391623
-391604
-391602
-391638
-391643
-391765
-391769
-391793
-391881
-391951
-392051
-392020
-392072
-392165
-392202
-392297
-392388
-392628
-392581
-392637
-392671
-392616
-392783
-392933
-393029
-393126
-393182
-393349
-393474
-393614
-393752
-393977
-394018
-394185
-394386
-394544
-394729
-394860
-395073
-395245
-395493
-395578
-395728
-395905
-396042
-396254
-396506
-396701
-396900
-397031
-397284
-397426
-397667
-397810
-397982
-398131
-398332
-398499
-398628
-399036
-398975
-399129
-399337
-399464
-399656
-399726
-399925
-400019
-400180
-400246
-400475
-400604
-400650
-400790
-400884
-400929
-401076
-401141
-401333
-401297
-401424
-401551
-401562
-401659
-401682
-401638
-401782
-401879
-401905
-401994
-401992
-402026
-402109
-402157
-402100
-402174
-402211
-402220
-402258
-402271
-402348
-402317
-402321
-402378
-402369
-402397
-402392
-402375
-402500
-402547
-402518
-402544
-402586
-402945
-402774
-402698
-402754
-402748
-402720
-402779
-402867
-402910
-402955
-402963
-402973
-403020
-402996
-403079
-403054
-403118
-403192
-403276
-403273
-403354
-403359
-403369
-403381
-403402
-403533
-403614
-403647
-403737
-403794
-403816
-403886
-403932
-403961
-404057
-404177
-404213
-404308
-404281
-404419
-404436
-404492
-404561
-404603
-404731
-404836
-404897
-404995
-405077
-405186
-405329
-405370
-405405
-405497
-405620
-405685
-405740
-405895
-405998
-406042
-406173
-406354
-406370
-406557
-406616
-406709
-406836
-406889
-407139
-407196
-407350
-407412
-407463
-407565
-407646
-407828
-407880
-408129
-408227
-408343
-408411
-408545
-408702
-408845
-408937
-409039
-409164
-409229
-409391
-409518
-409653
-409697
-409811
-409980
-410071
-410214
-410382
-410503
-410598
-410723
-410854
-410832
-411024
-411177
-411350
-411434
-411558
-411655
-411807
-411950
-412077
-412120
-412182
-412276
-412489
-412602
-412745
-412872
-412939
-413107
-413214
-413259
-413386
-413545
-413690
-413732
-413739
-413994
-414112
-414214
-414288
-414425
-414509
-414619
-414656
-414792
-414952
-415090
-415151
-415325
-415048
-415341
-415493
-415626
-415724
-415887
-416006
-416076
-416237
-416258
-416388
-416456
-416539
-416639
-416698
-416862
-416932
-417018
-417149
-417272
-417312
-417499
-417609
-417714
-417824
-417902
-417946
-418033
-418129
-418250
-418364
-418459
-418512
-418609
-418692
-418730
-418914
-419043
-419100
-419192
-419265
-419406
-419427
-419529
-419655
-419739
-419865
-419986
-420032
-420107
-420187
-420284
-420404
-420480
-420510
-420642
-420763
-420870
-420919
-421041
-421162
-421212
-421301
-421421
-421499
-421580
-421705
-421807
-421796
-421877
-422259
-422186
-422283
-422382
-422412
-422468
-422661
-423004
-422850
-422922
-422972
-423021
-423126
-423177
-423316
-423358
-423411
-423543
-423682
-423744
-423827
-423876
-423957
-424059
-424148
-424175
-424298
-424304
-424420
-424554
-424597
-424696
-424710
-424805
-424881
-424931
-424967
-425197
-425172
-425288
-425362
-425321
-425446
-425489
-425541
-425684
-425705
-425788
-425893
-425931
-426026
-426089
-426171
-426215
-426227
-426371
-426478
-426579
-426672
-426742
-426792
-426847
-426939
-427066
-427001
-427366
-427259
-427302
-427315
-427420
-427445
-427484
-427546
-427560
-427522
-427460
-427412
-427338
-427298
-427198
-427009
-426883
-426603
-426331
-426154
-425809
-425498
-425190
-424780
-424345
-423898
-423436
-422834
-422322
-421772
-421148
-420598
-419973
-419366
-418755
-417997
-417340
-416637
-415976
-415297
-414633
-414022
-413384
-412637
-412031
-411359
-410671
-409991
-409387
-408673
-408093
-407508
-406915
-406437
-405770
-405313
-404836
-404236
-403758
-403306
-402837
-402356
-401910
-401456
-401062
-400704
-400412
-400083
-399774
-399368
-399095
-398696
-398523
-398231
-397995
-397800
-397503
-397268
-397097
-396912
-396711
-396556
-396404
-396221
-396094
-395976
-395823
-395652
-395596
-395465
-395361
-395306
-395228
-395118
-395021
-394932
-394906
-394834
-394768
-394751
-394717
-394683
-394723
-394669
-394631
-394609
-394558
-394635
-394652
-394636
-394673
-394666
-394651
-394697
-394703
-394759
-394730
-394796
-394784
-394901
-394941
-394943
-394999
-394934
-395001
-395076
-395097
-395186
-395250
-395363
-395359
-395426
-395424
-395510
-395646
-395707
-395770
-395787
-395921
-395940
-396071
-396106
-396131
-396251
-396237
-396356
-396507
-396551
-396721
-396818
-396897
-397085
-397152
-397368
-397463
-397586
-397772
-397849
-398047
-398201
-398377
-398507
-398790
-398905
-399153
-399327
-399484
-399622
-399831
-400033
-400250
-400433
-400606
-400810
-401032
-401194
-401432
-401524
-401688
-401918
-402113
-402232
-402451
-402567
-402781
-402925
-403010
-403200
-403372
-403500
-403558
-403738
-403853
-403954
-404040
-404203
-404299
-404388
-404446
-404537
-405003
-404867
-404898
-404906
-404932
-405003
-405055
-405075
-405127
-405255
-405332
-405342
-405641
-405508
-405488
-405476
-405459
-405504
-405546
-405505
-405546
-405579
-405599
-405669
-405670
-405680
-405655
-405702
-405734
-405655
-405765
-405817
-405784
-405700
-405504
-405707
-405766
-405776
-405797
-405905
-405890
-405846
-405891
-405911
-405958
-406009
-406038
-406317
-406115
-406060
-406050
-406125
-406111
-406157
-406216
-406241
-406258
-406306
-406346
-406381
-406434
-406412
-406459
-406550
-406545
-406579
-406591
-406580
-406664
-406794
-406809
-406920
-407000
-407088
-407121
-407193
-407278
-407292
-407425
-407473
-407527
-407600
-407672
-407730
-407841
-407922
-407955
-408074
-408137
-408252
-408342
-408444
-408468
-408494
-408609
-408802
-408785
-408976
-408978
-409124
-409248
-409361
-409424
-409541
-409592
-409645
-410138
-410060
-410018
-409943
-410152
-410208
-410385
-410510
-410627
-410711
-410821
-410838
-411016
-411133
-411262
-411402
-411350
-411499
-411605
-411736
-411835
-411983
-412061
-412187
-412316
-412332
-412472
-412580
-412625
-412752
-412846
-412986
-413074
-413192
-413333
-413438
-413519
-413629
-413665
-413793
-413907
-414024
-414172
-414230
-414371
-414387
-414592
-414598
-414776
-414871
-414912
-415036
-415193
-415229
-415328
-415466
-415486
-415626
-415667
-415759
-415890
-415941
-416069
-416198
-416360
-416389
-416334
-416549
-416668
-416735
-416808
-416908
-416962
-417146
-417251
-417344
-417393
-417545
-417543
-417694
-417775
-417826
-417968
-418062
-418139
-418222
-418343
-418374
-418468
-418539
-418611
-418696
-418743
-418872
-418998
-419101
-419187
-419211
-419265
-419342
-419470
-419558
-419611
-419658
-419802
-419874
-419961
-419902
-420090
-420129
-420327
-420351
-420457
-420559
-420618
-420688
-420758
-420867
-421011
-421117
-421210
-421311
-421404
-421428
-421497
-421583
-421642
-421751
-421822
-421839
-421923
-421972
-422009
-422097
-422263
-422231
-422315
-422403
-422451
-422557
-422648
-422672
-422777
-422882
-422987
-423049
-423096
-423186
-423184
-423312
-423283
-423432
-423508
-423573
-423622
-423720
-423806
-423922
-423972
-424051
-424177
-424198
-424291
-424391
-424493
-424589
-424602
-424666
-424676
-424724
-424749
-424754
-424790
-424819
-424780
-424693
-424644
-424535
-424454
-424293
-424134
-423953
-423758
-423544
-423245
-422965
-422653
-422259
-421797
-421378
-420951
-420424
-419917
-419362
-418864
-418307
-417669
-417056
-416488
-415800
-415190
-414561
-413827
-413170
-412552
-411869
-411182
-410603
-409859
-409212
-408504
-407879
-407287
-406647
-406048
-405451
-404816
-404269
-403773
-403163
-402658
-402114
-401690
-401220
-400726
-400224
-399753
-399377
-398899
-398523
-398189
-397796
-397558
-397148
-396920
-396641
-396337
-396058
-395802
-395517
-395288
-395021
-394366
-394214
-394073
-393909
-393670
-393534
-393441
-393279
-392935
-392918
-392742
-392687
-392567
-392409
-392332
-392329
-392175
-392104
-392063
-392040
-392017
-392008
-391967
-391968
-391989
-392035
-392052
-392087
-392063
-391919
-391938
-392076
-392114
-392166
-392179
-392190
-392263
-392311
-392278
-392406
-392413
-392485
-392582
-392637
-392653
-392662
-392660
-392747
-392779
-392849
-392992
-393007
-393083
-393095
-393166
-393246
-393264
-393354
-393470
-393531
-393663
-393799
-393877
-393940
-394075
-394143
-394150
-394317
-394428
-394660
-394775
-394916
-395074
-395271
-395417
-395571
-395743
-395867
-396163
-396227
-396365
-396612
-396790
-396970
-397190
-397416
-397524
-397696
-397969
-398178
-398336
-398550
-398706
-398868
-398989
-399269
-399408
-399553
-399755
-399904
-400020
-400200
-400446
-400540
-400697
-400766
-400945
-400956
-401168
-401306
-401498
-401622
-401725
-401779
-401858
-401937
-401992
-402108
-402228
-402317
-402398
-402466
-402528
-402488
-402630
-402797
-402812
-403014
-403060
-403062
-403070
-403125
-403269
-403232
-403298
-403310
-403388
-403400
-403409
-403448
-403535
-403506
-403525
-403574
-403626
-403639
-403956
-403786
-403826
-403858
-403847
-403823
-403867
-403916
-403923
-404020
-404288
-404220
-404198
-404133
-404146
-404151
-404237
-404286
-404307
-404317
-404347
-404432
-404529
-404476
-404525
-404592
-404630
-404610
-404682
-404730
-404761
-404776
-404895
-404760
-404934
-405000
-405088
-405167
-405183
-405242
-405312
-405439
-405533
-405580
-405617
-405649
-405758
-405859
-405855
-405970
-405996
-406135
-406199
-406273
-406332
-406402
-406490
-406580
-406665
-406775
-406875
-406972
-407048
-407154
-407278
-407367
-407521
-407644
-407704
-407756
-407944
-407924
-408102
-408193
-408274
-408405
-408464
-408512
-408663
-408757
-408881
-409023
-409109
-409228
-409330
-409429
-409441
-409597
-409751
-409846
-409865
-410036
-410154
-410224
-410374
-410450
-410552
-410644
-410722
-410903
-410958
-411121
-411274
-411308
-411432
-411481
-411584
-411658
-411749
-411834
-411941
-412144
-412187
-412320
-412422
-412531
-412613
-412668
-412746
-412862
-413014
-413127
-413186
-413209
-413343
-413438
-413571
-413656
-413746
-413836
-413974
-414051
-414182
-414269
-414356
-414360
-414465
-414588
-414706
-414784
-414913
-414971
-415184
-415152
-415223
-415324
-415477
-415557
-415676
-415714
-415768
-415905
-415949
-416047
-416186
-416213
-416352
-416421
-416489
-416607
-416727
-416822
-416954
-416988
-417075
-417339
-417277
-417275
-417414
-417567
-417622
-417696
-417873
-417902
-418023
-418093
-418162
-418277
-418321
-418413
-418536
-418636
-418656
-418869
-418949
-419033
-419077
-419145
-419290
-419282
-419403
-419490
-419547
-419686
-419745
-419827
-419864
-419964
-420032
-420091
-420223
-420241
-420363
-420396
-420514
-420632
-420699
-420750
-420790
-420898
-420928
-421066
-421100
-421214
-421254
-421318
-421376
-421419
-421532
-421620
-421725
-421750
-421788
-421857
-421943
-422003
-422132
-422162
-422228
-422276
-422397
-422522
-422575
-422662
-422721
-422714
-422809
-422934
-422981
-423091
-423161
-423179
-423278
-423320
-423317
-423300
-423321
-423271
-423281
-423257
-423186
-423125
-423007
-422946
-422819
-422631
-422490
-422208
-422025
-421739
-421439
-421096
-420747
-420406
-419914
-419465
-418908
-418412
-417977
-417377
-416785
-416276
-415651
-415085
-414381
-413745
-413081
-412405
-411613
-410992
-410387
-409651
-408998
-408290
-407586
-406874
-406195
-405629
-404890
-404315
-403763
-403090
-402568
-402002
-401461
-400862
-400342
-399797
-399340
-398847
-398231
-397823
-397400
-397030
-396653
-396223
-395873
-395611
-395218
-394829
-394507
-394200
-393910
-393566
-393354
-393123
-392884
-392612
-392372
-392201
-391993
-391850
-391563
-391478
-391285
-391070
-390895
-390643
-390658
-390802
-390460
-390318
-390211
-390188
-390059
-389815
-389833
-389770
-389731
-389681
-389586
-389568
-389495
-389469
-389458
-389325
-389301
-389302
-389351
-389257
-389255
-389235
-389249
-389225
-389247
-389169
-389214
-389196
-389180
-389204
-389256
-389454
-389427
-389376
-389389
-389412
-389361
-389425
-389479
-389481
-389534
-389612
-389601
-389700
-389711
-389726
-389773
-389852
-389892
-389993
-390087
-390165
-390166
-390238
-390259
-390373
-390443
-390520
-390560
-390640
-390810
-390946
-391006
-391069
-391222
-391249
-391443
-391517
-391715
-391851
-392010
-392134
-392302
-392549
-392646
-392902
-393062
-393196
-393385
-393633
-393792
-394008
-394165
-394213
-394452
-394601
-394767
-395059
-395254
-395446
-395643
-395796
-395958
-396126
-396337
-396490
-396653
-396830
-397014
-397175
-397283
-397473
-397540
-397587
-397770
-397907
-398119
-398261
-398384
-398486
-398616
-398685
-398771
-398847
-398996
-399066
-399151
-399246
-399328
-399371
-399470
-399489
-399587
-399632
-399654
-399723
-399772
-399861
-399941
-399996
-400040
-400071
-400129
-400128
-400124
-400142
-400191
-400310
-400485
-400409
-400343
-400380
-400429
-400486
-400525
-400548
-400539
-400608
-400574
-400670
-400721
-400679
-400670
-400737
-400793
-400800
-400781
-400828
-400796
-400876
-400918
-400957
-400985
-400960
-400988
-401062
-401047
-401066
-400961
-401144
-401108
-401263
-401271
-401225
-401335
-401393
-401415
-401431
-401539
-401593
-401648
-401664
-401628
-401678
-401792
-401841
-401914
-401935
-402005
-402136
-402157
-402204
-402305
-402318
-402420
-402464
-402531
-402589
-402679
-402758
-402802
-402763
-402832
-402898
-403041
-403188
-403250
-403293
-403388
-403490
-403548
-403594
-403666
-403844
-403871
-403988
-404095
-404196
-404218
-404375
-404464
-404503
-404564
-404718
-404798
-404921
-404971
-405140
-405218
-405285
-405444
-405449
-405577
-405624
-405699
-405807
-405963
-406100
-406235
-406349
-406451
-406510
-406584
-406591
-406756
-406892
-406954
-407112
-407135
-407337
-407460
-407528
-407635
-407700
-407845
-407969
-408019
-408161
-408174
-408329
-408308
-408508
-408553
-408689
-408787
-408900
-408948
-409045
-409186
-409264
-409330
-409436
-409566
-409698
-409766
-409824
-409981
-410047
-410154
-410258
-410339
-410409
-410476
-410583
-410667
-410768
-410929
-410989
-411067
-411098
-411214
-411369
-411457
-411506
-411569
-411663
-411786
-411845
-411969
-412021
-412121
-412159
-412226
-412352
-412481
-412496
-412641
-412717
-412851
-412930
-412987
-413126
-413194
-413244
-413275
-413375
-413529
-413620
-413688
-414063
-413951
-414031
-414075
-414217
-414299
-414389
-414456
-414441
-414630
-414743
-414828
-414912
-415006
-415069
-415083
-415289
-415298
-415372
-415502
-415608
-415665
-415809
-415847
-415882
-416018
-416145
-416237
-416325
-416389
-416496
-416611
-416647
-416720
-416810
-416866
-416947
-417002
-417080
-417164
-417293
-417382
-417485
-417556
-417595
-417653
-417696
-417847
-417866
-417988
-418121
-418213
-418283
-418312
-418434
-418548
-418581
-418671
-418765
-418758
-418890
-419023
-419094
-419171
-419211
-419272
-419352
-419495
-419554
-419614
-419672
-419715
-419790
-419808
-419847
-419852
-419850
-419805
-419795
-419826
-419667
-419643
-419516
-419306
-419093
-418990
-418782
-418597
-418226
-417914
-417411
-417168
-416742
-416311
-415854
-415353
-414851
-414272
-413710
-413081
-412759
-411935
-411242
-410470
-409791
-409155
-408473
-407760
-407095
-406430
-405817
-405122
-404341
-403702
-402993
-402380
-401710
-401006
-400777
-399942
-399371
-398680
-398092
-397523
-397023
-396509
-396026
-395536
-394990
-394503
-394047
-393611
-393491
-392896
-392469
-392047
-391712
-391402
-391084
-390753
-390407
-390159
-389937
-389631
-389338
-389151
-388926
-388667
-388471
-388321
-388140
-387959
-387762
-387586
-387431
-387343
-387256
-387125
-386990
-386880
-386762
-386770
-386711
-386585
-386491
-386410
-386335
-386306
-386248
-386210
-386189
-386213
-386152
-386111
-386101
-386069
-386014
-386059
-386045
-386052
-386082
-386103
-386070
-386090
-386105
-386135
-386121
-386111
-386207
-386296
-386289
-386227
-386324
-386340
-386306
-386427
-386458
-386444
-386503
-386582
-386622
-386692
-386690
-386808
-386824
-386826
-386965
-387057
-387034
-387142
-387194
-387241
-387355
-387438
-387524
-387520
-387584
-387623
-387837
-387887
-388003
-387940
-388246
-388384
-388423
-388549
-388687
-388879
-388991
-389197
-389277
-389524
-389576
-389785
-389888
-390169
-390300
-390478
-390697
-390910
-391074
-391318
-391619
-391670
-391869
-391980
-392143
-392378
-392508
-392687
-392868
-393086
-393321
-393396
-393557
-393773
-393892
-394007
-394181
-394325
-394481
-394684
-394762
-394852
-394938
-395069
-395201
-395322
-395433
-395496
-395616
-395679
-395774
-395940
-395992
-396041
-396077
-396161
-396220
-396261
-396351
-396403
-396444
-396541
-396577
-396618
-396627
-396731
-396765
-396868
-396815
-396916
-396925
-396954
-397027
-397047
-397099
-397076
-397109
-397191
-397199
-397243
-397247
-397460
-397346
-397335
-397414
-397417
-397454
-397471
-397491
-397541
-397561
-397585
-397611
-397628
-397671
-397743
-397711
-397832
-397889
-397877
-397931
-397936
-397995
-397996
-398071
-398105
-398154
-398273
-398251
-398270
-398359
-398440
-398475
-398552
-398533
-398657
-398700
-398744
-398762
-398874
-398933
-399057
-399064
-399095
-399183
-399280
-399412
-399436
-399528
-399545
-399642
-399721
-399733
-399893
-399992
-400076
-400190
-400179
-400291
-400385
-400411
-400510
-400612
-400744
-400894
-401002
-401048
-401152
-401214
-401289
-401408
-401772
-401652
-401785
-401845
-401953
-402038
-402182
-402271
-402369
-402393
-402522
-402652
-402752
-402909
-403041
-403107
-403222
-403221
-403354
-403534
-403634
-403752
-403872
-404001
-404106
-404196
-404301
-404409
-404548
-404655
-404743
-404842
-404975
-405053
-405226
-405283
-405416
-405407
-405594
-405759
-405856
-405927
-406073
-406182
-406264
-406371
-406488
-406567
-406685
-406822
-406923
-406992
-407073
-407213
-407330
-407424
-407423
-407581
-407734
-407820
-407918
-408030
-408105
-408173
-408323
-408430
-408522
-408609
-408698
-408844
-408915
-408968
-409113
-409214
-409341
-409370
-409471
-409594
-409640
-409783
-409948
-409923
-410016
-410136
-410207
-410325
-410447
-410482
-410619
-410679
-410764
-410847
-410947
-411066
-411172
-411241
-411365
-411434
-411517
-411669
-411705
-411820
-411825
-411913
-411976
-412101
-412098
-412151
-412248
-412613
-412527
-412595
-412641
-412702
-412832
-412932
-413057
-413106
-413144
-413241
-413323
-413352
-413452
-413584
-413646
-413657
-413681
-413814
-413757
-413923
-413975
-414106
-414147
-414195
-414304
-414418
-414485
-414564
-414573
-414748
-414820
-414911
-414936
-415084
-415170
-415289
-415347
-415400
-415452
-415558
-415593
-415599
-415691
-415672
-415762
-415799
-415683
-415667
-415582
-415617
-415479
-415323
-415247
-415023
-414834
-414640
-414367
-414093
-413759
-413470
-413037
-412613
-412253
-411733
-411255
-410782
-410282
-409677
-409151
-408546
-407971
-407380
-406674
-406060
-405450
-404784
-404121
-403467
-402846
-402223
-401605
-400941
-400290
-399755
-399152
-398591
-397965
-397389
-396784
-396256
-395711
-395118
-394666
-394160
-393645
-393245
-392876
-392420
-391973
-391554
-391128
-390787
-390442
-390155
-389766
-388673
-388379
-388104
-387918
-387667
-387395
-387222
-387091
-386895
-386802
-386554
-386368
-386183
-386068
-385965
-385849
-385744
-385624
-385561
-385400
-385385
-385294
-385197
-385103
-385018
-384957
-385012
-384961
-384913
-384853
-384885
-384876
-384864
-384767
-384754
-384745
-384742
-384770
-384783
-384808
-384774
-384806
-384786
-384777
-384812
-384828
-384816
-384801
-384923
-384936
-384961
-384995
-385063
-385034
-384992
-385161
-385252
-385212
-385317
-385368
-385468
-385578
-385586
-385511
-385644
-385672
-385714
-385768
-385888
-385925
-386052
-386079
-386138
-386266
-386350
-386386
-386540
-386638
-386742
-386793
-386990
-387186
-387212
-387380
-387518
-387603
-387799
-387898
-388183
-388332
-388457
-388650
-388801
-388920
-389174
-389385
-389565
-389781
-389906
-390203
-390380
-390488
-390729
-390982
-391234
-391296
-391520
-391688
-391827
-392018
-392104
-392270
-392427
-392558
-392740
-392862
-392942
-393173
-393291
-393450
-393612
-393676
-393838
-393850
-394028
-394155
-394180
-394290
-394392
-394374
-394562
-394614
-394624
-394653
-394762
-394783
-394882
-394891
-394952
-395050
-394943
-395049
-395105
-395106
-395218
-395288
-395277
-395269
-395340
-395322
-395298
-395296
-395339
-395359
-395375
-395428
-395458
-395438
-395423
-395494
-395508
-395567
-395510
-395489
-395457
-395472
-395574
-395577
-395606
-395607
-395670
-395699
-395657
-395701
-395632
-395737
-395798
-395641
-395765
-395766
-395713
-395824
-395877
-395860
-395936
-395979
-395988
-396084
-396079
-396118
-396128
-396248
-396273
-396270
-396254
-396381
-396451
-396534
-396627
-396653
-396703
-396737
-396845
-396816
-396922
-397021
-396989
-397092
-397216
-397149
-397348
-397415
-397595
-397660
-397789
-397861
-397840
-397927
-398045
-398145
-398207
-398283
-398361
-398509
-398537
-398633
-398689
-398744
-398859
-398907
-398996
-399110
-399599
-399718
-399783
-399882
-399956
-400117
-400179
-400296
-400410
-400464
-400539
-400630
-400804
-400924
-401023
-401159
-401195
-401314
-401425
-401529
-401694
-401762
-401899
-402003
-402034
-402181
-402304
-402321
-402437
-402526
-402648
-402739
-402804
-402900
-402909
-403029
-403166
-403315
-403450
-403434
-403566
-404002
-404135
-404166
-404267
-404360
-404587
-404714
-404734
-404911
-404984
-405086
-405080
-405189
-405347
-405408
-405503
-405571
-405648
-405765
-405899
-405963
-406029
-406110
-406181
-406346
-406329
-406473
-406459
-406586
-406674
-406735
-406877
-406957
-407052
-407155
-407160
-407207
-407324
-407419
-407476
-407597
-407695
-407767
-407824
-407865
-407819
-407953
-408019
-408124
-408244
-408278
-408379
-408431
-408465
-408587
-408670
-408751
-408742
-408837
-408891
-408941
-409013
-409029
-409110
-409224
-409361
-409383
-409468
-409609
-409582
-409892
-409864
-409902
-409977
-410095
-410122
-410240
-410354
-410370
-410381
-410510
-410526
-410564
-410626
-410725
-410748
-410765
-410830
-410859
-410771
-410845
-410738
-410526
-410741
-410523
-410365
-410210
-410056
-409844
-409582
-409316
-409013
-408758
-408384
-407905
-407725
-407078
-406655
-406220
-405637
-405143
-404601
-404016
-403413
-402774
-402204
-401561
-400911
-400253
-399649
-399031
-398338
-397699
-397046
-396391
-395711
-395138
-394570
-393965
-393387
-392820
-392207
-391584
-391017
-390533
-389087
-387775
-387343
-386872
-386490
-386119
-385760
-385709
-385193
-384524
-384262
-383923
-383398
-383165
-383001
-382815
-382567
-382393
-382211
-382027
-381817
-381698
-381524
-381358
-381303
-381214
-381003
-380898
-380883
-380740
-380704
-380540
-380483
-380430
-380388
-380428
-380357
-380502
-380352
-380232
-380154
-380103
-380059
-380086
-380071
-380051
-379994
-380063
-380085
-380046
-380082
-380392
-380190
-380171
-380101
-380104
-380183
-380136
-380277
-380295
-380318
-380257
-380141
-380278
-380393
-380421
-380457
-380507
-380592
-380582
-380645
-380634
-380664
-380762
-380809
-380849
-380861
-380955
-381042
-381054
-381119
-381222
-381261
-381332
-381437
-381464
-381656
-381722
-381798
-381884
-382009
-382140
-382286
-382365
-382526
-382596
-382781
-382913
-383059
-383185
-383363
-383520
-383729
-383812
-384059
-384206
-384429
-384633
-384833
-384975
-385118
-385354
-385550
-385737
-385890
-386159
-386301
-386477
-386696
-386796
-386957
-387118
-387355
-387404
-387542
-387735
-387839
-387876
-388127
-388265
-388370
-388487
-388577
-388721
-388877
-388971
-389099
-389170
-389254
-389326
-389400
-389439
-389576
-389561
-389687
-389739
-389810
-389912
-389844
-389944
-389957
-390071
-390095
-390120
-390195
-390236
-390137
-390405
-390360
-390294
-390346
-390381
-390387
-390430
-390544
-390464
-390558
-390527
-390486
-390552
-390566
-390939
-390680
-390639
-390681
-390678
-390687
-390779
-390731
-390807
-390806
-390814
-390811
-390894
-390929
-391010
-390973
-390995
-390977
-391375
-391170
-391089
-391149
-391219
-391199
-391289
-391321
-391316
-391385
-391493
-391507
-391533
-391580
-391672
-391698
-391821
-391848
-391914
-391919
-391991
-392002
-392114
-392108
-392230
-392294
-392376
-392432
-392458
-392537
-392684
-392766
-392757
-392888
-392858
-392954
-393023
-393125
-393285
-393402
-393435
-393474
-393569
-393654
-393762
-393830
-393923
-394061
-394158
-394326
-394382
-394461
-394516
-394629
-394735
-394854
-394958
-395041
-395186
-395269
-395344
-395478
-395573
-395774
-395803
-395827
-395993
-396116
-396186
-396261
-396433
-396528
-396586
-396660
-396751
-396815
-396917
-397007
-397182
-397298
-397280
-397414
-397541
-397556
-397690
-397795
-397926
-398002
-398097
-398225
-398344
-398393
-398450
-398604
-398680
-398768
-398907
-398935
-399013
-399104
-399214
-399280
-399237
-399524
-399662
-399771
-399904
-399983
-400083
-400147
-400172
-400325
-400448
-400522
-400564
-400723
-400815
-400876
-400885
-401134
-401234
-401245
-401320
-401378
-401443
-401561
-401664
-401754
-401886
-401772
-401925
-401998
-402134
-402166
-402274
-402399
-402482
-402534
-402596
-402683
-402848
-402805
-402996
-403079
-403173
-403172
-403307
-403459
-403462
-403627
-403660
-403729
-403774
-403839
-403956
-404066
-404139
-404269
-404251
-404347
-404417
-404427
-404495
-404536
-404595
-404736
-404776
-404797
-404834
-404860
-404956
-405006
-405102
-405121
-405155
-405235
-405307
-405368
-405441
-405509
-405533
-405580
-405628
-405639
-405719
-405800
-405875
-405905
-405909
-405934
-405987
-406107
-406173
-406209
-406263
-406333
-406386
-406415
-406608
-406584
-406609
-406697
-406724
-406783
-406852
-406940
-407090
-407074
-407119
-407111
-407202
-407191
-407177
-407054
-407060
-407055
-406929
-406840
-406604
-406561
-406380
-406195
-405977
-405715
-405424
-405107
-404804
-404359
-404033
-403703
-403128
-402755
-402239
-401700
-401163
-400515
-399980
-399355
-398782
-398144
-397580
-396880
-396185
-395522
-394945
-394315
-393648
-392952
-392250
-391611
-390994
-390324
-389744
-389135
-388530
-387972
-387366
-386854
-386298
-385760
-385302
-384756
-384257
-383786
-383334
-382908
-382496
-382129
-381816
-381410
-381036
-380739
-380349
-379956
-379708
-379466
-379151
-378851
-378512
-378333
-378088
-377900
-377599
-377464
-377226
-377125
-376890
-376692
-376598
-376463
-376305
-376140
-376020
-375906
-375762
-375714
-375587
-375427
-375440
-375284
-375294
-375147
-375077
-375019
-374995
-374915
-374850
-374804
-374854
-374692
-374727
-374677
-374660
-374703
-374713
-374735
-374690
-374661
-374694
-374641
-374587
-374620
-374678
-374636
-374668
-374653
-374728
-374743
-374721
-374773
-374785
-374834
-374874
-374938
-374978
-375044
-375027
-375095
-375177
-375235
-375464
-375313
-375312
-375428
-375472
-375496
-375473
-375584
-375653
-375756
-375746
-375940
-375991
-376068
-376159
-376271
-376321
-376442
-376600
-376669
-376744
-376893
-377078
-377194
-377369
-377510
-377718
-377862
-377966
-378095
-378314
-378472
-378600
-378847
-379052
-379186
-379387
-379603
-379735
-379972
-380196
-380307
-380470
-380876
-381031
-381244
-381391
-381611
-381756
-381875
-382039
-382190
-382333
-382423
-382622
-382787
-382871
-383024
-383173
-383259
-383343
-383440
-383470
-383830
-383907
-384018
-384068
-384126
-384204
-384221
-384354
-384437
-384515
-384559
-384558
-384635
-384620
-384676
-384704
-384684
-384750
-384754
-384803
-384837
-384801
-384862
-384796
-384905
-384841
-384909
-384923
-384934
-384916
-384938
-385196
-385009
-384975
-384999
-385009
-385035
-385067
-385096
-385125
-385166
-385179
-385122
-385211
-385241
-385264
-385301
-385264
-385410
-385439
-385430
-385416
-385487
-385561
-385585
-385607
-385704
-385776
-385757
-385768
-385797
-385944
-385953
-385973
-386136
-386172
-386160
-386258
-386295
-386384
-386442
-386526
-386544
-386610
-386726
-386801
-386848
-386938
-387001
-387080
-387169
-387264
-387335
-387369
-387511
-387551
-387564
-387713
-387856
-387915
-388012
-388071
-388134
-388243
-388338
-388497
-388583
-388676
-388789
-388875
-388952
-389027
-389084
-389234
-389273
-389436
-389543
-389721
-389780
-389915
-390004
-390107
-390220
-390244
-390343
-390481
-390652
-390683
-390801
-390906
-391013
-391073
-391195
-391322
-391516
-391752
-391850
-391949
-392070
-392101
-392258
-392314
-392503
-392561
-392698
-392810
-392895
-393072
-393207
-393229
-393388
-393506
-393626
-393745
-393827
-393882
-393897
-394073
-394201
-394312
-394411
-394491
-394696
-394780
-394872
-394996
-395042
-395127
-395172
-395288
-395403
-395527
-395633
-395748
-395865
-395967
-396118
-396212
-396330
-396416
-396500
-396539
-396681
-396786
-396939
-397029
-397051
-397212
-397297
-397355
-397489
-397573
-397590
-397681
-397822
-397958
-398036
-398132
-398178
-398222
-398409
-398468
-398542
-398570
-398689
-398806
-398887
-398995
-399026
-399067
-399077
-399294
-399367
-399475
-399544
-399729
-399796
-399836
-399956
-400051
-400147
-400240
-400291
-400409
-400460
-400526
-400654
-400668
-400791
-400897
-401475
-401533
-401671
-401744
-401897
-401928
-402022
-402038
-402153
-402197
-402317
-402380
-402460
-402473
-402628
-402702
-402792
-402858
-402959
-403022
-403052
-403152
-403163
-403253
-403365
-403440
-403488
-403550
-403630
-403661
-403788
-403897
-403934
-404061
-404058
-404076
-404178
-404229
-404299
-404403
-404487
-404575
-404611
-404678
-404697
-404835
-404884
-404951
-405027
-405172
-405225
-405306
-405398
-405394
-405474
-405605
-405624
-405707
-405770
-405912
-405985
-405986
-406119
-406152
-406167
-406252
-406262
-406276
-406286
-406181
-406185
-405993
-406064
-405928
-405800
-405666
-405456
-405278
-405010
-404723
-404462
-404159
-403732
-403334
-402979
-402794
-402098
-401556
-401054
-400474
-399918
-399296
-398730
-398057
-397329
-396755
-396063
-395427
-394758
-394115
-393428
-392741
-392073
-391332
-390671
-390069
-389447
-388784
-388224
-387553
-387028
-386473
-385872
-385313
-384778
-384226
-383718
-383553
-382888
-382359
-381875
-381405
-381086
-380617
-380215
-379903
-379527
-379166
-378818
-378541
-378287
-377999
-377663
-377428
-377153
-376852
-376629
-376456
-376234
-376087
-375891
-375657
-375530
-375346
-375171
-375047
-374882
-374763
-374662
-374550
-374513
-374442
-374453
-374265
-374093
-374019
-373869
-373877
-373815
-373739
-373777
-373668
-373648
-373530
-373464
-373489
-373398
-373382
-373374
-373403
-373434
-373395
-373371
-373312
-373319
-373303
-373219
-373283
-373327
-373355
-373403
-373331
-373280
-373307
-373313
-373315
-373337
-373344
-373419
-373507
-373505
-373527
-373549
-373506
-373613
-373617
-373649
-373651
-373699
-373704
-373811
-373791
-373815
-373925
-373981
-374054
-374102
-374176
-374221
-374348
-374465
-374596
-374693
-374769
-374884
-375051
-375174
-375238
-375419
-375623
-375728
-375903
-376070
-376249
-376370
-376628
-376836
-377016
-377214
-377373
-377579
-377721
-377874
-378140
-378344
-378405
-378654
-378879
-379069
-379234
-379498
-379890
-379872
-380011
-380379
-380321
-380446
-380649
-380769
-380971
-381078
-381180
-381315
-381436
-381537
-381746
-381786
-381896
-382014
-382190
-382268
-382362
-382488
-382570
-382611
-382670
-382702
-382748
-382831
-382931
-382984
-382988
-383081
-383130
-383155
-383204
-383280
-383329
-383363
-383365
-383422
-383436
-383447
-383482
-383530
-383526
-383484
-383551
-383618
-383656
-383678
-383688
-383662
-383628
-383690
-383699
-383690
-383791
-383784
-383800
-383833
-383853
-383840
-383886
-383845
-383915
-383933
-383976
-383946
-384091
-384020
-384085
-384105
-384129
-384134
-384191
-384243
-384286
-384282
-384323
-384412
-384357
-384461
-384527
-384625
-385001
-384841
-384835
-384763
-384918
-385040
-385002
-385084
-385142
-385199
-385276
-385296
-385444
-385465
-385561
-385658
-385745
-385839
-385810
-385936
-385978
-386070
-386152
-386210
-386373
-386414
-386542
-386594
-386687
-386765
-386940
-386946
-387115
-387162
-387316
-387315
-387412
-387477
-387598
-387771
-387872
-387898
-388082
-388209
-388275
-388365
-388508
-388693
-388738
-388840
-388932
-389030
-389123
-389290
-389405
-389497
-389559
-389618
-389781
-389840
-390025
-390076
-390512
-390444
-390812
-390637
-390703
-390763
-390913
-391035
-391110
-391286
-391309
-391325
-391411
-391390
-391677
-391728
-391693
-391891
-392091
-392179
-392302
-392363
-392408
-392583
-392732
-392807
-392849
-392980
-393017
-393108
-393236
-393352
-393486
-393530
-393575
-393736
-393782
-393987
-394053
-394114
-394175
-394324
-394328
-394434
-394537
-394627
-394770
-394820
-394964
-395031
-395112
-395178
-395216
-395301
-395458
-395518
-395618
-395707
-395784
-395843
-395970
-396039
-396110
-396251
-396140
-396375
-396465
-396496
-396603
-396641
-396762
-396779
-396917
-397042
-397123
-397365
-397376
-397421
-397502
-397608
-397634
-397705
-397843
-397934
-397969
-398097
-398098
-398201
-398334
-398410
-398496
-398548
-398580
-398633
-398735
-398838
-398873
-398969
-399094
-399167
-399222
-399276
-399304
-399427
-399482
-399579
-399590
-399729
-399801
-399906
-399980
-400040
-400102
-400076
-400385
-400373
-400371
-400462
-400496
-400602
-400658
-400721
-400826
-400845
-400926
-400920
-401127
-401144
-401283
-401341
-401384
-401517
-401652
-401598
-401660
-401645
-401743
-401790
-401909
-401996
-402024
-402126
-402194
-402243
-402246
-402342
-402303
-402329
-402494
-402573
-402671
-402749
-402767
-402848
-402885
-402917
-403075
-403087
-403113
-403186
-403264
-403308
-403378
-403498
-403610
-403628
-403691
-403831
-403895
-403942
-404027
-404099
-404114
-404220
-404278
-404362
-404413
-404488
-404592
-404650
-404667
-404633
-404657
-404638
-404627
-404624
-404555
-404531
-404427
-404251
-404101
-403967
-403715
-403468
-403138
-402904
-402570
-402283
-401818
-401401
-401275
-400612
-400048
-399474
-398908
-398336
-397730
-397113
-396530
-395873
-395182
-394592
-393961
-393226
-392530
-391919
-391217
-390533
-389904
-389261
-388601
-388015
-387299
-386664
-386011
-385493
-384858
-384288
-383741
-383275
-382772
-382211
-381650
-381149
-380710
-380296
-379916
-379438
-379080
-378682
-378395
-378010
-377616
-377376
-377013
-376737
-376392
-376092
-375978
-375714
-375469
-375256
-374986
-374790
-374615
-374311
-374139
-374055
-373883
-373683
-373586
-373433
-373285
-373046
-373037
-372907
-372863
-372748
-372602
-372576
-372478
-372434
-372331
-372192
-372144
-372179
-372076
-372092
-372031
-371974
-371967
-371964
-371941
-371888
-371849
-371872
-371811
-371830
-371891
-371862
-371887
-371888
-371887
-371873
-371933
-371939
-371943
-371917
-371943
-371953
-372011
-371980
-372068
-372089
-372122
-372144
-372248
-372311
-372337
-372357
-372391
-372433
-372472
-372564
-372600
-372572
-372679
-372732
-372878
-372980
-373052
-373354
-373209
-373281
-373363
-373487
-373558
-373666
-373732
-373926
-374127
-374263
-374412
-374475
-374609
-374876
-375044
-375181
-375362
-375500
-375676
-375843
-376074
-376274
-376395
-376558
-376812
-376936
-377151
-377308
-377537
-377654
-377845
-378017
-378196
-378367
-378561
-378748
-378887
-378996
-379150
-379277
-379426
-379512
-379657
-379854
-379938
-380017
-380120
-380200
-380274
-380433
-380432
-380570
-380640
-380677
-380821
-380860
-380898
-380989
-381036
-381074
-381113
-381139
-381177
-381285
-381336
-381338
-381364
-381355
-381373
-381372
-381364
-381416
-381450
-381480
-381549
-381475
-381511
-381513
-381488
-381597
-381553
-381605
-381648
-381598
-381608
-381569
-381686
-381682
-381734
-381656
-381785
-381759
-381666
-381694
-381724
-381779
-381842
-381839
-381834
-381900
-381887
-381895
-381879
-381894
-381919
-381980
-382076
-382057
-382039
-382098
-382197
-382186
-382311
-382287
-382373
-382409
-382488
-382404
-382517
-382581
-382593
-382649
-382720
-382787
-382794
-382929
-382891
-383009
-383065
-383127
-383220
-383323
-383356
-383384
-383437
-383526
-383701
-383771
-383853
-383892
-384009
-384034
-384118
-384186
-384253
-384378
-384510
-384609
-384683
-384719
-384795
-384977
-385038
-385157
-385145
-385291
-385432
-385516
-385695
-385762
-385783
-385908
-385925
-386136
-386210
-386282
-386375
-386452
-386611
-386828
-386901
-386939
-386794
-387023
-387139
-387340
-387409
-387530
-387571
-387728
-387808
-387944
-388058
-388100
-388180
-388318
-388378
-388516
-388637
-388734
-388903
-388909
-389052
-389091
-389206
-389336
-389446
-389773
-389718
-389754
-389846
-389952
-390331
-390185
-390546
-390438
-390425
-390590
-390678
-390770
-390769
-390967
-390933
-391019
-391145
-391282
-391357
-391435
-391596
-391624
-391611
-391802
-391920
-392049
-392065
-392201
-392289
-392252
-392425
-392541
-392560
-392752
-392798
-392793
-392951
-393057
-393113
-393244
-393241
-393334
-393418
-393512
-393575
-393650
-393764
-393829
-393939
-393992
-394053
-394197
-394302
-394356
-394329
-394417
-394554
-394701
-394771
-394820
-394933
-395010
-395062
-395083
-395218
-395355
-395367
-395429
-395552
-395582
-395714
-395840
-395874
-395886
-395927
-396066
-396086
-396202
-396452
-396705
-397023
-397339
-397511
-397701
-397785
-398924
-398980
-399012
-399219
-399304
-399442
-399617
-399567
-399729
-399911
-400076
-400179
-400215
-400295
-400368
-400391
-400513
-400551
-400574
-400588
-400748
-400801
-400880
-400904
-400957
-400919
-401024
-401103
-401164
-401207
-401330
-401356
-401483
-401546
-401502
-401623
-401653
-401767
-401835
-401879
-401936
-402022
-402100
-402498
-402476
-402614
-402722
-402727
-402713
-402761
-402683
-402646
-402633
-402475
-402277
-402119
-401997
-401717
-401572
-401337
-401052
-400720
-400303
-399945
-399506
-399165
-398676
-398188
-397634
-397081
-396481
-395935
-395340
-394721
-394089
-393525
-392762
-392083
-391379
-390740
-390110
-389423
-388646
-387987
-387279
-386552
-385871
-385180
-384579
-383961
-383339
-382752
-382137
-381537
-380933
-380354
-379798
-379283
-378836
-378293
-377811
-377339
-376893
-376433
-376037
-375661
-375217
-374876
-374421
-374124
-373791
-373493
-373151
-372898
-372551
-372232
-371966
-371777
-371548
-371291
-371104
-370850
-370655
-370413
-370245
-369973
-369856
-369688
-369500
-369381
-369295
-369113
-368935
-368829
-368690
-368601
-368478
-368437
-368271
-368232
-368165
-368123
-367950
-367921
-367800
-367827
-367774
-367652
-367606
-367641
-367487
-367437
-367506
-367417
-367408
-367364
-367325
-367290
-367332
-367330
-367272
-367348
-367349
-367359
-367498
-367418
-367355
-367310
-367391
-367356
-367347
-367364
-367358
-367351
-367385
-367475
-367468
-367488
-367511
-367464
-367478
-367547
-367577
-367637
-367668
-367639
-367720
-367758
-367801
-367828
-367925
-367964
-368052
-368166
-368197
-368336
-368448
-368541
-368610
-368743
-368826
-368917
-369024
-369237
-369378
-369523
-369683
-369801
-371280
-371448
-371665
-371835
-371979
-372291
-372468
-372675
-372765
-372969
-373152
-373367
-373505
-373743
-373893
-374014
-374201
-374380
-374488
-374659
-374777
-374944
-375130
-375291
-375401
-375557
-375634
-375794
-375858
-375961
-376088
-376115
-376228
-376349
-376444
-376515
-376620
-376684
-376918
-376929
-376995
-377110
-377155
-377212
-377282
-377394
-377323
-377482
-377490
-377532
-377578
-377638
-377746
-377793
-377799
-377857
-377854
-377782
-377914
-377936
-377969
-377968
-378059
-378092
-378133
-378040
-378106
-378158
-378264
-378248
-378279
-378276
-378289
-378293
-378287
-378353
-378401
-378406
-378436
-378520
-378460
-378549
-378468
-378596
-378646
-378705
-378757
-378787
-378796
-378802
-378868
-378843
-379036
-379058
-379350
-379182
-379216
-379228
-379304
-379369
-379413
-379723
-379607
-379630
-379577
-379725
-379779
-379843
-379966
-380004
-380114
-380095
-380143
-380280
-380358
-380447
-380515
-380579
-380706
-380715
-380856
-380948
-381085
-381119
-381239
-381319
-381382
-381443
-381532
-381667
-381774
-381805
-381965
-382077
-382177
-382286
-382313
-382388
-382464
-382666
-382818
-382860
-382918
-383050
-383127
-383163
-383233
-383365
-383481
-383663
-383813
-383808
-384003
-384050
-384192
-384319
-384466
-384567
-384636
-384767
-384800
-384931
-385114
-385200
-385303
-385363
-385373
-385514
-385600
-385705
-385805
-385937
-386133
-386200
-386346
-386470
-386513
-386632
-386661
-386836
-386989
-387019
-387117
-387197
-387269
-387375
-387542
-387586
-387763
-387781
-387896
-387991
-388097
-388276
-388334
-388424
-388528
-388656
-388732
-388851
-388927
-389036
-389161
-389238
-389254
-389380
-389507
-389541
-389645
-389820
-389847
-389998
-390117
-390255
-390233
-390315
-390447
-390536
-390687
-390788
-390872
-390933
-391034
-391072
-391219
-391233
-391323
-391459
-391554
-391631
-391778
-391867
-391879
-392029
-392149
-392230
-392296
-392384
-392472
-392559
-392669
-392741
-392876
-392868
-392968
-393023
-393163
-393303
-393319
-393633
-393575
-393604
-393688
-393809
-393817
-393879
-394054
-394128
-394119
-394195
-394298
-394421
-394538
-394597
-394698
-394793
-394710
-394934
-394985
-395124
-395186
-395243
-395348
-395494
-395517
-395577
-395674
-395721
-395758
-395825
-396161
-396226
-396337
-396409
-396451
-396566
-396629
-396698
-396809
-396895
-396953
-397014
-397105
-397191
-397269
-397395
-397423
-397553
-397586
-397695
-397720
-397850
-397887
-397985
-398066
-398168
-398295
-398294
-398416
-398469
-398557
-398650
-398725
-398816
-398889
-398968
-399011
-399066
-399087
-399230
-399319
-399434
-399437
-399570
-399652
-399701
-399766
-399868
-399915
-399981
-400025
-400067
-400187
-400242
-400309
-400418
-400535
-400586
-400646
-400719
-400747
-400843
-400994
-401065
-401054
-401168
-401255
-401330
-401361
-401341
-401493
-401532
-401579
-401703
-401776
-401880
-401937
-401997
-402030
-402077
-402200
-402273
-402322
-402354
-402464
-402536
-402600
-402755
-402806
-402911
-402916
-403029
-403044
-403020
-403201
-403319
-403348
-403480
-403491
-403586
-403596
-403639
-403727
-403738
-403719
-403717
-403720
-403713
-403724
-403677
-403517
-403420
-403364
-403201
-402994
-402774
-402463
-402187
-401894
-401610
-401128
-400838
-400412
-399982
-399480
-398967
-398406
-397835
-397303
-396591
-395958
-395384
-394033
-393265
-392584
-391884
-391219
-389794
-388372
-387783
-387096
-386399
-385724
-384982
-384332
-383740
-383125
-382528
-381946
-381366
-380829
-380251
-379653
-379255
-378728
-378215
-377739
-377347
-376898
-376540
-376135
-375682
-375388
-375031
-374647
-374354
-374052
-373767
-373408
-373109
-372824
-372583
-372393
-372113
-371808
-371652
-371521
-371329
-371127
-370989
-370734
-370774
-370534
-370321
-370208
-370025
-369944
-369870
-369727
-369676
-369516
-369440
-369315
-369206
-369186
-369134
-369106
-369018
-368912
-368942
-368834
-368820
-368793
-368835
-368810
-368734
-368796
-368722
-368773
-368691
-368726
-368782
-368747
-368752
-369030
-368841
-368840
-368826
-368792
-368750
-368746
-368783
-368782
-368793
-368824
-368921
-368905
-368882
-368995
-368994
-369023
-369012
-369024
-369036
-369109
-369128
-369199
-369227
-369240
-369261
-369356
-369374
-369485
-369515
-369480
-369636
-369741
-369854
-369941
-370046
-370164
-370249
-370420
-370582
-370663
-370825
-370975
-371131
-371306
-371475
-371673
-371760
-372283
-372250
-372382
-372577
-372822
-372960
-373187
-373416
-373534
-373779
-373953
-374100
-374306
-374470
-374637
-374831
-375097
-375248
-375401
-375570
-375755
-375888
-376041
-376190
-376335
-376523
-376616
-376730
-376937
-377053
-377112
-377262
-377381
-377488
-377654
-377593
-377681
-377798
-377847
-377903
-377946
-378042
-378099
-378136
-378198
-378267
-378294
-378432
-378426
-378429
-378454
-378562
-378505
-378563
-378558
-378677
-378659
-378697
-378698
-378699
-378745
-378759
-378732
-378809
-378779
-378867
-378855
-378858
-378906
-378933
-378916
-378917
-378932
-378929
-378880
-378903
-379024
-379022
-379017
-378979
-379043
-379085
-379062
-379122
-379148
-379170
-379269
-379249
-379312
-379327
-379392
-379382
-379402
-379481
-379460
-379611
-379617
-379706
-379670
-379720
-379817
-379814
-379838
-379820
-379925
-380059
-380051
-380147
-380221
-380232
-380294
-380340
-380437
-380519
-380638
-380664
-380741
-380813
-380916
-380992
-381014
-381128
-381198
-381378
-381459
-381528
-381585
-381510
-381627
-381776
-381824
-381974
-382074
-382144
-382228
-382289
-382294
-382617
-382656
-382729
-382777
-382845
-383034
-383166
-383241
-383338
-383377
-383516
-383645
-383719
-383852
-383942
-384014
-384239
-384304
-384450
-384554
-384625
-384755
-384816
-384939
-385049
-385154
-385227
-385360
-385532
-385551
-385580
-385725
-385811
-386012
-386052
-386169
-386262
-386337
-386469
-386512
-386690
-386795
-386907
-386953
-387001
-387091
-387270
-387305
-387367
-387477
-387555
-387623
-387733
-387843
-387936
-388029
-388050
-388146
-388269
-388417
-388437
-388525
-388473
-388701
-388777
-388917
-388979
-389186
-389298
-389339
-389463
-389499
-389510
-389681
-389707
-389852
-389900
-389993
-390061
-390060
-390139
-390283
-390343
-390655
-390578
-390601
-390681
-390732
-390868
-390914
-390987
-391074
-391135
-391233
-391349
-391390
-391482
-391510
-391657
-391747
-391841
-391933
-391945
-391970
-392133
-392153
-392179
-392326
-392438
-392553
-392574
-392634
-393011
-392987
-392998
-393103
-393160
-393178
-393232
-393308
-393438
-393498
-393603
-393690
-393771
-393830
-393932
-394103
-394174
-394265
-394299
-394426
-394514
-394723
-394666
-394713
-394841
-394969
-395026
-394934
-395096
-395223
-395245
-395350
-395469
-395561
-395621
-395699
-395836
-395964
-396023
-396148
-396147
-396237
-396351
-396459
-396526
-396655
-396684
-396735
-396750
-396874
-397004
-397067
-397143
-397235
-397312
-397399
-397499
-397533
-397496
-397689
-397834
-397895
-398024
-398138
-398377
-398268
-398301
-398324
-398412
-398464
-398524
-398672
-398629
-398713
-398805
-398908
-398936
-399024
-399096
-399136
-399214
-399322
-399396
-399360
-399423
-399507
-399606
-399629
-399651
-399711
-399784
-399789
-400164
-400018
-400051
-400170
-400108
-400192
-400295
-400211
-400364
-400428
-400360
-400547
-400585
-400642
-400734
-400707
-400856
-400902
-400901
-401057
-401065
-401152
-401255
-401576
-401410
-401452
-401521
-401526
-401520
-401584
-401617
-401626
-401585
-401673
-402007
-401721
-401570
-401524
-401580
-401361
-401057
-400890
-400723
-400447
-400156
-399815
-399523
-399165
-398728
-398319
-397852
-397226
-396798
-396297
-395825
-395265
-394610
-392803
-392064
-391449
-390740
-390056
-389208
-388620
-387960
-387341
-386620
-386025
-385249
-384627
-384001
-383267
-382663
-382083
-381485
-380865
-380358
-379795
-379163
-378504
-378140
-377589
-377128
-376613
-376230
-375806
-375394
-374976
-374597
-374159
-373802
-373414
-373119
-372852
-372503
-372181
-371919
-371652
-371396
-371198
-370998
-370676
-370482
-370285
-370105
-369916
-369791
-369608
-369486
-369318
-369213
-368987
-368886
-368762
-368661
-368568
-368477
-368436
-368285
-368180
-368130
-368043
-367961
-367933
-367880
-367837
-367797
-367717
-367655
-367645
-367639
-367612
-367514
-367545
-367584
-367588
-367570
-367524
-367620
-367621
-367636
-367629
-367651
-367690
-367783
-367830
-367825
-367953
-367903
-367989
-367970
-368072
-368287
-368455
-368594
-369052
-369091
-369247
-369473
-369519
-369627
-369974
-370116
-370252
-370414
-370586
-370794
-370953
-371268
-371370
-371447
-371609
-371812
-371983
-372165
-372395
-372611
-373405
-373505
-373645
-373829
-374049
-374159
-374320
-374524
-374665
-374873
-374963
-375081
-375302
-375362
-375495
-375621
-375819
-375901
-376017
-376170
-376606
-376647
-376713
-376843
-377023
-377017
-377092
-377300
-377257
-377258
-377263
-377335
-377446
-377411
-377529
-377490
-377597
-377668
-377670
-377657
-377747
-377788
-377773
-377793
-377800
-378060
-377900
-377924
-377937
-377942
-377940
-377948
-377980
-377978
-378006
-378097
-378050
-378058
-378116
-378141
-378199
-378248
-378329
-378278
-378347
-378381
-378365
-378383
-378313
-378456
-378562
-378663
-378623
-378659
-378747
-378703
-378796
-378792
-378855
-378977
-379027
-379040
-379063
-379208
-379203
-379359
-379318
-379382
-379552
-379589
-379729
-379807
-379775
-379870
-379909
-380003
-380123
-380188
-380261
-380337
-380416
-380445
-380510
-380638
-380742
-380778
-380854
-380944
-381081
-381203
-381199
-381287
-381398
-381456
-381537
-381673
-381803
-381886
-382072
-382140
-382214
-382307
-382453
-382505
-382603
-382665
-382787
-382866
-383048
-383186
-383226
-383357
-383430
-383543
-383669
-383702
-383890
-383984
-384086
-384145
-384274
-384370
-384483
-384581
-384686
-384768
-384918
-385037
-385170
-385179
-385268
-385362
-385431
-385576
-385674
-385789
-385852
-385988
-386110
-386224
-386610
-386661
-386783
-386871
-387004
-387063
-387177
-387333
-387388
-387468
-387604
-387588
-387745
-387900
-388007
-388052
-388218
-388295
-388352
-388431
-388484
-388738
-388752
-388782
-388883
-389040
-389072
-389186
-389266
-389354
-389461
-389549
-389603
-389735
-389820
-389871
-389956
-390068
-390206
-390224
-390330
-390421
-390544
-390548
-390726
-390824
-390982
-391040
-391104
-391234
-391222
-391353
-391504
-391518
-391640
-391663
-391879
-391947
-392055
-392206
-392619
-392718
-392747
-392861
-392960
-393017
-393133
-393213
-393269
-393324
-393435
-393580
-393598
-393724
-393782
-393872
-393947
-393983
-394095
-394140
-394366
-394409
-394517
-394565
-394574
-394717
-394853
-394916
-394928
-395032
-395078
-395144
-395280
-395289
-395387
-395492
-395613
-395637
-395740
-395779
-395907
-395912
-396018
-396126
-396180
-396303
-396384
-396489
-396577
-396697
-396757
-396869
-396973
-397017
-397004
-397099
-397222
-397365
-397402
-397421
-397669
-397754
-397802
-397843
-397848
-397926
-398052
-398061
-398104
-398245
-398263
-398418
-398465
-398483
-398638
-398687
-398734
-398856
-398882
-398976
-399013
-399065
-399151
-399190
-399304
-399403
-399471
-399474
-399580
-399537
-399647
-399795
-399799
-399903
-399920
-400020
-400125
-400195
-400253
-400309
-400425
-400416
-400451
-400581
-400641
-400639
-400710
-400808
-400810
-400925
-400985
-401074
-401163
-401213
-401301
-401351
-401456
-401516
-401540
-401474
-401575
-401623
-401715
-401729
-401779
-401780
-401817
-401825
-401858
-401847
-401749
-401592
-401441
-401350
-401179
-401039
-400766
-400552
-400201
-399883
-399516
-399215
-398842
-398433
-397963
-397431
-396972
-396488
-395804
-395314
-394962
-394106
-393334
-392686
-391988
-391393
-390754
-390042
-389337
-388554
-387864
-387125
-386502
-385703
-385043
-384390
-383738
-383070
-382291
-381701
-381139
-380471
-379862
-379234
-378688
-378160
-377689
-377106
-376649
-376111
-375630
-375143
-374727
-374344
-373856
-373466
-373134
-372772
-372348
-372000
-371751
-371403
-371097
-370840
-370548
-370514
-370076
-369798
-369539
-369261
-368991
-368825
-368597
-368435
-368263
-368049
-367848
-367741
-367585
-367492
-367324
-367196
-367097
-367032
-366866
-366755
-366635
-366522
-366526
-366468
-366367
-366289
-366128
-366161
-366134
-366118
-366128
-366108
-366104
-366310
-366024
-365976
-365990
-365886
-365866
-365873
-365868
-365922
-365956
-365884
-365886
-365914
-365930
-365909
-365943
-365937
-365918
-365947
-365964
-365940
-365957
-365940
-366003
-365988
-366011
-365997
-366114
-366134
-366116
-366163
-366150
-366209
-366221
-366289
-366311
-366389
-366403
-366524
-366529
-366575
-366648
-366657
-366801
-366885
-367191
-367117
-367150
-367280
-367360
-367497
-368959
-369029
-369237
-369422
-369577
-369725
-369892
-370094
-370167
-370474
-370709
-370851
-371081
-371203
-371391
-371567
-371765
-371971
-372168
-372348
-372457
-372588
-372782
-372942
-373108
-373314
-373396
-373539
-373686
-373859
-374013
-374135
-374295
-374348
-374440
-374536
-374686
-374753
-374851
-374941
-375078
-375537
-375243
-375283
-375310
-375443
-375481
-375591
-375699
-375684
-375753
-375722
-375775
-375805
-375833
-375856
-375932
-375942
-376351
-376127
-376150
-376119
-376139
-376178
-376223
-376183
-376245
-376323
-376342
-376354
-376375
-376406
-376439
-376447
-376571
-376545
-376627
-376635
-376749
-376765
-376785
-376821
-376799
-376823
-376870
-376888
-377129
-377070
-377033
-377103
-377105
-377146
-377198
-377260
-377276
-377320
-377347
-377381
-377446
-377550
-377559
-377511
-377597
-377739
-377737
-377816
-377883
-377891
-377986
-378066
-378108
-378122
-378176
-378235
-378338
-378424
-378434
-378539
-378644
-378743
-378795
-378846
-379113
-378984
-379036
-379183
-379254
-379353
-379368
-379473
-379506
-379633
-379781
-379846
-379988
-380020
-380114
-380232
-380239
-380372
-380438
-380631
-380699
-380796
-380847
-380973
-381057
-381169
-381321
-381453
-381475
-381569
-381644
-381797
-381939
-381936
-382055
-382201
-382370
-382429
-382596
-382694
-382803
-382926
-383026
-383078
-383186
-383389
-383483
-383622
-383641
-383777
-383942
-383982
-384107
-384286
-384397
-384467
-384605
-384687
-384810
-384879
-385017
-385068
-385209
-385404
-385365
-385503
-385616
-385758
-385843
-385929
-386097
-386200
-386270
-386406
-386475
-386607
-386679
-386767
-387465
-387530
-387725
-387808
-387885
-387910
-388091
-388156
-388291
-388345
-388452
-388595
-388731
-388874
-388914
-389038
-389111
-389261
-389304
-389435
-389515
-389630
-389741
-389867
-389823
-390011
-390148
-390194
-390264
-390352
-390484
-390580
-390742
-390775
-390840
-390931
-390982
-391010
-391098
-391216
-391284
-391376
-391525
-391612
-391650
-391729
-391751
-391834
-391916
-392016
-392109
-392224
-392328
-392435
-392507
-392591
-392580
-392687
-392857
-392909
-393168
-393162
-393218
-393224
-393355
-393497
-393535
-393617
-393742
-393846
-393943
-393982
-394087
-394157
-394219
-394318
-394354
-394421
-394547
-394602
-394674
-394792
-394846
-394947
-394998
-395045
-395450
-395311
-395319
-395355
-395458
-395624
-395642
-395718
-395743
-395794
-395875
-395977
-396073
-396189
-396289
-396350
-396406
-396489
-396541
-396651
-396712
-396891
-396924
-396963
-397031
-397184
-397220
-397342
-397390
-397444
-397530
-397634
-397754
-397810
-397838
-397915
-398061
-398003
-398112
-398277
-398342
-398364
-398451
-398577
-398687
-398747
-398764
-398909
-398999
-398979
-399020
-399101
-399250
-399298
-399384
-399438
-399552
-399582
-399652
-399691
-399830
-399956
-400027
-400151
-400426
-400239
-400381
-400419
-400412
-400548
-400571
-400658
-400672
-400789
-400901
-400986
-401083
-401125
-401201
-401249
-401358
-401418
-401557
-401539
-401683
-401754
-401823
-401939
-401936
-402465
-402252
-402201
-402256
-402345
-402462
-402582
-402683
-402765
-402784
-402774
-402788
-402874
-402917
-403002
-402967
-402909
-402953
-402863
-402822
-402781
-402676
-402492
-402394
-402142
-401934
-401692
-401421
-401095
-400753
-400350
-399917
-399464
-399004
-398503
-397943
-397403
-396871
-396221
-395619
-394947
-394306
-393663
-392976
-392291
-391556
-390962
-390168
-389396
-388731
-388079
-387284
-386547
-385855
-385193
-384501
-383816
-383177
-382551
-381889
-381257
-380684
-380059
-379511
-378898
-378398
-377867
-377340
-376851
-376313
-375826
-375451
-374956
-374596
-374262
-373822
-373511
-373139
-372818
-372450
-372112
-371814
-371556
-371289
-371019
-370860
-370492
-370380
-370108
-369926
-369773
-369562
-369404
-369281
-369082
-368938
-368740
-368737
-368575
-368451
-368373
-368267
-368100
-368006
-367955
-367858
-367761
-367823
-367756
-367750
-367715
-367608
-367545
-367534
-367522
-367499
-367445
-367430
-367458
-367435
-367466
-367414
-367420
-367502
-367490
-367475
-367466
-367530
-367524
-367531
-367569
-367598
-367604
-367624
-367681
-367721
-367737
-367770
-367780
-367810
-367807
-367947
-367982
-368011
-368049
-368143
-368171
-368212
-368348
-368360
-368394
-368455
-368534
-368576
-368666
-368742
-368818
-368868
-369000
-369051
-369219
-369328
-369400
-369543
-369618
-369802
-369878
-370042
-370226
-370401
-370533
-370738
-370891
-371089
-371247
-371434
-371610
-371764
-371914
-372100
-372349
-372536
-372736
-373007
-373226
-373303
-373466
-373652
-373807
-373954
-374159
-374276
-374508
-374646
-374796
-374999
-375125
-375282
-375365
-375543
-375603
-375695
-375855
-375989
-376087
-376159
-376225
-376318
-376420
-376532
-376520
-376829
-376774
-376692
-376761
-376745
-376767
-376778
-376969
-377033
-377055
-377127
-377147
-377126
-377226
-377280
-377351
-377342
-377333
-377401
-377382
-377358
-377423
-377425
-377461
-377448
-377485
-377491
-377481
-377525
-377516
-377507
-377514
-377580
-377478
-377522
-377497
-377533
-377488
-377456
-377441
-377450
-377556
-377552
-377498
-377555
-377624
-377645
-377653
-377598
-377687
-377729
-377653
-377719
-377734
-377846
-377827
-377866
-377908
-377953
-377946
-378092
-378042
-378108
-378129
-378157
-378224
-378235
-378303
-378340
-378424
-378395
-378515
-378602
-378550
-378622
-378689
-378746
-378911
-378952
-378986
-379051
-379100
-379132
-379151
-379231
-379351
-379412
-379527
-379644
-379703
-379800
-379867
-379964
-380061
-380159
-380345
-380400
-380527
-380586
-380626
-380695
-380842
-380974
-381031
-381051
-381179
-381286
-381435
-381504
-381612
-381718
-382080
-382074
-382126
-382248
-382328
-382346
-382467
-382563
-382599
-382789
-382880
-382971
-383133
-383506
-383401
-383396
-383498
-383604
-383714
-383783
-383982
-384069
-384133
-384266
-384363
-384478
-384527
-384623
-384728
-384831
-384934
-385101
-385136
-385203
-385245
-385328
-385488
-385521
-385695
-385719
-385900
-385976
-386060
-386169
-386213
-386339
-386383
-386509
-386676
-386707
-386838
-386948
-386995
-387084
-387178
-387200
-387304
-387357
-387440
-387561
-387651
-387782
-387890
-387939
-387992
-388114
-388185
-388228
-388322
-388455
-388574
-388561
-388642
-388782
-388893
-388959
-388976
-389108
-389091
-389229
-389315
-389405
-389465
-389585
-389698
-389725
-389883
-389940
-389870
-389970
-390087
-390199
-390288
-390403
-390432
-390540
-390622
-390625
-390739
-390840
-390925
-391075
-391066
-391158
-391237
-391294
-391414
-391497
-391489
-391576
-391659
-391796
-391887
-391923
-391979
-392090
-392170
-392161
-392266
-392325
-392404
-392501
-392584
-392673
-392689
-392694
-392833
-392859
-393002
-393069
-393141
-393164
-393266
-393326
-393473
-393465
-393575
-393710
-393771
-393832
-393882
-393993
-394049
-394386
-394476
-394538
-394611
-394720
-394780
-394878
-394921
-394997
-395105
-395143
-395263
-395384
-395423
-395474
-395591
-395669
-395658
-395696
-395771
-395854
-395926
-396005
-396073
-396099
-396132
-396150
-396364
-396205
-396316
-396414
-396490
-396596
-396671
-396573
-396839
-396862
-396846
-396880
-397056
-397083
-397218
-397278
-397365
-397301
-397426
-397466
-397593
-397633
-397697
-397774
-397846
-397886
-398002
-398057
-398138
-398143
-398157
-398249
-398239
-398396
-398477
-398546
-398557
-398545
-398672
-398790
-398841
-398894
-398888
-398933
-399051
-399062
-399030
-399075
-399086
-399011
-399099
-398992
-398879
-398818
-398621
-398486
-398287
-398176
-397928
-397629
-397357
-397067
-396709
-396324
-395974
-395504
-395060
-394555
-393990
-393497
-392926
-392314
-391732
-391097
-390372
-389795
-389127
-388526
-387808
-387064
-386380
-385575
-384959
-384299
-383576
-382907
-382237
-381532
-380878
-380321
-379653
-379006
-378404
-377717
-377146
-376640
-376111
-375518
-375034
-374513
-374032
-373504
-373106
-372639
-372243
-371848
-371470
-371380
-370717
-370297
-369925
-369611
-369341
-369018
-368695
-368451
-368187
-367957
-367943
-367569
-367288
-367042
-366828
-366634
-366525
-366244
-366137
-365922
-365815
-365669
-365525
-365274
-365342
-365189
-365105
-364998
-364917
-364787
-364697
-364559
-364537
-364445
-364319
-364315
-364287
-364247
-364160
-364067
-364141
-364033
-363982
-363974
-363882
-363926
-363932
-364001
-363932
-363938
-363950
-363926
-363886
-363900
-364024
-363952
-363951
-363848
-363982
-364004
-364028
-363991
-364041
-364040
-364105
-364156
-364214
-364145
-364185
-364243
-364343
-364296
-364380
-364450
-364456
-364475
-364518
-364549
-364679
-364751
-364759
-364782
-364877
-364981
-365033
-365143
-365182
-365312
-365404
-365457
-365600
-365756
-365849
-365976
-366107
-366162
-366437
-366583
-366673
-366828
-366978
-367207
-367376
-367479
-367639
-367796
-368065
-368226
-368448
-368635
-368679
-369071
-369239
-369444
-369660
-369802
-369988
-370132
-370363
-370520
-371397
-371496
-371633
-371827
-371998
-372052
-372288
-372427
-372624
-372601
-372997
-373014
-373164
-373262
-373290
-373370
-373442
-373510
-373577
-373596
-373711
-373672
-373694
-373704
-373805
-373829
-373816
-373813
-373876
-373937
-373975
-373949
-373963
-373930
-374004
-374089
-374025
-374066
-374100
-374104
-374163
-374205
-374164
-374215
-374200
-374259
-374297
-374273
-374278
-374332
-374327
-374383
-374414
-374488
-374497
-374525
-374434
-374528
-374592
-374626
-374672
-374735
-374753
-374868
-374861
-374910
-374914
-374925
-374953
-375008
-375060
-375158
-375195
-375276
-375313
-375416
-375444
-375499
-375598
-375599
-375663
-375742
-375744
-375792
-375965
-376024
-376092
-376164
-376234
-376247
-376255
-376341
-376471
-376535
-376627
-376667
-376777
-376899
-376952
-377074
-377109
-377229
-377309
-377407
-377511
-377595
-377669
-377730
-377819
-377932
-378044
-378175
-378276
-378326
-378447
-378533
-378695
-378740
-378926
-378983
-379098
-379139
-379266
-379440
-379540
-379658
-379735
-379897
-379962
-380087
-380227
-380333
-380471
-380538
-380686
-380808
-380891
-381087
-381109
-381108
-381317
-381440
-381531
-381736
-381820
-381893
-381949
-382098
-382200
-382346
-382417
-382483
-382578
-382636
-382769
-382883
-382942
-383105
-383125
-383214
-383344
-383340
-383481
-383586
-383573
-383724
-383759
-383916
-384031
-384053
-384151
-384245
-384319
-384436
-384599
-384683
-384743
-384827
-384965
-385052
-385156
-385196
-385334
-385507
-385570
-385625
-385682
-385811
-385882
-386036
-386098
-386187
-386253
-386350
-386462
-386541
-386632
-386729
-386798
-386882
-386969
-387050
-387187
-387191
-387306
-387425
-387529
-387728
-387709
-387810
-387837
-387905
-387942
-388122
-388206
-388282
-388376
-388430
-388566
-388624
-388755
-388815
-388874
-388981
-389042
-389110
-389225
-389302
-389381
-389440
-389517
-389609
-389683
-389769
-389770
-389982
-390060
-390129
-390202
-390227
-390290
-390398
-390481
-390842
-390670
-390722
-390834
-390971
-390929
-391009
-391080
-391148
-391231
-391287
-391332
-391458
-391534
-391577
-391650
-391681
-391835
-391948
-392064
-392120
-392174
-392215
-392274
-392420
-392509
-392467
-392599
-392647
-392686
-392765
-392860
-392986
-393018
-393110
-393166
-393316
-393379
-393459
-393563
-393571
-393687
-393569
-393730
-393877
-393987
-393991
-394026
-394158
-394309
-394380
-394450
-394459
-394609
-394673
-394767
-394806
-394795
-394892
-395014
-395087
-395150
-395138
-395219
-395332
-395420
-395462
-395555
-395589
-395633
-395694
-395759
-395832
-395888
-395940
-395998
-396078
-396112
-396171
-396161
-396325
-396512
-396556
-396576
-396581
-396694
-396735
-396815
-396890
-396969
-397087
-397206
-397277
-397359
-397399
-397425
-397500
-397547
-397647
-397686
-397808
-397853
-397866
-397935
-398003
-397994
-398088
-398040
-398019
-398063
-397903
-397865
-397818
-397700
-397443
-397298
-397183
-396960
-396739
-396483
-396138
-395743
-395363
-395046
-394581
-394090
-393589
-393072
-392516
-391878
-391356
-390759
-390164
-389542
-388786
-388128
-387468
-386725
-386120
-385413
-384694
-383895
-383252
-382565
-381900
-381218
-380474
-379799
-379137
-378532
-378215
-377369
-376702
-376047
-375420
-374835
-374331
-373767
-373421
-372794
-372296
-371849
-371366
-370970
-370527
-370133
-369725
-369389
-368995
-368592
-368323
-368034
-367686
-367466
-367180
-366872
-366608
-366329
-366103
-365983
-365736
-365518
-365356
-365243
-365055
-364872
-364639
-364555
-364366
-364231
-364123
-363958
-363898
-363835
-363701
-363518
-363467
-363441
-363355
-363211
-363107
-363063
-363009
-362914
-362866
-362785
-362768
-362698
-362632
-362687
-362602
-362627
-362599
-362585
-362548
-362568
-362535
-362500
-362572
-362550
-362614
-362537
-362626
-362586
-362629
-362650
-362651
-362655
-362707
-362725
-362758
-362806
-362848
-362820
-362886
-362933
-362927
-362965
-362997
-363005
-363064
-363082
-363189
-363178
-363266
-363355
-363366
-363460
-363505
-363573
-363592
-363679
-363760
-363853
-363977
-363981
-364053
-364188
-364270
-364396
-364558
-364606
-364725
-364911
-365096
-365138
-365347
-365531
-365714
-365883
-366064
-366214
-366393
-366548
-366724
-366926
-367162
-367292
-367490
-367656
-367769
-368013
-368188
-368320
-368565
-368734
-368927
-369090
-369279
-369407
-369530
-369720
-369829
-370005
-370158
-370334
-370436
-370541
-370657
-370789
-370842
-371034
-371153
-371318
-371341
-371472
-371644
-371699
-371816
-371856
-371913
-371960
-372052
-372124
-372077
-372162
-372266
-372369
-372385
-372433
-372525
-372539
-372582
-372589
-372625
-372681
-372655
-372721
-372720
-372765
-372820
-372869
-372897
-372862
-372922
-372927
-372926
-372961
-373039
-372981
-372992
-373057
-372988
-373085
-373133
-373153
-373154
-373176
-373209
-373154
-373180
-373178
-373216
-373267
-373297
-373236
-373261
-373351
-373436
-373433
-373477
-373528
-373656
-373646
-373672
-373722
-373797
-373825
-373869
-374171
-374104
-374074
-374174
-374164
-374246
-374250
-374610
-374475
-374513
-374499
-374544
-374541
-374597
-374732
-374794
-374834
-374944
-374996
-375115
-375195
-375241
-375401
-375371
-375431
-375523
-375597
-375757
-375771
-375884
-375966
-376053
-376142
-376208
-376400
-376494
-376593
-376699
-376765
-376860
-376934
-377040
-377137
-377196
-377376
-377474
-377577
-377637
-377775
-378050
-378045
-378071
-378163
-378290
-378446
-378424
-378614
-378669
-378831
-378944
-379083
-379183
-379244
-379293
-379418
-379551
-379593
-379766
-379875
-380232
-380165
-380198
-380312
-380392
-380399
-380549
-380671
-380780
-380874
-380911
-381049
-381147
-381219
-381441
-381580
-381627
-381694
-381778
-381963
-382103
-382178
-382262
-382368
-382477
-382553
-382720
-382853
-382953
-383045
-383113
-383281
-383245
-383457
-383513
-383590
-383623
-383746
-383816
-383863
-383985
-384059
-384194
-384270
-384393
-384481
-384516
-384640
-384781
-384831
-384802
-384934
-384981
-385190
-385153
-385205
-385370
-385469
-385472
-385589
-385707
-385756
-385920
-386031
-386028
-386112
-386272
-386351
-386454
-386463
-386687
-386688
-386758
-386845
-386884
-387023
-387066
-387158
-387251
-387358
-387445
-387460
-387584
-387716
-387765
-387910
-387902
-387963
-388040
-388135
-388223
-388251
-388357
-388465
-388503
-388611
-388657
-388758
-388806
-388958
-388929
-388994
-389138
-389231
-389275
-389374
-389452
-389529
-389614
-389598
-389744
-389826
-389955
-390052
-390102
-390154
-390186
-390298
-390382
-390419
-390511
-390617
-390728
-390797
-390861
-390932
-390991
-391065
-391145
-391230
-391290
-391339
-391431
-391564
-391573
-391644
-391709
-391791
-391876
-391978
-392004
-392047
-392113
-392230
-392279
-392393
-392444
-392467
-392592
-392669
-392755
-392814
-392903
-392968
-393020
-393143
-393130
-393216
-393284
-393394
-393440
-393534
-393636
-393678
-393713
-393760
-393841
-393944
-394008
-394047
-394188
-394172
-394286
-394327
-394374
-394413
-394502
-394629
-394628
-394732
-394811
-394906
-395014
-395056
-395103
-395157
-395278
-395344
-395433
-395552
-395580
-395684
-395833
-395809
-395923
-395982
-395997
-396037
-396091
-396149
-396147
-396172
-396066
-396017
-395949
-395888
-395794
-395623
-395428
-395288
-395103
-394907
-394597
-394332
-393907
-393531
-393090
-392704
-392223
-391696
-391146
-390731
-390186
-389497
-386363
-385605
-384993
-384289
-383569
-382947
-382215
-381477
-380787
-380150
-379512
-378730
-378193
-377504
-376854
-376196
-375620
-375069
-374427
-373843
-373331
-372756
-372292
-371784
-371339
-370872
-370416
-370061
-369592
-369207
-368833
-368496
-368103
-367771
-367499
-367239
-366886
-366590
-366360
-366026
-365849
-365698
-365454
-365314
-365071
-364896
-364737
-364536
-364297
-364114
-364001
-363892
-363722
-363612
-363482
-363400
-363256
-363232
-362960
-362985
-362886
-362771
-362778
-362672
-362553
-362571
-362539
-362465
-362413
-362444
-362373
-362359
-362362
-362346
-362362
-362266
-362327
-362325
-362349
-362344
-362264
-362356
-362404
-362379
-362452
-362438
-362444
-362479
-362583
-362590
-362587
-362626
-362752
-362739
-362799
-362856
-362835
-362906
-362965
-362968
-363048
-363096
-363058
-363238
-363294
-363331
-363404
-363476
-363478
-363598
-363712
-363740
-363833
-363886
-364055
-364105
-364263
-364435
-364509
-364643
-364807
-364854
-365008
-365223
-365418
-365529
-365710
-365846
-365986
-366170
-366389
-366571
-366710
-366993
-367172
-367312
-367524
-367693
-367838
-368022
-368206
-368457
-368567
-368732
-368936
-369124
-369311
-369387
-369527
-369722
-369793
-369941
-370098
-370246
-370399
-370498
-370632
-370670
-370785
-370808
-370965
-371034
-371112
-371258
-371340
-371359
-371388
-371490
-371560
-371598
-371583
-371670
-371769
-371868
-371883
-371884
-371940
-371931
-372008
-372010
-372019
-372025
-372059
-372008
-372005
-372064
-372117
-372069
-372120
-372110
-372193
-372177
-372117
-372126
-372208
-372145
-372194
-372168
-372207
-372154
-372168
-372232
-372215
-372211
-372237
-372236
-372215
-372271
-372306
-372331
-372379
-372335
-372332
-372351
-372310
-372377
-372414
-372486
-372451
-372314
-372469
-372488
-372596
-372600
-373001
-372751
-372681
-372721
-372753
-373031
-373000
-373039
-373169
-373175
-373265
-373285
-373383
-373491
-373643
-373690
-373729
-373795
-373860
-373945
-374075
-374132
-374214
-374211
-374314
-374462
-374582
-374633
-374694
-374752
-374836
-374968
-375047
-375096
-375194
-375252
-375348
-375478
-375583
-375579
-375713
-375863
-376028
-376045
-376177
-376268
-376328
-376362
-376564
-376640
-376707
-376821
-376957
-377079
-377176
-377289
-377384
-377486
-377544
-377656
-377727
-377786
-377925
-378076
-378148
-378242
-378324
-378438
-378548
-378621
-378679
-378822
-378918
-379058
-379185
-379248
-379385
-379459
-379598
-379739
-379784
-379893
-380022
-380094
-380239
-380347
-380415
-380497
-380638
-380708
-380861
-380963
-381037
-381098
-381203
-381324
-381426
-381471
-381571
-381627
-381722
-381854
-381913
-382042
-382168
-382210
-382309
-382364
-382493
-382524
-382619
-382680
-382712
-382839
-382923
-382994
-383084
-383136
-383278
-383274
-383331
-383401
-383509
-383630
-383674
-383736
-383835
-383944
-384008
-384113
-384126
-384207
-384332
-384437
-384544
-384661
-384712
-384854
-384852
-384904
-384978
-385119
-385225
-385309
-385414
-385447
-385519
-385640
-385689
-385774
-385815
-385931
-386080
-386204
-386240
-386285
-386499
-386507
-386573
-386680
-386793
-386869
-386985
-386936
-387020
-387118
-387174
-387268
-387401
-387461
-387512
-387609
-387614
-387939
-387776
-387908
-387941
-387957
-388097
-388137
-388192
-388294
-388416
-388514
-388561
-388618
-388669
-388754
-388834
-388911
-389001
-388980
-389098
-389168
-389238
-389301
-389372
-389431
-389602
-389617
-389665
-389663
-389750
-389852
-389933
-389937
-390053
-390123
-390119
-390289
-390315
-390313
-390427
-390466
-390521
-390605
-390650
-390728
-390752
-390875
-390932
-390974
-391047
-391114
-391120
-391264
-391260
-391311
-391415
-391484
-391598
-391659
-391760
-391769
-391879
-391945
-392013
-392110
-392157
-392151
-392296
-392347
-392425
-392520
-392550
-392635
-392698
-392768
-392729
-392839
-392812
-392763
-392789
-392786
-392747
-392606
-392537
-392387
-392246
-392055
-391854
-391585
-391345
-391087
-390703
-390395
-389924
-389503
-389097
-388639
-388195
-387606
-387128
-386564
-385926
-385264
-384764
-384113
-383441
-382701
-382081
-381491
-380721
-380097
-379403
-378594
-377938
-377297
-376603
-375974
-375331
-374722
-374142
-373483
-372823
-372289
-371602
-371056
-370564
-369991
-369472
-368943
-368468
-367989
-367538
-367125
-366628
-366201
-365852
-365357
-365048
-364708
-364390
-364073
-363769
-363449
-363113
-362817
-362541
-362346
-362153
-361904
-361648
-361473
-361173
-360977
-360767
-360650
-360430
-360338
-360138
-360063
-359863
-359712
-359615
-359581
-359378
-359311
-359247
-359125
-359059
-358917
-358897
-358782
-358698
-358594
-358547
-358493
-358487
-358398
-358360
-358319
-358386
-358287
-358220
-358144
-358115
-358227
-358173
-358210
-358158
-358137
-358117
-358186
-358165
-358264
-358257
-358248
-358189
-358233
-358265
-358297
-358325
-358353
-358342
-358425
-358457
-358420
-358450
-358455
-358520
-358543
-358634
-358647
-358700
-358704
-358764
-358748
-358797
-358822
-358884
-358974
-358992
-359073
-359115
-359168
-359203
-359259
-359339
-359393
-359493
-359618
-359622
-359776
-359991
-360036
-360163
-360250
-360314
-360559
-360825
-360948
-361150
-361360
-361596
-361682
-361794
-362003
-362163
-362339
-362603
-362791
-362985
-363164
-363372
-363552
-363666
-363861
-364081
-364242
-364415
-364504
-364662
-364814
-364997
-365181
-365296
-365447
-365567
-365715
-365860
-365935
-366108
-366239
-366392
-366421
-366491
-366568
-366721
-366891
-366943
-367025
-367097
-367177
-367262
-367265
-367384
-367418
-367469
-367566
-367600
-367616
-367689
-367752
-367776
-367723
-367794
-367834
-367915
-367879
-367989
-368011
-368030
-368058
-368043
-368124
-368096
-368175
-368120
-368146
-368197
-368280
-368247
-368218
-368266
-368265
-368239
-368291
-368300
-368308
-368392
-368391
-368433
-368492
-368481
-368440
-368437
-368471
-368533
-368575
-368584
-368717
-368703
-368680
-368672
-368761
-368807
-368841
-368879
-368951
-368922
-368936
-369068
-369154
-369145
-369167
-369183
-369323
-369330
-369403
-369412
-369497
-369561
-369557
-369671
-369703
-369757
-369799
-369860
-369925
-370020
-370071
-370207
-370142
-370327
-370392
-370412
-370538
-370657
-370725
-370777
-370907
-371000
-371029
-371087
-371214
-371256
-371325
-371375
-371467
-371571
-371746
-371808
-371905
-372015
-372129
-372179
-372231
-372402
-372462
-372556
-372683
-372779
-372803
-372971
-373133
-373221
-373324
-373421
-373515
-373621
-373780
-373896
-374002
-374107
-374177
-374285
-374310
-374522
-374636
-374661
-374804
-374936
-375041
-375234
-375291
-375342
-375418
-375540
-375667
-375750
-375849
-375948
-375998
-376148
-376308
-376364
-376767
-376667
-376663
-376691
-376828
-376939
-376999
-377076
-377156
-377232
-377318
-377422
-377568
-377730
-377756
-377864
-377953
-378167
-378219
-378321
-378381
-378437
-378599
-378674
-378759
-378876
-378986
-379088
-379164
-379238
-379297
-379406
-379493
-379609
-379771
-379786
-379919
-379981
-380108
-380113
-380266
-380340
-380409
-380567
-380602
-380673
-380722
-380839
-380940
-381029
-381096
-381139
-381246
-381289
-381329
-381438
-381524
-381604
-381633
-381627
-381786
-381921
-381945
-382057
-382194
-382271
-382281
-382408
-382487
-382566
-382551
-382684
-382806
-382955
-382974
-383259
-383174
-383253
-383298
-383451
-383449
-383575
-383647
-383673
-383849
-383936
-384050
-384055
-384158
-384160
-384245
-384369
-384416
-384440
-384520
-384632
-384740
-384842
-384807
-384919
-385041
-385086
-385208
-385238
-385302
-385451
-385508
-385641
-385616
-385699
-385775
-385818
-385929
-386031
-386131
-386185
-386237
-386349
-386420
-386514
-386595
-386647
-386665
-386768
-386909
-387030
-387039
-387144
-387138
-387262
-387328
-387369
-387445
-387548
-387602
-387749
-387773
-387853
-387836
-387887
-388044
-388096
-388168
-388503
-388445
-388502
-388535
-388599
-388588
-388697
-388808
-388826
-388882
-389007
-389146
-389113
-389219
-389240
-389346
-389432
-389449
-389614
-389710
-389793
-389845
-389912
-389875
-390004
-390172
-390200
-390278
-390407
-390506
-390486
-390670
-390701
-390797
-390787
-390847
-390898
-390985
-390938
-390960
-390899
-390998
-390964
-390886
-390830
-390746
-390594
-390391
-390258
-390031
-389838
-389565
-389301
-388951
-388612
-388176
-387774
-387293
-386841
-386414
-385913
-385398
-384713
-384117
-383557
-382921
-382293
-381648
-380928
-380279
-379654
-378916
-378196
-377565
-376877
-376140
-375491
-374816
-374169
-373517
-372922
-372235
-371608
-371000
-370370
-369803
-369264
-368698
-368159
-367601
-367153
-366728
-366183
-365744
-365306
-364902
-364433
-364087
-363692
-363323
-362953
-362613
-362283
-362064
-361699
-361351
-361110
-360843
-360623
-360655
-360262
-359982
-359790
-359534
-359327
-359251
-359037
-358862
-358745
-358569
-358452
-358300
-358118
-357980
-357937
-357808
-357751
-357684
-357561
-357417
-357368
-357349
-357267
-357196
-357173
-357057
-357028
-356976
-356923
-356867
-356849
-356836
-356873
-356816
-356839
-356778
-356795
-356797
-356841
-356837
-356842
-356876
-356847
-356889
-356859
-356882
-356890
-356993
-356957
-356986
-356948
-357010
-357079
-357125
-357112
-357181
-357206
-357235
-357271
-357306
-357300
-357345
-357391
-357423
-357519
-357507
-357497
-357568
-357674
-357719
-357827
-357882
-357909
-357960
-358022
-358105
-358151
-358267
-358425
-358538
-358640
-358763
-358887
-358995
-359200
-359321
-359474
-359685
-359875
-360065
-360170
-360335
-360530
-360701
-360869
-361042
-361264
-361413
-361574
-361770
-362028
-362212
-362365
-362559
-362602
-362847
-363090
-363258
-363422
-363576
-363738
-363964
-364076
-364298
-364422
-364579
-364669
-364800
-364929
-365117
-365197
-365299
-365441
-365512
-365588
-365711
-365775
-365923
-365975
-366076
-366146
-366256
-366289
-366298
-366342
-366413
-366449
-366542
-366549
-366658
-366735
-366778
-366826
-366827
-366835
-366847
-367131
-366985
-366994
-366967
-367057
-367031
-367088
-367087
-367174
-367232
-367148
-367136
-367208
-367179
-367188
-367230
-367306
-367255
-367236
-367290
-367239
-367237
-367336
-367355
-367305
-367318
-367349
-367385
-367451
-367473
-367464
-367511
-367564
-367630
-367565
-367662
-367641
-367693
-367726
-367736
-367785
-367858
-367919
-367984
-368025
-368135
-368078
-368121
-368150
-368200
-368247
-368326
-368448
-368515
-368541
-368647
-368688
-368727
-368801
-368886
-368920
-368969
-369049
-369181
-369294
-369345
-369433
-369486
-369463
-369633
-369721
-369888
-369953
-370007
-370068
-370174
-370311
-370398
-370461
-370601
-370674
-370747
-370856
-370997
-371044
-371114
-371267
-371306
-371397
-371441
-371590
-371743
-371805
-371908
-372034
-372013
-372233
-372349
-372413
-372536
-372676
-372741
-372835
-372950
-373093
-373088
-373266
-373323
-373459
-373572
-373710
-373748
-373861
-374034
-374087
-374199
-374324
-374459
-374523
-374647
-374705
-374858
-375031
-375110
-375182
-375279
-375348
-375520
-375541
-375609
-375720
-375895
-375906
-376033
-376164
-376246
-376331
-376434
-376532
-376635
-376741
-376813
-376940
-377034
-377183
-377206
-377377
-377480
-377516
-377623
-377683
-377761
-377849
-378046
-378023
-378073
-378179
-378327
-378420
-378505
-378602
-378733
-378842
-378909
-379018
-379088
-379148
-379240
-379333
-379471
-379460
-379546
-379664
-379738
-379783
-379865
-380023
-380093
-380204
-380286
-380312
-380481
-380505
-380639
-380685
-380776
-380897
-380988
-380929
-380997
-381103
-381263
-381391
-381357
-381461
-381752
-381689
-381632
-381719
-381821
-381919
-382037
-382119
-382270
-382378
-382425
-382497
-382582
-382653
-382662
-382768
-382945
-383001
-383111
-383141
-383242
-383371
-383414
-383455
-383547
-383605
-383663
-383769
-383880
-383965
-384000
-384080
-384148
-384222
-384248
-384364
-384436
-384457
-384544
-384712
-384689
-384753
-384850
-384874
-385021
-385056
-385127
-385192
-385245
-385310
-385412
-385442
-385574
-385629
-385684
-385740
-385845
-385882
-385997
-386080
-386172
-386223
-386361
-386350
-386438
-386521
-386634
-386749
-386804
-386856
-386945
-386941
-387039
-387081
-387157
-387186
-387335
-387427
-387439
-387486
-387572
-387567
-387706
-387789
-387767
-388011
-388039
-388151
-388297
-388323
-388417
-388535
-388547
-388554
-388713
-388850
-388945
-389012
-389057
-389127
-389205
-389271
-389332
-389477
-389546
-389688
-389686
-389698
-389656
-389556
-389554
-389521
-389403
-389301
-389141
-388898
-388735
-388449
-388200
-387857
-387496
-387162
-386792
-386376
-385903
-385496
-385010
-384428
-383947
-383320
-382719
-382127
-381549
-380848
-380206
-379560
-378855
-378177
-377467
-376830
-376179
-375470
-374790
-374169
-373481
-372905
-372294
-371626
-370990
-370338
-369707
-369186
-368604
-368028
-367472
-366974
-366503
-365966
-365596
-365123
-364606
-364251
-363837
-363487
-363091
-362712
-362312
-362029
-361694
-361371
-361103
-360835
-360595
-360367
-360167
-359851
-359647
-359489
-359347
-359142
-358955
-358828
-358673
-358569
-358360
-358193
-358110
-358046
-357913
-357773
-357693
-357644
-357534
-357437
-357405
-357403
-357346
-357244
-357149
-357159
-357079
-357076
-357041
-357049
-357210
-357070
-357028
-357022
-356988
-356993
-356999
-356991
-357013
-356964
-356988
-357098
-357104
-357173
-357171
-357179
-357243
-357227
-357310
-357305
-357347
-357420
-357367
-357371
-357515
-357540
-357588
-357651
-357705
-357690
-357740
-357735
-357780
-357828
-357898
-357992
-358086
-358069
-358172
-358237
-358268
-358376
-358440
-358551
-358697
-358694
-358851
-358965
-359067
-359167
-359322
-359466
-359520
-359752
-359918
-360117
-360288
-360436
-360634
-360783
-360987
-361148
-361351
-361546
-361751
-361890
-362092
-362291
-362480
-362656
-363132
-363117
-363232
-363409
-363555
-363740
-363868
-363991
-364038
-364219
-364377
-364598
-364957
-364991
-365039
-365141
-365225
-365379
-365451
-365524
-365639
-365693
-365830
-365924
-366011
-366060
-366112
-366205
-366305
-366360
-366381
-366366
-366405
-366496
-366511
-366553
-366576
-366639
-366652
-366718
-366704
-366730
-366748
-366726
-366819
-366823
-366792
-366813
-366816
-366897
-366954
-366922
-366986
-366932
-366976
-366903
-366971
-367018
-367028
-367004
-367046
-367083
-367065
-366988
-367017
-367094
-367121
-367246
-367219
-367191
-367234
-367318
-367324
-367410
-367386
-367454
-367545
-367522
-367530
-367575
-367654
-367685
-367735
-367760
-367806
-367873
-367926
-367912
-368019
-368096
-368115
-368158
-368261
-368345
-368316
-368391
-368426
-368431
-368493
-368603
-368717
-368764
-368857
-369004
-369109
-369105
-369142
-369255
-369325
-369386
-369575
-369588
-369702
-369797
-369900
-369916
-370032
-370087
-370224
-370243
-370302
-370450
-370597
-370675
-370799
-370840
-370917
-371089
-371181
-371267
-371389
-371425
-371596
-371696
-371785
-371868
-371915
-372036
-372148
-372259
-372326
-372415
-372519
-372653
-372802
-372822
-372888
-373016
-373127
-373202
-373351
-373400
-373509
-373676
-373799
-373899
-374074
-374124
-374324
-374414
-374448
-374566
-374677
-374772
-374875
-374928
-375078
-375189
-375246
-375352
-375447
-375529
-375634
-375738
-375827
-375883
-375977
-376150
-376133
-376269
-376394
-376455
-376538
-376663
-376715
-376831
-376904
-376988
-377056
-377119
-377227
-377297
-377473
-377528
-377647
-377713
-377805
-377874
-377960
-378118
-378109
-378175
-378296
-378435
-378454
-378555
-378631
-378765
-378852
-378976
-379016
-379062
-379158
-379222
-379323
-379443
-379516
-379587
-379676
-379973
-379902
-379885
-379934
-380021
-380131
-380152
-380196
-380265
-380329
-380419
-380554
-380626
-380754
-380760
-380839
-380927
-380991
-381069
-381194
-381275
-381434
-381498
-381539
-381663
-381741
-381829
-381872
-381900
-381963
-382049
-382142
-382220
-382408
-382421
-382483
-382575
-382657
-382711
-382804
-382837
-382916
-382986
-383085
-383151
-383177
-383316
-383368
-383436
-383502
-383567
-383625
-383662
-383777
-383829
-383893
-383958
-383994
-384130
-384113
-384291
-384303
-384373
-384470
-384532
-384543
-384567
-384653
-384747
-384873
-384898
-384917
-385028
-385092
-385155
-385214
-385271
-385339
-385436
-385709
-385603
-385661
-385591
-385689
-385834
-385933
-386009
-386077
-386122
-386187
-386186
-386348
-386454
-386554
-386587
-386605
-386668
-386726
-386756
-386831
-386910
-386917
-387015
-387170
-387163
-387514
-387315
-387269
-387325
-387360
-387329
-387393
-387310
-387234
-387150
-387006
-386951
-386785
-386591
-386409
-386186
-386036
-385688
-385308
-385041
-384757
-384339
-383895
-383358
-382914
-382430
-381931
-381357
-380766
-380235
-379586
-378944
-378334
-377670
-376978
-376348
-375692
-374976
-374363
-373705
-373029
-372329
-371682
-371099
-370455
-369841
-369206
-368574
-367992
-367488
-366936
-366371
-365850
-365270
-364769
-364330
-363867
-363427
-362871
-362470
-362072
-361670
-361364
-361032
-360595
-360297
-360007
-359669
-359364
-359070
-358802
-358496
-358244
-357994
-357753
-357506
-357320
-357140
-356967
-356684
-356531
-356350
-356166
-356010
-355921
-355737
-355545
-355499
-355389
-355286
-355124
-355095
-354963
-354844
-354792
-354761
-354676
-354605
-354535
-354245
-354235
-354147
-354113
-354125
-354081
-354115
-354153
-354058
-354014
-354034
-354098
-354034
-354021
-354143
-354125
-354164
-354151
-354178
-354198
-354269
-354309
-354345
-354386
-354427
-354464
-354437
-354492
-354578
-354606
-354685
-354765
-354804
-354929
-354887
-354973
-355312
-355273
-355289
-355313
-355390
-355553
-355664
-355710
-355917
-355974
-356101
-356168
-356336
-356508
-356683
-356815
-356987
-357154
-357363
-357525
-357696
-357858
-357969
-358195
-358357
-358540
-358749
-358964
-359121
-359324
-359562
-359701
-359854
-360026
-360254
-360390
-360530
-360673
-360820
-360983
-361166
-361330
-361401
-361549
-361720
-361876
-362032
-362080
-362297
-362404
-362410
-362558
-362699
-362751
-362861
-362865
-363038
-363109
-363167
-363272
-363278
-363341
-363397
-363681
-363607
-363610
-363695
-363702
-363704
-363823
-363778
-363821
-363859
-364029
-363900
-363970
-364042
-364074
-364092
-364106
-364125
-364152
-364113
-364203
-364207
-364225
-364210
-364356
-364346
-364361
-364359
-364362
-364347
-364440
-364399
-364464
-364498
-364501
-364570
-364683
-364626
-364708
-364683
-364696
-364676
-364783
-364798
-364800
-364837
-364937
-364904
-364996
-365090
-365105
-365121
-365128
-365232
-365283
-365311
-365357
-365387
-365454
-365544
-365633
-365626
-365688
-365710
-365787
-365879
-365929
-365996
-366076
-366152
-366204
-366310
-366379
-366488
-366636
-366647
-366694
-366830
-366892
-366993
-367054
-367128
-367208
-367368
-367473
-367502
-367671
-367750
-367879
-368034
-368072
-368165
-368297
-368358
-368484
-368532
-368642
-368724
-368791
-368848
-368956
-369032
-369154
-369318
-369459
-369548
-369651
-369618
-369790
-370165
-370185
-370342
-370416
-370517
-370631
-370745
-370808
-370973
-371101
-371180
-371282
-371404
-371456
-371574
-371704
-371820
-371931
-372110
-372136
-373448
-373556
-373712
-373766
-373869
-373958
-374159
-374191
-374232
-374413
-374500
-374613
-374614
-374760
-374919
-375033
-375206
-375277
-375345
-375420
-376189
-376288
-376421
-376461
-376607
-376680
-376804
-376954
-377039
-377062
-377142
-377292
-377393
-377425
-377600
-377666
-377767
-377856
-377918
-378023
-378063
-378191
-378289
-378360
-378482
-378572
-378663
-378747
-378855
-379041
-379064
-379174
-379159
-379325
-379369
-379522
-379698
-379737
-379835
-379944
-379954
-380043
-380161
-380266
-380384
-380496
-380512
-380642
-380753
-380770
-380905
-380940
-381000
-380947
-381159
-381271
-381375
-381523
-381615
-381656
-381737
-381787
-381852
-382200
-382042
-382066
-382248
-382305
-382360
-382469
-382564
-382536
-382701
-382739
-382836
-382835
-382970
-383039
-383202
-383275
-383340
-383434
-383465
-383571
-383733
-383714
-383776
-383912
-383936
-384016
-384078
-384158
-384284
-384352
-384410
-384479
-384796
-384683
-384779
-384835
-385265
-385322
-385418
-385466
-385590
-385668
-385699
-385753
-385776
-385923
-385945
-386049
-386166
-386264
-386309
-386393
-386425
-386513
-386611
-386658
-386709
-386789
-386794
-386927
-387003
-387017
-387152
-387227
-387299
-387371
-387450
-387489
-387609
-387723
-387721
-387819
-387899
-387988
-388035
-388193
-388283
-388251
-388418
-388557
-388562
-388633
-388681
-388736
-388747
-388734
-388763
-388829
-388813
-388706
-388640
-388572
-388485
-388297
-388160
-387934
-387784
-387548
-387230
-386917
-386514
-386184
-385770
-385352
-384923
-384361
-383843
-383296
-382700
-382137
-381464
-380846
-380200
-379546
-378821
-378178
-377478
-376791
-376150
-375453
-374734
-374081
-373427
-372665
-372008
-371327
-370674
-370073
-369523
-368881
-368244
-367655
-367087
-366538
-366015
-365461
-364518
-364081
-363554
-363165
-362714
-362386
-361821
-361526
-361234
-360805
-360521
-360278
-359943
-359664
-359385
-359080
-358903
-358586
-358388
-358133
-357880
-357727
-357521
-357343
-357166
-357055
-356936
-356731
-356657
-356460
-356358
-356252
-356167
-356078
-356057
-355919
-355761
-355749
-355724
-355616
-355574
-355474
-355425
-355435
-355401
-355363
-355334
-355333
-355307
-355255
-355275
-355155
-355196
-355177
-355212
-355205
-355203
-355150
-355228
-355321
-355250
-355322
-355310
-355330
-355351
-355326
-355443
-355452
-355446
-355436
-355512
-355491
-355510
-355519
-355559
-355587
-355719
-355646
-355789
-355737
-355846
-355874
-356167
-355965
-356004
-356036
-356084
-356075
-356203
-356279
-356353
-356706
-356594
-356548
-356708
-356766
-356879
-356973
-357060
-357198
-357325
-357426
-357552
-357728
-357942
-358086
-358305
-358400
-358581
-358763
-358916
-359140
-359343
-359475
-359649
-359926
-360053
-360236
-360443
-360664
-360794
-361616
-361791
-361957
-362078
-362378
-362494
-362676
-362827
-362835
-363052
-363198
-363410
-363563
-363598
-363743
-363836
-363963
-364071
-364178
-364287
-364346
-364435
-364520
-364620
-364648
-364791
-364896
-364967
-364963
-365003
-365058
-365141
-365261
-365193
-365297
-365335
-365394
-365397
-365396
-365381
-365424
-365541
-365505
-365512
-365534
-365509
-365557
-365578
-365582
-365619
-365564
-365608
-365616
-365678
-365660
-365712
-365726
-365723
-365703
-365763
-365718
-365741
-365773
-365816
-365826
-365762
-365841
-365895
-365891
-365913
-365943
-365974
-365987
-365982
-366018
-366090
-366127
-366125
-366216
-366260
-366305
-366339
-366419
-366384
-366476
-366527
-366522
-366636
-366610
-366671
-366787
-366778
-366883
-366912
-366915
-367031
-367091
-367124
-367189
-367221
-367251
-367314
-367470
-367498
-367585
-367604
-367740
-367782
-367888
-367964
-368073
-368072
-368160
-368256
-368365
-368472
-368519
-368592
-368666
-368701
-368871
-369001
-369052
-369205
-369331
-369637
-369704
-369753
-369928
-370174
-370304
-370468
-370699
-370758
-370815
-370970
-371072
-371162
-371377
-371540
-371663
-371736
-371786
-371936
-372009
-372204
-372270
-372221
-372358
-372501
-372662
-372785
-372833
-372969
-373067
-373179
-373237
-373363
-373436
-373558
-373617
-373691
-373833
-373995
-374049
-374106
-374251
-374312
-374460
-374581
-374668
-374820
-374882
-375040
-375110
-375229
-375282
-375392
-375523
-375611
-375750
-375795
-375903
-375989
-376089
-376063
-376186
-376292
-376450
-376603
-376651
-376701
-376754
-376816
-376947
-377045
-377075
-377207
-377414
-377385
-377392
-377452
-377605
-377689
-377769
-377783
-377862
-377977
-378080
-378147
-378252
-378313
-378352
-378450
-378522
-378584
-378740
-378774
-378861
-378933
-379063
-379102
-379229
-379305
-379302
-379426
-379547
-379635
-379677
-379714
-379806
-379910
-380012
-380045
-380166
-380261
-380301
-380399
-380422
-380479
-380541
-380643
-380713
-380773
-380906
-380955
-380982
-381078
-381168
-381231
-381281
-381384
-381471
-381574
-381646
-381711
-381729
-381793
-381869
-381942
-382099
-382118
-382224
-382278
-382340
-382367
-382448
-382645
-382643
-382679
-382826
-382827
-382917
-383039
-383131
-383200
-383224
-383335
-383350
-383401
-383507
-383583
-383574
-383704
-384048
-383916
-383999
-384044
-383966
-384083
-384176
-384264
-384357
-384372
-384409
-384500
-384516
-384628
-384713
-384654
-384756
-384837
-384975
-385055
-385121
-385163
-385225
-385341
-385392
-385495
-385530
-385624
-385622
-385677
-385761
-385844
-385945
-385994
-386154
-386230
-386302
-386320
-386391
-386479
-386554
-386598
-386739
-386786
-386792
-386885
-386904
-386920
-387008
-386940
-386933
-386869
-386844
-386799
-386752
-386629
-386485
-386360
-386148
-385957
-385707
-385363
-385039
-384780
-384430
-383953
-383489
-383104
-382573
-382086
-381528
-381014
-380488
-379880
-379240
-378570
-378008
-377295
-376600
-375933
-375187
-374507
-373887
-373267
-372523
-371841
-371211
-370498
-369920
-369259
-368640
-368004
-367428
-366913
-366308
-365809
-365249
-364743
-364220
-363741
-363291
-362738
-362343
-361963
-361552
-361214
-360748
-360419
-360104
-359707
-359382
-359110
-358758
-358488
-358199
-357983
-357776
-357480
-357280
-357087
-356877
-356720
-356511
-356338
-356148
-356062
-355903
-355781
-355594
-355460
-355301
-355205
-355148
-355109
-354975
-354912
-354852
-354780
-354710
-354718
-354708
-354587
-354490
-354501
-354532
-354501
-354448
-354441
-354381
-354351
-354399
-354435
-354420
-354367
-354385
-354430
-354391
-354401
-354471
-354411
-354501
-354447
-354475
-354515
-354534
-354590
-354650
-354663
-354619
-354722
-354757
-354709
-354771
-354748
-354853
-354861
-354902
-355009
-355007
-355095
-355119
-355118
-355212
-355263
-355402
-355433
-355442
-355472
-355587
-355622
-355638
-355807
-355944
-355969
-356107
-356216
-356329
-356495
-356556
-356737
-356879
-357045
-357138
-357326
-357512
-357644
-357858
-357963
-358102
-358308
-358473
-358692
-358810
-359031
-359231
-359450
-359609
-359771
-359856
-360047
-360244
-360415
-360598
-360850
-361017
-361220
-361362
-361486
-361684
-362221
-362058
-362125
-362160
-362332
-362439
-362654
-362675
-363094
-363028
-363074
-363167
-363227
-363353
-363415
-363884
-363739
-363750
-363793
-363847
-363862
-363958
-364034
-364099
-364201
-364188
-364159
-364294
-364332
-364331
-364367
-364500
-364422
-364443
-364461
-364528
-364547
-364623
-364612
-364599
-364611
-364627
-364720
-364724
-364765
-364827
-364802
-364787
-364784
-364865
-364869
-364875
-364922
-364964
-364959
-364930
-365008
-365088
-365087
-365088
-365101
-365166
-365220
-365231
-365299
-365361
-365345
-365348
-365428
-365445
-365485
-365516
-365532
-365620
-365690
-365781
-365773
-365830
-365852
-365901
-365909
-365943
-366108
-366095
-366155
-366163
-366286
-366332
-366402
-366481
-366504
-366613
-366662
-366785
-366874
-366912
-367033
-367143
-367147
-367207
-367394
-367459
-367533
-367714
-367775
-367816
-367973
-368178
-368280
-368450
-368555
-368631
-368629
-368776
-368893
-368954
-368991
-369109
-369228
-369376
-369524
-369975
-370192
-370256
-370484
-370603
-370705
-370828
-370878
-371020
-371149
-371386
-371470
-371490
-371660
-371793
-371924
-371951
-372077
-372160
-372267
-372443
-372539
-372726
-372737
-372819
-372924
-373048
-373120
-373266
-373282
-373414
-373525
-373648
-373673
-373803
-373955
-373945
-374085
-374095
-374252
-374404
-374380
-374536
-374676
-374753
-375146
-375030
-375010
-375139
-375191
-375296
-375388
-375468
-375608
-375722
-375792
-375809
-375886
-376020
-376078
-376174
-376301
-376398
-376556
-376612
-376591
-376717
-376833
-376851
-377007
-377061
-377230
-377280
-377374
-377571
-377581
-377696
-377771
-377827
-377957
-378033
-378119
-378165
-378192
-378296
-378403
-378582
-378648
-378692
-378773
-378917
-379003
-379097
-379168
-379289
-379292
-379393
-379487
-379534
-379648
-379771
-379835
-379902
-379973
-379982
-380135
-380226
-380272
-380434
-380527
-380572
-380700
-380719
-380827
-380882
-380978
-381005
-381143
-381225
-381257
-381391
-381441
-381542
-381605
-381595
-381658
-381749
-381927
-381962
-382069
-382122
-382138
-382288
-382302
-382446
-382477
-382542
-382599
-382677
-382788
-382868
-382979
-383077
-383129
-383251
-383337
-383385
-383474
-383535
-383697
-383810
-383902
-383978
-383925
-384016
-384095
-384238
-384310
-384414
-384392
-384490
-384521
-384603
-384702
-384798
-384777
-384869
-384981
-384991
-385085
-385129
-385212
-385207
-385300
-385335
-385396
-385470
-385553
-385629
-385691
-385697
-385822
-385854
-385939
-386063
-386443
-386520
-386535
-386586
-386736
-386533
-386738
-386923
-387062
-386962
-387145
-387243
