PPG
-609273
-609355
-609463
-609667
-609792
-610043
-610191
-610272
-610420
-610595
-610771
-610945
-610927
-611172
-611294
-611544
-611742
-611935
-612026
-612243
-612369
-612455
-612615
-612769
-612945
-613210
-613232
-613440
-613535
-613682
-613867
-613999
-614150
-614244
-614489
-614631
-614801
-614875
-615091
-615173
-615357
-615514
-615707
-615836
-616019
-616178
-616301
-616528
-616741
-616931
-617136
-617298
-617450
-617636
-617794
-617908
-618141
-618239
-618420
-618618
-618856
-618976
-619226
-619382
-619501
-619727
-619752
-619924
-620179
-620352
-620508
-620661
-620744
-620907
-621052
-621267
-621356
-621563
-621649
-621861
-621962
-622054
-622126
-622325
-622501
-622594
-622787
-622929
-622994
-623063
-623157
-623289
-623459
-623558
-623709
-623827
-623947
-624209
-624339
-624476
-624587
-624668
-624877
-624932
-625075
-625279
-625402
-625488
-625662
-625824
-625957
-626011
-626188
-626287
-626478
-626661
-626759
-626872
-627093
-627207
-627481
-627649
-627846
-627948
-628029
-628225
-628398
-628480
-628601
-628714
-628889
-629087
-629164
-629364
-629541
-629621
-629781
-629992
-630037
-630090
-630248
-630303
-630491
-630544
-630701
-630826
-630967
-631077
-631112
-631180
-631125
-631115
-631130
-631015
-630886
-630796
-630579
-630337
-630069
-629831
-629439
-628992
-628539
-627995
-627446
-626877
-626263
-625555
-624788
-624080
-623226
-622428
-621548
-620725
-619801
-618910
-617999
-617059
-616121
-615191
-614272
-613345
-612509
-611666
-610891
-610015
-609210
-608517
-607723
-606958
-606277
-605610
-604947
-604358
-603716
-603080
-602471
-601907
-601304
-600840
-600269
-599842
-599301
-598876
-598349
-598057
-597507
-597121
-596762
-596430
-596040
-595706
-595302
-595039
-594659
-594445
-594163
-593886
-593597
-593344
-593137
-592910
-592697
-592500
-592313
-592121
-591918
-591855
-591724
-591548
-591469
-591386
-591244
-591127
-591042
-591027
-590976
-590918
-590886
-590812
-590786
-590858
-590849
-590878
-590735
-590782
-590798
-590927
-590789
-590945
-591055
-591147
-591170
-591255
-591353
-591328
-591475
-591598
-591678
-591775
-591854
-592037
-592134
-592339
-592532
-592687
-592837
-592914
-593030
-593240
-593423
-594018
-593984
-594068
-594175
-594427
-594576
-594842
-594999
-595245
-595468
-595631
-595803
-595989
-596189
-596413
-596556
-596665
-596856
-596972
-597123
-597313
-597481
-597714
-597890
-598037
-598123
-598320
-598476
-598605
-598697
-598779
-598904
-599096
-599247
-599358
-599460
-599497
-599593
-599789
-599860
-599935
-599928
-600069
-600190
-600378
-600369
-600420
-600461
-600524
-600555
-600661
-600698
-600721
-600808
-600828
-600883
-600845
-600879
-600970
-600955
-600917
-600935
-600890
-600918
-600986
-601060
-600967
-600997
-601035
-601057
-601040
-601028
-601015
-601027
-601037
-601017
-601054
-600993
-601034
-601057
-601101
-601072
-601054
-601057
-601150
-601160
-601136
-601182
-601238
-601329
-601319
-601348
-601289
-601785
-601583
-601530
-601538
-601641
-601582
-601727
-601794
-601790
-601941
-601968
-602002
-602028
-602223
-602284
-602369
-602435
-602626
-602716
-602715
-602839
-602918
-603036
-603198
-603316
-603395
-603511
-603657
-603723
-603781
-603934
-604015
-604184
-604351
-604411
-604609
-604624
-604681
-604809
-604940
-605089
-605226
-605345
-605480
-605657
-605665
-605830
-605947
-606159
-606245
-606397
-606541
-606731
-606771
-606896
-607042
-607261
-607428
-607493
-607775
-607810
-608036
-608167
-608301
-608479
-608588
-608777
-608930
-609179
-609186
-609391
-609632
-609745
-609891
-610011
-610161
-610309
-610556
-610732
-610879
-611045
-611182
-611287
-611523
-611668
-611839
-611966
-612174
-612241
-612424
-612577
-612802
-612967
-613126
-613320
-613534
-613736
-613814
-614032
-614262
-614411
-614593
-614753
-614856
-615115
-615277
-615393
-615510
-615714
-615937
-616122
-616215
-616334
-616506
-616628
-616841
-618001
-618193
-618325
-618426
-618632
-618742
-618900
-619037
-619101
-619225
-619454
-619586
-619690
-619815
-620024
-620189
-620296
-620437
-620547
-620762
-620866
-621088
-621170
-621355
-622050
-621712
-621746
-621836
-621936
-621994
-622049
-622256
-622340
-622591
-622680
-622786
-622988
-623014
-623151
-623249
-623430
-623583
-623709
-623772
-623988
-624069
-624214
-624330
-624470
-624694
-624783
-624982
-625102
-625319
-625480
-625597
-625769
-625811
-625990
-626088
-626374
-626386
-626541
-626791
-626913
-627051
-627190
-627344
-627485
-627620
-627778
-627820
-627953
-628055
-628034
-628177
-628252
-628255
-628207
-628112
-628066
-628036
-627922
-627704
-627427
-627092
-626914
-626557
-626062
-625614
-625164
-624583
-623993
-623300
-622587
-621976
-621155
-620413
-619581
-618681
-617857
-616934
-616014
-615162
-614211
-613286
-612374
-611568
-610603
-609801
-608917
-608141
-607242
-606441
-605702
-604958
-604144
-603477
-602712
-602014
-601405
-600764
-600182
-599680
-599016
-598488
-597910
-597367
-596839
-596368
-595826
-595438
-595009
-594591
-594215
-593863
-593540
-593114
-592773
-592446
-592144
-591850
-591558
-591243
-590940
-590766
-590494
-590269
-590049
-589806
-589683
-589453
-589287
-589180
-588920
-588826
-588697
-588498
-588423
-588358
-588222
-588128
-588029
-587997
-587913
-587848
-587847
-587770
-587693
-587674
-587710
-587694
-587731
-587677
-587753
-587783
-587810
-587801
-587893
-587930
-588003
-588065
-588154
-588215
-588341
-588971
-588741
-588822
-588932
-589063
-589107
-589355
-589412
-589626
-589874
-590065
-590198
-590339
-590502
-590712
-591522
-591752
-591958
-592039
-592254
-592465
-592705
-592792
-593010
-593177
-593323
-593531
-593725
-593867
-594116
-594312
-594479
-594646
-594824
-594976
-595544
-595640
-595822
-595964
-596063
-596171
-596268
-596340
-596528
-596556
-596715
-596790
-596917
-596994
-597047
-597097
-597239
-597240
-597403
-597361
-597417
-597480
-597475
-598057
-597696
-597699
-597768
-597780
-597828
-597808
-597802
-597809
-597781
-597825
-597849
-597880
-597877
-597896
-597917
-597950
-597949
-598007
-597998
-598029
-598014
-597996
-598072
-598093
-598058
-598095
-598083
-598102
-598122
-598110
-598215
-598198
-598292
-598324
-598269
-598457
-598422
-598431
-598401
-598452
-598445
-598524
-598574
-598616
-598696
-598695
-598697
-598839
-598902
-598906
-599032
-599060
-599153
-599244
-599282
-599321
-599431
-599469
-599705
-599825
-599886
-600006
-600106
-600178
-600338
-600421
-600559
-600588
-600662
-600759
-600963
-601014
-601176
-601352
-601506
-601521
-601623
-601724
-601847
-601995
-602115
-602169
-602313
-602413
-602554
-602694
-602811
-602957
-603097
-603254
-603343
-603485
-603669
-603820
-603944
-604116
-604230
-604366
-604537
-604677
-604895
-605000
-605149
-605262
-605475
-605664
-605823
-605881
-606055
-606236
-606446
-606603
-606750
-606927
-607002
-607108
-607415
-607548
-607624
-607926
-607975
-608184
-608393
-608478
-608577
-608834
-608988
-609201
-609281
-609415
-609606
-609790
-609904
-610079
-610325
-610530
-610645
-610763
-610813
-611052
-611267
-611426
-611590
-611768
-611970
-612068
-612227
-612375
-612624
-612746
-612896
-613093
-613264
-613405
-613604
-613774
-613926
-614115
-614257
-614360
-614527
-614735
-614929
-615026
-615171
-615353
-615473
-615675
-615728
-615919
-616029
-616132
-616243
-616431
-616558
-616655
-616784
-616950
-617174
-617274
-617440
-617623
-617735
-617850
-617928
-618079
-618176
-618346
-618510
-618723
-618798
-618974
-619050
-619146
-619293
-619461
-619568
-619712
-619766
-619889
-619996
-620171
-620279
-620366
-620561
-620674
-620721
-620851
-620984
-621129
-621243
-621413
-621533
-621606
-621799
-621925
-622061
-622206
-622367
-622453
-622636
-622738
-622935
-623069
-623142
-623367
-623495
-623597
-623791
-623891
-624088
-624246
-624409
-624521
-624701
-624843
-625044
-625052
-625246
-625335
-625488
-625518
-625650
-625778
-625860
-625956
-625826
-625811
-625670
-625557
-625348
-625107
-624849
-624505
-624215
-623598
-623241
-622747
-622232
-621670
-620973
-620266
-619519
-618875
-618041
-617229
-616329
-615384
-614538
-613576
-612574
-611799
-610888
-609902
-608833
-608049
-607199
-605509
-604686
-603844
-603140
-602325
-600916
-600304
-599632
-598855
-598255
-597700
-597095
-596519
-596034
-595404
-594929
-594502
-593871
-593573
-593012
-592510
-592140
-591638
-591364
-590899
-590505
-590215
-589835
-589523
-589261
-588948
-588637
-588377
-588089
-587880
-587632
-587365
-587083
-586968
-586039
-585924
-585798
-585713
-585595
-585539
-585407
-585368
-585299
-585211
-585153
-585156
-585136
-585161
-585004
-584958
-585002
-585087
-585068
-585108
-585156
-585199
-585316
-585288
-585443
-585441
-585530
-585638
-585726
-585828
-586031
-586133
-586294
-586406
-586525
-586742
-586877
-586979
-587217
-587364
-587543
-587748
-587852
-588089
-588202
-588445
-588542
-588766
-588975
-589124
-589323
-589591
-589792
-589928
-590151
-590374
-590520
-590638
-590648
-590962
-591117
-591345
-591451
-591595
-591832
-591938
-592123
-592273
-592349
-592555
-592676
-592861
-593043
-593106
-593260
-593309
-593478
-593616
-593690
-593810
-593880
-594026
-594170
-594126
-594184
-594295
-594322
-594400
-594514
-594504
-594576
-594633
-594631
-594783
-594772
-594774
-594843
-594907
-594843
-594896
-594936
-595285
-595134
-595103
-595035
-595100
-595129
-595049
-595132
-595205
-595195
-595163
-595204
-595252
-595229
-595312
-595302
-595260
-595336
-595313
-595269
-595304
-595406
-595403
-595413
-595451
-595442
-595443
-595543
-595598
-595664
-595675
-595656
-595723
-595807
-595765
-595952
-595979
-596102
-596041
-596186
-596197
-596226
-596410
-596458
-596563
-596569
-596603
-596790
-596866
-596917
-597034
-597149
-597227
-597320
-597667
-597530
-597705
-597648
-597846
-598021
-598040
-598218
-598263
-598418
-598563
-598633
-598735
-598868
-599000
-599170
-599376
-599486
-599574
-599747
-599808
-599935
-600084
-600214
-600287
-600478
-600597
-600811
-600924
-601023
-601216
-601337
-601436
-602031
-601812
-601926
-602103
-602257
-602377
-602516
-602623
-602849
-603045
-603177
-603296
-603362
-603560
-603654
-603795
-603934
-604121
-604280
-604405
-604381
-604705
-604935
-605058
-605231
-605468
-605574
-605680
-605835
-606052
-606254
-606379
-606544
-606822
-606942
-607130
-607251
-607502
-607649
-607814
-608032
-608170
-608356
-608543
-608676
-608811
-608997
-609165
-609380
-609503
-609609
-609748
-609954
-610184
-610282
-610363
-610550
-610730
-610840
-611093
-611181
-611342
-611529
-611654
-611702
-612005
-612152
-612322
-612479
-612663
-612839
-612926
-613084
-613207
-613339
-613482
-613762
-613828
-613988
-614120
-614195
-614356
-614452
-614630
-614678
-614852
-614950
-615122
-615212
-615379
-615553
-615659
-615768
-615800
-615968
-616129
-616353
-616556
-616604
-616776
-616883
-616956
-617035
-617193
-617311
-617472
-617649
-617750
-617938
-618017
-618085
-618228
-618385
-618511
-618628
-618794
-618922
-619046
-619115
-619303
-619427
-619544
-619644
-619858
-620056
-620141
-620251
-620423
-620538
-620672
-620864
-620895
-621047
-621216
-621307
-621477
-621685
-621757
-622018
-622009
-622209
-622307
-622503
-622695
-622779
-622938
-623022
-623083
-623236
-623222
-623422
-623328
-623580
-623605
-623649
-623504
-623512
-623322
-623199
-623014
-622734
-622432
-622109
-621611
-621133
-620657
-620121
-619516
-618880
-618253
-617429
-616712
-615905
-615140
-614208
-613328
-612397
-611445
-610476
-609560
-608732
-607672
-606712
-605860
-605124
-604210
-603446
-602669
-601773
-600969
-600180
-599442
-598753
-598125
-597508
-596917
-596256
-595646
-595061
-594514
-593977
-593392
-592871
-592348
-591856
-591386
-590938
-590440
-590091
-589826
-589314
-588913
-588619
-588256
-587966
-587651
-587329
-587027
-586691
-586348
-586135
-585861
-585701
-585437
-585170
-584916
-584775
-584581
-584353
-584199
-584106
-583899
-583821
-583704
-583601
-583501
-583423
-583340
-583216
-583232
-583180
-583045
-583032
-582982
-583030
-582949
-582940
-582974
-582952
-582878
-583014
-583015
-583137
-583190
-583224
-583267
-583286
-583386
-583521
-583560
-583658
-583760
-583899
-584004
-584129
-584244
-584446
-584648
-584750
-584872
-585049
-585250
-585648
-585677
-585851
-586043
-586285
-586367
-586627
-586815
-586956
-587164
-587377
-587539
-587842
-588035
-588287
-588424
-588556
-588681
-588908
-589118
-589256
-589370
-589602
-589826
-589980
-590159
-590218
-590418
-590557
-590779
-590881
-591082
-591264
-591365
-591442
-591553
-591693
-591735
-591788
-591960
-592043
-592133
-592157
-592243
-592407
-592482
-592571
-592710
-592662
-592748
-592771
-592858
-592936
-592995
-593030
-593066
-593045
-593152
-593175
-593095
-593119
-593148
-593219
-593247
-593327
-593192
-593196
-593267
-593288
-593305
-593363
-593301
-593423
-593397
-593344
-593454
-593433
-593392
-593497
-593568
-593485
-593498
-593595
-593527
-593627
-593683
-593706
-593727
-593758
-593797
-593764
-593918
-594002
-594074
-594053
-594079
-594129
-594121
-594282
-594375
-594464
-594423
-594534
-594631
-594482
-594679
-594869
-594922
-595005
-595127
-595215
-595264
-595395
-595449
-595553
-595643
-595696
-595818
-595919
-596129
-596269
-596285
-596470
-596630
-596696
-596789
-596861
-596963
-597061
-597222
-597370
-597463
-597654
-597714
-597861
-598069
-598089
-598242
-598455
-598508
-598680
-598888
-598981
-599188
-599296
-599460
-599564
-599754
-599857
-600028
-600091
-600293
-600409
-600585
-600721
-600859
-601006
-601182
-601353
-601509
-601615
-601736
-601858
-602573
-602280
-602315
-602483
-602656
-602795
-602990
-603100
-603292
-603396
-603655
-603766
-603973
-604145
-604362
-604567
-604721
-604896
-605068
-605180
-605391
-605580
-605802
-605966
-606131
-606299
-606464
-606634
-606784
-606944
-607056
-607189
-607371
-607527
-607727
-607910
-608109
-608234
-608358
-608461
-608639
-608767
-608951
-609054
-609325
-609514
-609722
-609821
-609961
-610165
-610321
-610509
-610670
-610832
-610967
-611098
-611362
-611412
-611549
-611611
-611832
-612356
-612217
-612374
-612541
-612633
-612761
-612948
-613021
-613050
-613305
-613495
-613488
-613587
-613695
-613969
-614091
-614204
-614386
-614475
-614646
-614747
-614888
-614839
-615081
-615177
-615299
-615402
-615655
-615804
-615800
-615814
-616019
-616175
-616390
-616930
-616712
-616790
-616792
-616928
-617137
-617213
-617300
-617511
-617899
-617842
-618300
-618146
-618223
-618348
-618354
-618539
-618659
-618828
-618981
-618983
-619186
-619355
-619358
-619588
-619795
-619952
-620070
-620821
-620537
-620598
-620620
-620742
-620970
-621150
-621267
-621440
-621643
-621724
-621786
-621989
-622128
-622164
-622195
-622345
-622397
-622372
-622436
-622320
-622231
-622115
-621935
-621484
-621287
-620961
-620606
-620297
-619851
-619334
-619239
-618745
-617580
-616872
-616168
-615446
-614508
-613733
-612852
-611967
-611073
-610155
-609259
-608342
-607350
-606446
-605470
-604618
-603765
-602949
-602020
-601595
-600484
-599673
-598940
-598310
-597515
-596863
-596147
-595500
-594919
-594274
-593766
-593627
-592747
-592143
-591417
-590994
-590773
-590115
-589660
-589232
-588771
-588459
-588115
-587657
-587288
-586975
-586634
-586318
-585952
-585479
-585393
-585149
-584873
-584586
-584398
-584124
-583944
-583692
-583481
-583257
-583150
-582930
-583267
-582723
-582548
-582377
-582237
-582223
-582111
-582047
-582015
-581948
-581846
-581931
-581829
-581713
-581688
-581782
-581852
-581826
-581734
-581834
-581825
-581937
-582148
-582016
-582071
-582204
-582145
-582235
-582442
-582487
-582537
-582628
-582881
-582863
-582884
-583106
-583267
-583448
-583597
-583736
-583951
-584185
-584299
-584540
-584672
-584942
-585164
-585290
-585479
-585772
-586043
-586265
-586354
-586634
-586818
-587066
-587275
-587378
-587567
-587783
-587929
-588121
-588329
-588545
-588658
-588946
-588913
-589463
-589523
-589536
-589625
-589723
-589878
-590031
-590165
-590294
-590440
-590582
-590708
-590865
-590954
-591006
-591056
-591208
-591286
-591333
-591513
-591553
-591645
-591712
-591766
-592450
-592168
-592079
-592107
-592155
-592161
-592259
-592174
-592256
-592247
-592345
-592316
-592359
-592403
-592506
-592486
-592451
-592441
-592568
-592564
-592559
-592533
-592515
-592543
-592567
-592554
-592669
-592642
-592700
-592684
-592718
-592810
-592724
-592776
-592837
-592832
-592911
-592994
-593014
-593065
-592994
-593045
-593085
-593134
-593221
-593187
-593234
-593387
-593445
-593519
-593606
-593662
-593665
-593764
-593839
-594015
-594045
-594199
-594219
-594361
-594420
-594549
-594594
-594745
-594891
-594949
-595011
-595162
-595216
-595385
-595438
-595575
-595672
-595797
-595997
-596169
-596237
-596366
-596541
-596653
-596737
-596809
-597033
-597162
-597260
-597457
-597605
-597739
-597804
-597894
-598052
-598149
-598318
-598497
-598583
-598740
-598916
-599037
-599149
-599305
-599439
-599536
-599673
-599763
-600034
-600171
-600342
-600403
-600584
-600695
-600954
-601030
-601248
-601374
-601604
-601760
-601928
-602146
-602321
-602518
-602620
-602805
-602952
-603153
-603333
-603502
-603624
-603808
-603896
-604067
-604317
-604512
-604662
-604860
-605049
-605179
-605390
-605476
-605737
-605920
-606048
-606258
-606401
-606512
-606789
-606936
-607020
-607213
-607419
-607600
-607713
-607896
-608086
-608244
-608478
-608578
-608805
-608917
-609155
-609348
-609444
-609578
-609893
-609989
-610156
-610293
-610357
-610508
-610745
-610850
-610925
-611012
-611219
-611334
-611456
-611576
-611719
-611851
-612019
-612100
-612309
-612446
-612541
-612783
-612902
-612955
-613162
-613358
-613509
-613638
-613834
-613965
-614130
-614289
-614426
-614644
-614716
-614817
-614950
-615106
-615219
-615402
-615451
-615580
-615808
-615868
-616025
-616109
-616230
-616373
-616515
-616588
-616658
-616821
-616922
-617091
-617176
-617266
-617356
-617482
-617519
-617647
-617822
-617954
-618027
-618128
-618226
-618331
-618489
-618612
-618762
-618886
-619079
-619168
-619287
-619512
-619636
-619857
-619975
-620130
-620270
-620455
-620661
-620845
-620993
-621115
-621215
-621391
-621505
-621675
-621834
-621932
-622118
-622145
-622257
-622390
-622463
-622526
-622410
-622296
-622232
-622182
-621994
-621750
-621572
-621207
-620979
-620619
-620192
-619728
-619245
-618656
-618046
-617489
-616742
-616000
-615312
-614451
-613588
-612740
-611896
-610974
-610164
-609199
-608280
-607329
-606596
-605597
-604752
-603847
-603052
-602116
-601403
-600593
-599827
-598988
-598324
-597591
-596968
-596283
-595604
-595003
-594385
-593796
-593218
-592622
-592053
-591506
-591105
-590556
-590079
-589577
-589129
-588720
-588378
-587888
-587532
-587116
-586823
-586472
-586108
-585747
-585449
-585194
-584949
-584646
-584472
-584185
-583917
-583738
-583514
-583364
-583147
-582968
-582813
-582680
-582518
-582419
-582299
-582163
-581954
-581852
-581891
-581754
-581720
-581701
-581622
-581562
-581509
-581504
-581456
-581446
-581436
-581538
-581546
-581615
-581696
-581683
-581740
-581837
-581922
-581955
-582004
-582173
-582244
-582337
-582455
-582604
-582770
-582811
-583010
-583132
-583291
-583481
-583613
-583766
-583937
-584110
-584324
-584427
-584599
-584748
-585029
-585118
-585262
-585513
-585692
-585861
-586020
-586137
-586424
-586592
-586722
-586873
-587093
-587262
-587384
-587531
-587693
-587900
-588108
-588291
-588478
-588652
-588857
-588938
-589070
-589290
-589402
-589544
-589617
-589725
-589863
-590066
-590241
-590334
-590396
-590536
-590599
-590710
-590914
-590884
-590963
-591099
-591058
-591208
-591250
-591297
-591352
-591401
-591437
-591520
-591609
-591669
-591732
-591680
-591670
-591696
-591701
-591792
-591803
-591773
-591895
-591806
-591870
-591891
-591930
-591940
-591890
-592002
-591977
-592030
-591993
-591907
-591957
-592046
-591957
-592012
-592069
-592081
-592154
-592182
-592164
-592185
-592266
-592282
-592326
-592478
-592430
-592542
-592522
-592606
-592729
-592800
-592806
-592832
-592976
-593178
-593134
-593209
-593238
-593303
-593433
-593517
-593602
-593710
-593752
-593913
-593955
-594049
-594150
-594262
-594401
-594500
-594650
-594694
-594758
-594921
-594961
-595055
-595196
-595359
-595479
-595587
-595661
-595737
-595937
-596097
-596129
-596180
-596408
-596537
-596668
-596727
-596928
-597034
-597180
-597361
-597438
-597635
-597748
-597918
-598068
-598214
-598304
-598396
-598592
-598815
-598981
-599120
-599210
-599346
-599513
-599707
-599907
-600071
-600129
-600359
-600460
-600676
-600849
-600997
-601123
-601272
-601495
-601675
-601876
-602007
-602195
-602409
-602439
-602724
-602850
-602983
-603207
-603400
-603523
-603703
-603906
-604032
-604249
-604361
-604547
-604612
-604804
-605047
-605179
-605322
-605469
-605628
-605746
-605909
-606078
-606256
-606395
-606523
-606740
-606944
-607094
-607242
-607453
-607649
-607785
-607974
-608201
-608405
-608561
-608750
-608905
-609074
-609208
-609347
-609584
-609712
-609854
-610059
-610263
-610447
-610590
-610772
-610878
-611046
-611139
-611293
-611471
-611606
-611717
-611912
-612070
-612165
-612247
-612462
-612587
-612632
-612801
-612869
-613114
-613240
-613272
-613407
-613503
-613627
-613712
-613938
-614071
-614145
-614295
-614392
-614517
-614660
-614831
-614920
-614936
-615110
-615258
-615338
-615505
-615565
-615666
-615858
-615935
-616116
-616186
-616378
-616427
-616628
-616778
-616868
-617077
-617104
-617203
-617365
-617520
-617707
-617896
-617965
-618076
-618215
-618295
-618515
-618698
-618824
-618968
-619139
-619215
-619391
-619557
-619742
-619841
-619998
-620150
-620276
-620354
-620524
-620661
-620901
-621049
-621072
-621209
-621351
-621462
-621438
-621577
-621612
-621559
-621516
-621468
-621404
-621220
-621096
-620862
-620576
-620206
-619903
-619497
-618997
-618554
-618043
-617469
-616889
-616182
-615508
-614720
-613959
-613109
-612315
-611428
-610522
-609679
-608817
-607934
-606941
-605988
-605169
-604296
-603423
-602642
-601805
-600953
-600137
-599277
-598511
-597778
-597034
-596406
-595773
-595066
-594431
-593828
-593132
-592522
-591977
-591438
-590876
-590440
-589950
-589453
-588967
-588533
-588108
-587688
-587266
-586779
-586461
-586058
-585625
-585289
-584910
-584601
-584325
-584015
-583689
-583398
-583141
-582985
-582777
-582497
-582295
-582025
-581929
-581751
-581594
-581487
-581411
-581290
-581234
-581105
-580972
-580938
-580827
-580815
-580846
-580796
-580746
-580728
-580701
-580685
-580701
-580661
-580676
-580606
-580689
-580713
-580753
-580749
-580845
-580884
-580987
-581101
-581176
-581219
-581430
-581518
-581522
-581687
-581853
-581843
-582021
-582236
-582297
-582514
-582630
-582782
-582887
-583059
-583208
-583386
-583703
-583828
-584012
-584316
-584431
-584621
-584784
-584996
-585165
-585360
-585585
-585783
-585934
-586047
-586208
-586447
-586734
-586888
-587011
-587291
-587469
-587640
-587713
-587917
-588022
-588170
-588336
-588468
-588663
-588830
-588930
-589209
-589238
-589419
-589515
-589673
-589749
-589795
-589870
-589965
-590076
-590165
-590140
-590257
-590222
-590332
-590465
-590562
-590580
-590654
-590620
-590653
-590730
-590807
-590746
-590720
-590757
-590758
-590812
-590912
-590959
-590928
-590994
-590923
-590980
-591000
-591028
-591045
-591079
-591014
-591114
-591116
-591128
-591102
-591142
-591177
-591210
-591209
-591288
-591367
-591359
-591325
-591377
-591511
-591552
-591559
-591600
-591636
-591727
-591746
-591727
-591872
-591876
-591902
-591972
-592009
-592121
-592128
-592165
-592317
-592427
-592454
-592643
-592711
-592708
-592717
-592859
-592953
-593042
-593121
-593256
-593338
-593461
-593540
-593652
-593745
-593834
-593954
-594142
-594137
-594312
-594356
-594608
-594724
-594778
-594955
-595079
-595143
-595247
-595471
-595597
-595655
-595822
-595948
-596139
-596195
-596380
-596568
-596665
-596872
-596938
-597078
-597176
-597339
-597481
-597668
-597841
-597940
-598054
-598237
-598452
-598599
-598779
-598906
-599089
-599255
-599422
-599559
-599729
-599870
-599985
-600137
-600259
-600443
-600693
-600833
-600932
-601088
-601149
-601458
-601585
-601778
-601879
-602075
-602245
-602403
-602540
-602810
-602855
-603015
-603261
-603417
-603561
-603766
-603963
-604134
-604314
-604413
-604569
-604720
-604942
-605072
-605218
-605454
-605607
-605814
-606015
-606194
-606462
-606665
-606802
-606964
-607069
-607263
-607563
-607623
-607826
-608015
-608179
-608370
-608542
-608734
-608812
-609017
-609131
-609298
-609440
-609596
-609769
-609875
-610002
-610224
-610369
-610489
-610689
-610861
-610977
-611091
-611330
-611462
-611597
-611658
-611868
-611977
-612134
-612274
-612461
-612547
-612627
-612752
-612950
-613019
-613072
-613196
-613360
-613445
-613565
-613599
-613730
-613944
-614026
-614194
-614255
-614374
-614535
-614717
-614759
-614933
-615053
-615108
-615294
-615399
-615616
-615623
-615697
-615848
-615997
-616185
-616316
-616400
-616584
-616665
-616799
-616940
-617088
-617213
-617378
-617518
-617599
-617811
-617922
-618017
-618148
-618230
-618357
-618638
-618715
-618930
-619021
-619087
-619318
-619442
-619537
-619724
-619806
-620015
-620121
-620223
-620328
-620526
-620659
-620731
-620867
-620960
-621013
-621178
-621183
-621271
-621270
-621245
-621177
-621018
-620803
-620694
-620426
-620108
-619880
-619578
-619212
-618741
-618155
-617677
-617037
-616424
-615856
-615148
-614418
-613655
-612853
-612028
-611149
-610226
-609345
-608451
-607606
-606630
-605684
-604878
-603938
-603083
-602173
-601331
-600486
-599630
-598889
-598091
-597296
-596636
-595939
-595310
-594573
-593924
-593299
-592621
-592048
-591490
-590902
-590469
-589824
-589330
-588793
-588321
-587798
-587292
-586830
-586544
-586166
-585760
-585382
-585007
-584676
-584235
-583951
-583693
-583299
-583038
-582708
-582404
-582288
-582047
-581829
-581593
-581401
-581220
-581029
-580904
-580698
-580561
-580437
-580320
-580183
-580109
-580010
-579829
-579817
-579736
-579743
-579704
-579693
-579688
-579713
-579606
-579558
-579635
-579562
-579609
-579659
-579691
-579688
-579801
-579918
-579996
-580120
-580234
-580276
-580458
-580501
-580614
-580656
-580785
-580951
-581053
-581271
-581414
-581630
-581838
-581935
-582099
-582300
-582490
-582642
-582899
-583068
-583224
-583480
-583678
-583852
-584004
-584206
-584432
-584710
-584875
-585022
-585144
-585394
-585568
-585727
-585873
-586053
-586211
-586388
-586378
-586652
-586855
-586998
-587130
-587265
-587419
-587488
-587691
-587833
-587890
-588047
-588173
-588231
-588344
-588411
-588514
-588609
-588782
-588932
-588953
-589006
-589103
-589104
-589182
-589203
-589250
-589349
-589369
-589407
-589506
-589437
-589561
-589649
-589717
-589720
-589769
-590286
-589913
-589783
-589827
-589740
-589743
-589821
-589735
-589851
-589820
-589854
-589788
-589787
-589794
-589840
-589880
-589909
-589863
-589988
-590027
-590015
-590042
-590076
-590135
-590121
-590178
-590309
-590302
-590424
-590433
-590496
-590483
-590547
-590567
-590738
-590757
-590769
-590849
-591024
-591067
-591155
-591181
-591233
-591350
-591348
-591296
-591508
-591647
-591830
-591822
-591970
-592063
-592078
-592282
-592292
-592332
-592428
-592542
-592639
-592703
-592839
-592904
-593120
-593251
-593344
-593437
-593537
-593594
-593759
-593849
-593981
-594118
-594274
-594404
-594500
-594484
-594726
-594795
-594981
-595215
-595407
-595486
-595611
-595853
-595944
-596044
-596317
-596495
-596594
-596707
-596907
-597066
-597233
-597366
-597524
-598125
-598043
-598125
-598197
-598374
-598552
-598664
-598775
-599151
-599192
-599264
-599431
-599630
-599710
-599898
-599961
-600114
-600254
-600425
-600660
-600757
-600965
-601022
-601279
-601457
-601646
-601781
-601903
-602025
-602160
-602389
-602547
-602721
-602876
-603050
-603253
-603406
-603558
-603783
-603937
-604660
-604492
-604579
-604602
-604633
-604980
-605183
-605327
-605494
-605720
-605739
-605887
-606057
-606345
-606556
-606710
-606819
-606871
-607117
-607283
-607380
-607654
-607868
-607944
-608067
-608206
-608439
-608572
-608717
-608893
-609109
-609230
-609227
-609446
-609638
-609618
-609895
-610091
-610216
-610377
-610540
-610578
-610727
-610930
-610964
-611156
-611150
-611355
-611481
-611544
-611644
-611697
-611868
-612074
-612102
-612216
-612346
-612522
-612548
-612685
-612847
-612973
-613140
-613301
-613437
-613520
-613652
-613895
-613953
-614076
-614215
-614323
-614472
-614716
-614806
-614962
-615035
-615249
-615361
-615486
-615629
-615770
-615901
-616073
-616197
-616337
-616460
-616486
-616615
-616735
-616816
-617026
-617074
-617209
-617389
-617403
-617586
-617652
-617762
-617957
-617959
-618092
-618330
-618437
-618529
-618776
-618836
-618989
-619058
-619148
-619221
-619427
-619902
-619749
-619733
-619785
-619835
-619893
-619843
-619758
-619778
-619652
-619456
-619309
-619023
-618641
-618499
-618142
-617761
-617195
-616798
-616270
-615764
-615100
-614421
-613725
-613014
-612349
-611494
-610774
-609964
-609049
-607974
-607160
-606356
-605477
-604504
-603594
-602694
-601879
-600983
-600063
-599210
-598400
-597570
-596765
-596030
-595289
-594578
-593862
-593110
-592498
-591858
-591196
-590535
-589919
-589117
-588778
-588278
-587811
-587291
-586633
-586264
-585789
-585371
-584929
-584473
-583981
-583740
-583409
-583163
-582810
-582535
-582114
-581892
-581651
-581346
-581201
-580981
-580677
-580424
-580233
-580053
-579938
-579708
-579607
-579278
-579154
-579037
-578969
-578787
-579149
-578828
-578609
-578483
-578376
-578293
-578277
-578197
-578070
-578049
-578041
-577986
-577954
-578002
-578001
-578060
-578019
-578026
-578033
-578121
-578197
-578250
-578377
-578489
-578525
-578715
-578846
-578894
-579038
-579233
-579311
-579457
-579593
-579750
-579969
-580086
-580278
-580451
-580651
-580778
-581019
-581069
-581385
-581691
-581766
-581923
-582133
-582339
-582451
-582723
-582936
-583145
-583427
-583627
-583740
-583867
-584021
-584285
-584307
-584514
-584681
-584871
-584910
-585117
-585290
-585414
-585598
-585616
-585844
-586007
-586089
-586263
-586357
-586567
-586559
-586694
-586884
-587021
-587033
-587098
-587193
-587268
-587305
-587444
-587414
-587540
-587488
-587582
-587604
-587636
-587721
-587807
-587838
-587857
-587912
-588008
-587963
-588021
-588079
-588136
-588008
-588087
-588169
-588235
-588227
-588209
-588252
-588205
-588276
-588345
-588336
-588380
-588438
-588402
-588412
-588516
-588495
-588493
-588522
-588497
-588452
-588562
-588548
-588602
-588631
-588671
-588725
-588772
-588915
-588912
-588882
-588897
-589045
-589119
-589104
-589156
-589279
-589217
-589288
-589308
-589492
-589528
-589390
-589633
-589659
-589775
-589913
-590022
-590028
-589979
-590183
-590299
-590435
-590572
-590761
-590820
-591008
-591083
-591169
-591328
-591438
-591608
-591757
-591839
-591929
-592080
-592160
-592415
-592419
-592669
-592860
-593229
-593076
-593157
-593293
-593411
-593477
-593716
-593788
-593877
-593966
-594085
-594330
-594430
-594636
-594768
-594874
-594971
-595092
-595252
-595410
-595524
-595711
-595833
-595956
-596118
-596335
-596448
-596620
-596743
-596944
-597110
-597234
-597382
-597500
-597665
-597824
-597923
-598032
-598334
-598503
-598632
-598882
-598968
-599125
-599274
-599467
-599614
-599808
-600027
-600201
-600405
-600556
-600732
-601266
-601292
-601239
-601430
-601621
-601792
-601873
-602132
-602261
-602366
-602567
-602738
-602893
-603013
-603768
-603500
-603562
-603717
-603829
-604009
-604194
-604359
-604548
-604702
-604850
-605029
-605236
-605377
-605573
-605663
-605844
-606052
-606151
-606281
-606534
-606607
-606787
-607001
-607101
-607255
-607405
-607481
-607677
-607647
-607932
-608030
-608303
-608422
-608556
-608657
-608752
-608965
-609115
-609184
-609326
-609396
-609521
-609787
-609830
-609914
-610029
-610257
-610285
-610361
-610493
-610609
-610885
-610947
-611154
-611259
-611269
-611415
-611542
-611674
-611853
-611905
-612083
-612216
-612332
-612427
-613084
-612820
-612963
-613042
-613055
-613170
-613304
-613483
-613580
-613733
-613814
-613966
-614099
-614164
-614250
-614397
-614617
-614757
-614800
-614885
-615106
-615292
-615383
-615440
-615628
-615778
-615969
-616300
-616221
-616238
-616373
-616563
-616612
-616780
-616869
-617035
-617142
-617271
-617409
-617584
-617706
-617793
-617907
-618024
-618162
-618183
-618297
-618301
-618398
-618308
-618311
-618243
-618182
-617919
-617730
-617450
-617103
-616724
-616416
-616011
-615518
-614997
-614364
-613775
-613084
-612427
-611814
-610995
-610215
-609377
-608517
-607678
-606763
-605868
-604983
-604070
-603096
-602205
-601291
-600345
-599555
-598692
-597755
-597040
-596225
-595301
-594629
-593904
-593034
-592466
-591781
-591105
-590457
-589785
-589202
-588561
-588012
-587486
-586903
-586357
-585879
-585162
-584738
-584315
-583943
-583432
-582924
-582601
-582212
-581809
-581448
-581035
-580666
-580447
-580136
-579791
-579528
-579372
-579004
-578638
-578432
-578236
-578061
-577773
-577623
-577452
-577255
-577072
-576988
-576936
-576706
-576639
-576589
-576459
-576390
-576279
-576280
-576526
-576263
-576167
-576135
-576056
-576075
-576043
-575974
-575988
-576055
-576100
-576159
-576111
-576138
-576181
-576149
-576273
-576406
-576382
-576461
-576551
-576617
-576827
-576877
-576954
-577119
-577337
-577449
-577551
-577708
-577931
-578048
-578233
-578345
-578517
-578746
-578728
-579120
-579345
-579596
-579736
-579955
-580153
-580354
-580485
-580745
-580870
-581078
-581287
-581563
-581702
-581865
-582039
-582235
-582419
-582621
-582719
-582927
-583104
-583293
-583450
-583563
-583694
-583805
-583950
-584062
-584136
-584280
-584404
-584460
-584648
-584668
-584719
-584807
-584905
-584998
-585014
-585107
-585110
-585143
-585266
-585273
-585322
-585348
-585289
-585421
-585433
-585514
-585494
-585605
-585625
-585672
-585648
-585716
-585755
-585766
-585716
-585764
-585741
-585719
-585849
-585798
-585880
-585923
-585924
-585930
-585897
-585939
-585954
-586001
-586035
-586084
-586117
-586109
-586186
-586167
-586179
-586242
-586328
-586298
-586297
-586339
-586497
-586516
-586577
-586520
-586672
-586637
-586760
-586781
-586754
-586819
-586934
-586970
-587029
-587129
-587186
-587194
-587292
-587336
-587478
-587573
-587602
-587692
-587740
-587835
-587951
-588069
-588095
-588226
-588371
-588479
-588571
-588631
-588824
-588870
-588990
-589117
-589260
-589336
-589458
-589586
-589695
-589810
-589965
-590090
-590247
-590279
-590386
-590606
-590757
-590969
-591016
-591189
-591305
-591481
-591612
-591772
-591978
-592158
-592261
-592318
-592459
-592523
-592768
-592866
-593055
-593255
-593369
-593561
-593702
-593845
-593925
-594092
-594272
-594458
-594589
-594802
-594915
-595029
-595188
-595373
-595519
-595705
-595934
-596086
-596218
-596385
-596559
-596754
-596877
-597020
-597132
-597283
-597443
-597723
-597931
-598060
-598231
-598365
-598499
-598638
-598837
-598890
-599022
-599271
-599316
-599549
-599752
-599840
-599980
-600233
-600374
-600562
-600688
-600890
-600952
-601197
-601302
-601478
-601712
-601897
-602042
-602154
-602317
-602552
-602757
-602727
-602952
-603186
-603341
-603470
-603678
-603849
-603844
-604003
-604193
-604323
-604482
-604657
-604812
-604931
-605024
-605194
-605330
-605350
-605552
-605757
-605911
-606033
-606216
-606317
-606555
-606652
-606755
-606945
-606987
-607166
-607105
-607348
-608045
-607839
-607788
-607955
-608153
-608322
-608393
-608460
-608556
-608656
-608765
-608936
-609015
-609600
-609415
-609477
-609495
-609610
-609622
-609751
-609867
-609997
-610094
-610168
-610284
-610336
-610464
-610588
-610691
-610770
-610876
-611000
-611165
-611255
-611318
-611421
-611544
-611697
-611829
-611973
-612104
-612280
-612422
-612521
-612723
-612787
-613036
-612951
-613233
-613736
-613614
-613640
-613802
-613932
-614052
-614151
-614303
-614421
-614546
-614802
-614939
-615008
-615128
-615143
-615376
-615488
-615602
-615651
-615692
-615728
-615676
-615611
-615550
-615319
-615167
-614901
-614748
-614446
-614098
-613695
-613315
-612835
-612336
-611710
-611138
-610446
-609763
-609059
-608431
-607619
-606866
-605971
-605090
-604162
-603176
-602348
-601413
-600482
-599628
-598712
-597763
-596936
-596071
-595209
-594265
-593530
-592714
-591936
-591122
-590466
-589743
-588999
-588325
-587688
-587019
-586354
-585767
-585177
-584575
-583979
-583495
-582989
-582453
-581982
-581401
-580984
-580490
-580025
-579652
-579286
-578807
-578477
-578061
-577728
-577433
-577076
-576833
-576468
-576208
-575979
-575741
-575513
-575332
-575080
-574929
-574685
-574523
-574374
-574174
-574133
-574011
-573839
-573636
-573570
-573404
-573427
-573344
-573239
-573172
-573096
-573062
-573042
-573014
-572990
-572796
-572922
-572818
-572828
-572891
-572948
-572977
-572983
-572982
-573107
-573133
-573175
-573293
-573337
-573400
-573364
-573612
-573753
-573889
-573992
-574069
-574227
-574398
-574541
-574731
-574846
-575063
-575240
-575467
-575590
-575775
-575903
-576129
-576270
-576445
-576648
-576831
-577011
-577226
-577968
-578284
-578502
-578638
-578858
-579122
-579353
-579511
-579659
-579827
-579976
-580156
-580315
-580407
-580374
-580631
-580748
-580878
-581009
-580961
-581114
-581249
-581346
-581440
-581367
-581567
-582065
-581870
-581840
-581907
-581954
-582033
-581971
-582071
-582061
-582140
-582233
-582180
-582628
-582464
-582337
-582355
-582429
-582434
-582332
-582344
-582312
-582304
-582375
-582391
-582390
-582449
-582390
-582437
-582500
-582501
-582458
-582482
-582448
-582465
-582601
-582658
-582614
-582618
-582709
-582814
-582830
-582791
-582872
-582831
-582938
-583025
-583064
-583082
-583146
-583202
-583284
-583371
-583466
-583549
-583510
-583647
-583677
-583848
-583787
-583830
-583996
-584060
-584076
-584134
-584231
-584437
-584393
-584475
-584651
-584637
-584695
-584811
-584950
-585084
-585097
-585207
-585320
-585397
-585533
-585637
-585804
-585843
-585930
-586120
-586284
-586404
-586504
-586654
-586637
-586813
-586857
-587039
-587154
-587336
-587457
-587610
-587741
-587909
-588005
-588164
-588332
-588548
-588668
-588895
-588958
-589122
-589213
-589421
-589544
-589695
-589834
-590055
-590133
-590370
-590574
-590789
-590893
-591021
-591134
-591413
-591505
-591704
-591921
-592177
-592234
-592365
-592603
-592717
-592787
-592949
-593133
-593480
-593632
-593691
-593815
-594079
-594157
-594428
-594501
-594692
-594888
-594898
-595103
-595291
-595438
-595614
-595714
-596342
-596437
-596681
-596746
-596887
-597071
-597265
-597329
-597555
-597751
-597888
-598042
-598221
-598375
-598464
-598599
-598849
-599006
-599136
-599261
-599374
-599542
-599801
-599821
-600042
-600204
-600276
-600419
-600569
-600730
-600924
-601014
-601157
-601313
-601380
-601607
-601701
-601772
-601966
-602155
-602242
-602412
-602454
-602521
-602751
-602918
-603127
-603241
-603261
-603296
-603491
-603597
-603675
-603790
-603933
-603978
-604072
-604261
-604361
-604373
-604569
-604609
-604680
-604802
-604960
-605083
-605127
-605197
-605260
-605418
-605490
-605610
-605782
-605895
-605999
-606123
-606199
-606357
-606461
-606618
-606762
-606823
-606938
-607166
-607272
-607443
-607498
-607676
-607768
-607915
-608025
-608160
-608422
-608423
-608470
-608612
-608809
-608885
-608970
-609161
-609269
-609373
-609419
-609558
-609754
-609835
-609905
-610039
-610132
-610267
-610360
-610514
-610625
-610735
-610908
-611050
-611188
-611189
-611325
-611316
-611387
-611502
-611479
-611391
-611360
-611273
-611166
-611082
-610933
-610692
-610487
-610144
-609813
-609397
-608969
-608893
-607998
-607357
-606745
-606120
-605386
-604633
-603904
-603031
-602191
-601438
-600557
-599721
-598780
-597941
-597051
-596173
-595243
-594288
-593343
-592480
-591765
-590826
-590073
-589304
-588486
-587687
-587092
-586245
-585612
-584946
-584291
-583695
-583044
-582488
-581897
-581312
-580716
-580160
-579538
-579198
-578693
-578286
-577766
-577460
-576805
-576585
-576173
-575831
-575477
-575099
-574810
-574372
-574088
-573824
-573557
-573183
-573051
-572777
-572601
-572457
-572183
-571972
-571756
-571619
-571486
-571697
-571230
-571087
-571051
-570852
-570693
-570649
-570531
-570463
-570311
-570209
-570266
-570179
-570098
-570173
-570184
-570070
-570093
-570094
-570081
-570098
-570134
-570195
-570186
-570246
-570348
-570462
-570456
-570514
-570596
-570738
-570882
-570970
-571095
-571297
-571350
-571513
-571714
-571813
-571992
-572148
-572380
-572560
-572693
-572901
-573063
-573381
-573483
-573624
-573809
-574025
-574308
-574452
-574726
-574875
-575072
-575226
-575471
-575703
-575825
-576039
-576256
-576429
-576621
-576795
-576924
-577058
-577201
-577444
-577544
-577660
-577865
-577960
-578140
-578182
-578401
-578534
-578545
-578603
-578695
-578836
-578860
-578981
-578960
-579126
-579109
-579158
-579223
-579275
-579400
-579418
-579481
-579500
-579565
-579605
-579659
-579717
-580103
-579801
-579771
-579713
-579688
-579739
-579735
-579683
-579784
-579800
-579729
-579749
-579755
-579794
-579775
-579777
-579738
-579746
-579760
-579810
-579834
-579792
-579811
-579838
-579881
-579814
-579848
-579900
-579925
-579911
-579980
-579935
-580001
-580114
-580059
-580117
-580236
-580173
-580213
-580296
-580352
-580354
-580444
-580485
-580573
-580578
-580697
-580865
-580888
-580935
-580964
-581065
-581146
-581241
-581276
-581357
-581402
-581588
-581614
-581757
-581840
-581875
-581938
-581970
-582051
-582185
-582269
-582389
-582425
-582582
-582754
-582800
-582912
-583010
-583054
-583190
-583278
-583389
-583549
-583680
-583801
-583884
-584044
-584171
-584408
-584456
-584573
-584668
-584865
-584981
-585138
-585234
-585387
-585497
-585706
-585773
-585961
-586074
-586170
-586377
-586481
-586577
-586698
-586844
-587029
-587082
-587283
-587462
-587542
-587721
-587888
-587968
-588093
-588122
-588288
-588512
-588758
-588864
-588985
-589060
-589170
-589425
-589477
-589675
-589922
-590130
-590159
-590304
-590474
-590636
-590879
-591004
-591083
-591315
-591363
-591482
-591656
-591784
-592271
-592211
-592358
-592462
-592533
-592704
-592867
-593034
-593145
-593292
-593422
-593563
-593818
-593948
-594077
-594219
-594411
-594534
-594741
-594853
-595015
-595069
-595263
-595453
-595608
-595803
-595861
-596224
-596266
-596310
-596430
-596567
-596628
-596837
-596948
-597170
-597214
-597350
-597396
-597620
-597690
-597896
-597963
-598044
-598148
-598264
-598376
-598531
-598384
-598663
-598743
-598929
-599048
-599171
-599142
-599312
-599399
-599484
-599556
-599670
-599686
-599804
-599894
-600006
-600144
-600269
-600413
-600486
-600511
-600654
-600776
-600881
-600883
-601016
-601095
-601231
-601268
-601388
-601509
-601564
-601668
-601757
-601851
-601984
-602181
-602234
-602325
-602399
-602514
-602698
-602789
-602901
-603009
-603094
-603219
-603240
-603362
-604171
-604137
-604337
-604547
-604692
-604819
-604927
-605029
-605127
-605184
-605219
-605312
-605299
-605412
-605381
-605346
-605299
-605263
-605032
-604904
-604661
-604450
-604152
-603773
-603350
-602957
-602411
-601908
-601355
-600804
-600080
-599457
-598633
-597852
-597120
-596302
-595386
-594382
-593659
-592792
-591869
-590884
-590039
-589116
-588306
-587331
-586542
-585742
-584872
-584028
-583202
-582499
-581712
-580901
-580204
-579538
-578880
-578083
-577499
-576843
-576258
-575630
-575023
-574526
-573966
-573441
-572883
-572409
-571886
-571433
-571008
-570565
-570123
-569692
-569337
-568945
-568602
-568215
-567859
-567491
-567189
-566869
-566519
-566287
-565999
-565762
-565515
-565291
-565068
-564829
-564635
-564427
-564348
-564124
-563995
-563854
-563696
-563586
-563414
-563291
-563148
-562988
-562796
-562751
-562622
-562543
-562493
-562382
-562265
-562282
-562335
-562209
-562221
-562128
-562043
-562198
-562213
-562214
-562190
-562203
-562243
-562258
-562384
-562939
-562695
-562621
-562733
-562800
-562871
-562980
-563123
-563235
-563213
-563451
-563648
-563793
-564012
-564152
-564393
-564467
-564649
-564942
-565083
-565288
-565498
-565557
-565768
-566007
-566187
-566339
-566486
-566650
-566765
-566918
-567138
-567351
-567461
-567596
-567825
-568022
-568157
-568278
-568463
-568595
-568747
-568857
-569071
-569133
-569268
-569364
-569572
-569624
-569730
-569813
-569944
-570080
-570209
-570187
-570208
-570332
-570345
-570438
-570477
-570455
-570579
-570653
-570628
-570678
-570618
-570621
-570663
-570650
-570746
-570641
-570713
-570707
-570709
-570660
-570714
-570686
-570656
-570635
-570592
-570625
-570623
-570632
-570641
-570720
-570663
-570691
-570696
-570689
-570696
-570702
-570676
-570694
-570596
-570700
-570712
-570829
-570869
-570897
-570972
-570940
-570987
-571031
-571152
-571157
-571250
-571288
-571293
-571288
-571421
-571527
-571504
-571585
-571708
-571790
-571866
-571792
-571955
-571988
-572075
-572220
-572178
-572399
-572487
-572517
-572423
-572643
-572830
-572888
-573011
-573056
-573167
-573282
-573378
-573563
-573611
-573757
-573904
-574051
-574757
-574472
-574477
-574508
-574674
-574812
-574972
-574995
-575100
-575221
-575447
-575557
-575697
-575765
-576335
-576173
-576238
-576414
-576544
-576722
-576674
-576805
-576973
-577173
-577307
-577460
-577499
-577707
-577829
-577951
-578132
-578355
-578438
-578577
-578775
-578952
-579113
-579224
-579291
-579473
-579632
-579804
-579995
-580115
-580310
-580495
-580588
-580730
-580890
-581069
-581245
-581485
-581571
-581707
-581871
-582036
-582141
-582386
-582459
-582687
-582744
-582972
-583064
-583167
-583387
-583538
-583744
-583881
-584076
-584187
-584460
-584598
-584770
-584872
-585048
-585250
-585364
-585460
-585461
-585785
-585918
-586161
-586340
-586534
-586703
-586809
-586984
-587130
-587118
-587416
-587601
-587804
-587830
-587998
-588174
-588293
-588447
-588603
-588725
-588905
-588988
-589113
-589203
-589340
-589434
-589588
-589727
-589805
-590040
-590083
-590089
-590267
-590440
-590589
-590687
-590816
-590857
-590986
-591109
-591201
-591312
-591494
-591570
-591755
-591789
-591883
-591864
-592049
-592245
-592341
-592484
-592625
-592701
-592880
-593016
-593032
-593198
-593309
-593513
-593564
-593689
-593836
-593994
-594105
-594198
-594407
-594508
-594568
-594786
-594885
-594950
-595117
-595196
-595422
-595557
-595634
-595745
-595912
-595964
-596092
-596140
-596209
-596451
-596524
-596547
-596739
-596837
-596968
-597020
-597138
-597143
-597360
-597542
-597628
-597750
-597861
-598002
-598118
-598252
-598418
-598472
-598542
-598614
-598565
-598611
-598464
-598546
-598437
-598277
-598112
-597873
-597558
-597242
-596908
-596574
-596110
-595506
-594956
-594327
-593698
-593110
-592413
-591515
-590664
-589891
-588963
-588001
-587207
-586178
-585321
-584490
-583577
-582590
-581687
-580821
-579964
-579180
-578294
-577478
-576632
-575844
-575125
-574444
-573698
-572997
-572271
-571588
-570967
-570194
-569705
-569003
-568404
-567851
-567193
-566728
-566164
-565687
-565214
-564703
-564123
-563628
-563187
-562790
-562350
-562033
-561523
-561194
-560883
-560480
-560190
-559850
-559555
-559253
-558951
-558692
-558495
-558137
-557886
-557774
-557440
-557280
-557079
-557015
-556751
-556643
-556430
-556351
-556193
-556081
-555966
-555814
-555719
-555658
-555507
-555396
-555264
-555205
-555094
-555062
-554953
-554929
-554945
-554923
-554754
-554818
-554880
-554934
-555011
-554976
-555027
-555117
-555040
-555222
-555396
-555499
-555555
-555664
-555748
-555892
-555996
-556115
-556214
-556397
-556506
-556821
-556972
-557079
-557241
-557443
-557576
-557702
-557970
-558256
-558363
-558516
-558664
-558801
-559092
-559248
-559357
-559605
-559788
-559862
-560076
-560225
-560487
-560629
-560707
-560865
-560846
-561131
-561334
-561532
-561646
-561762
-561924
-561987
-562189
-562365
-562473
-562607
-563039
-563128
-563243
-563378
-563299
-563386
-563559
-563645
-563748
-563787
-563819
-563811
-563836
-563957
-563961
-563903
-564032
-564050
-564139
-564118
-564220
-564198
-564192
-564277
-564207
-564304
-564276
-564377
-564374
-564402
-564360
-564401
-564413
-564433
-564471
-564453
-564445
-564515
-564492
-564453
-564501
-564621
-564564
-564606
-564653
-564757
-564758
-564778
-564825
-564869
-564884
-565003
-565111
-564994
-565072
-565182
-565322
-565346
-565372
-565408
-565392
-565354
-565512
-565698
-565790
-565818
-565935
-566075
-566101
-566190
-566283
-566466
-566575
-566641
-566779
-566899
-567023
-567084
-567210
-567312
-567452
-567505
-567591
-567757
-567884
-567929
-568113
-568215
-568386
-568485
-568599
-568645
-568796
-568892
-569125
-569198
-569321
-569490
-569605
-569757
-569864
-569989
-570169
-570258
-570411
-570578
-570736
-570830
-570956
-571146
-571375
-571489
-571685
-571846
-571984
-572195
-572319
-572434
-572631
-572732
-572972
-573136
-573315
-573382
-573593
-573697
-573916
-574056
-574144
-574314
-574409
-574651
-574768
-574956
-575065
-575242
-575345
-575532
-575787
-575884
-575925
-576161
-576242
-576422
-576593
-576652
-576803
-576965
-577221
-577316
-577558
-577744
-577789
-577983
-578252
-578355
-578581
-578721
-578938
-579071
-579224
-579469
-579482
-579594
-579831
-579993
-580113
-580312
-580579
-580708
-580831
-580979
-581207
-581277
-581402
-581611
-581740
-581857
-582054
-582217
-582485
-582571
-582698
-582892
-583049
-583095
-583222
-583390
-583551
-583657
-583798
-583865
-584004
-584151
-584308
-584469
-584546
-584710
-584717
-584818
-584927
-585093
-585221
-585384
-585470
-585607
-585691
-585642
-585826
-585963
-586108
-586182
-586299
-586383
-586518
-586633
-586741
-586934
-586992
-586904
-587157
-587289
-587440
-587619
-587711
-587811
-587883
-588065
-588139
-588288
-588425
-588504
-588532
-588802
-588902
-589026
-589118
-589106
-589365
-589464
-589648
-589780
-589842
-590053
-590200
-590352
-590426
-590526
-590671
-590828
-590985
-591301
-591244
-591281
-591443
-591685
-591751
-591894
-591991
-592046
-592276
-592403
-592457
-592547
-592843
-592924
-592983
-593106
-593212
-593254
-593363
-593629
-593544
-593609
-593633
-593530
-593576
-593520
-593404
-593284
-593070
-592900
-592615
-592338
-591985
-591616
-591182
-590718
-590195
-589692
-589050
-588363
-587701
-586952
-586183
-585384
-584622
-583787
-582937
-581820
-581022
-580133
-579252
-578429
-577491
-576695
-575716
-574820
-573990
-573184
-572352
-571534
-570607
-569896
-569225
-568498
-567757
-567065
-566360
-565746
-565092
-564400
-563824
-563212
-562680
-562061
-561500
-560891
-560447
-560030
-559527
-558993
-558570
-558141
-557778
-557477
-557150
-556716
-556383
-555814
-555634
-555398
-555098
-554858
-554545
-554331
-554100
-553788
-553544
-553373
-553135
-552972
-552770
-552609
-552481
-552345
-552233
-552131
-551997
-551865
-551785
-551677
-551600
-551474
-551382
-551415
-551307
-551228
-551230
-551184
-551110
-551052
-551092
-551106
-551139
-551067
-551047
-551097
-551078
-551199
-551155
-551225
-551260
-551378
-551481
-551514
-551640
-551671
-551810
-551930
-552153
-552318
-552447
-552549
-552784
-553132
-553192
-553290
-553505
-553678
-553862
-554049
-554199
-554446
-554570
-554762
-555337
-555274
-555406
-555527
-555681
-555853
-555988
-556179
-556393
-556544
-556717
-556871
-557065
-557197
-557397
-557600
-557790
-557864
-558022
-558207
-558332
-558472
-558540
-558728
-558815
-558901
-559020
-559038
-559240
-559334
-559414
-559499
-559595
-559601
-559632
-559831
-559859
-559869
-559953
-560034
-560025
-560097
-559999
-560180
-560282
-560213
-560313
-560284
-560337
-560379
-560380
-560504
-560512
-560527
-560578
-560425
-560490
-560528
-560507
-560488
-560567
-560596
-560602
-560607
-560588
-560608
-560671
-560653
-560732
-560670
-560737
-560747
-560711
-560707
-560761
-560852
-560914
-560940
-560981
-560995
-561024
-561130
-561190
-561275
-561281
-561443
-561475
-561580
-561712
-561717
-561753
-561954
-561941
-562040
-562058
-562168
-562227
-562352
-562483
-562522
-562561
-562676
-562724
-562815
-562875
-563002
-563193
-563196
-563366
-563452
-563583
-563610
-563694
-563861
-563949
-564093
-564236
-564296
-564489
-564611
-564764
-564979
-564990
-565812
-565997
-566214
-566264
-566459
-566665
-566851
-566877
-567025
-567209
-567283
-567398
-567641
-567798
-567946
-568118
-568206
-568279
-568513
-568549
-568801
-568993
-569071
-569180
-569388
-569509
-569635
-569793
-569982
-570127
-570273
-570349
-570499
-570675
-570861
-571068
-571205
-571351
-571472
-571576
-571761
-571906
-572023
-572192
-572431
-572533
-572668
-572812
-573055
-573122
-573315
-573496
-573643
-573891
-574016
-574178
-574341
-574499
-574669
-574805
-575015
-575189
-575340
-575486
-575634
-575821
-575966
-576061
-576200
-576360
-576480
-576600
-576743
-576869
-577003
-577222
-577288
-577427
-577639
-577800
-577965
-578109
-578265
-578415
-578562
-578705
-578863
-578978
-579115
-579260
-579358
-579555
-579726
-579862
-579940
-580116
-580053
-580378
-580514
-580703
-580784
-580902
-581073
-581151
-581351
-581407
-581481
-581648
-581680
-581852
-581987
-582073
-582093
-582280
-582292
-582406
-582594
-582688
-582692
-582744
-582938
-583429
-583186
-583231
-583226
-583364
-583419
-583574
-583732
-583845
-583941
-584050
-584091
-584189
-584346
-584421
-584576
-584788
-584906
-585046
-585187
-585129
-585405
-585559
-585733
-585890
-585936
-586081
-586029
-586301
-586511
-586585
-586706
-586787
-586986
-587149
-587271
-587418
-587519
-587632
-587813
-588396
-588286
-588235
-588401
-588560
-588652
-588805
-589020
-589071
-589250
-589353
-589453
-589537
-589750
-589843
-589941
-590015
-590009
-590022
-589918
-589874
-589848
-589677
-589587
-589301
-589147
-588824
-588464
-588000
-587647
-587117
-586634
-586098
-585473
-584818
-584074
-583203
-582479
-581689
-580932
-579994
-579130
-578270
-577415
-576508
-575586
-574712
-573830
-572861
-572074
-571215
-570385
-569558
-568715
-567889
-567129
-566307
-565615
-564917
-564198
-563449
-562885
-562178
-561565
-560923
-560336
-559754
-559204
-558641
-558097
-557647
-557128
-556687
-556204
-555714
-555270
-554842
-554404
-554064
-553697
-553257
-552851
-552588
-552315
-552024
-551640
-551365
-551165
-550851
-550676
-550480
-550324
-550049
-549916
-549726
-549608
-549409
-549219
-549142
-549094
-549033
-548835
-548759
-548679
-548585
-548531
-548446
-548372
-548373
-548306
-548286
-548293
-548170
-548233
-548129
-548116
-548136
-548176
-548142
-548117
-548276
-548322
-548364
-548419
-548445
-548511
-548576
-548656
-548766
-548847
-548840
-549047
-549134
-549361
-549488
-549607
-549793
-549948
-550158
-550439
-550648
-550784
-550976
-551139
-551311
-551863
-551890
-552036
-552174
-552320
-552564
-552818
-552992
-553215
-553456
-553695
-553902
-554074
-554271
-554436
-554616
-554793
-554981
-555152
-555279
-555498
-555650
-555851
-556011
-556108
-556313
-556421
-556571
-556651
-556803
-556881
-556949
-557024
-557115
-557249
-557252
-557392
-557469
-557506
-557649
-557710
-557764
-557707
-557790
-557867
-557797
-557879
-558018
-557935
-558006
-557973
-558049
-558001
-558018
-558063
-558128
-558173
-558189
-558171
-558152
-558050
-558225
-558187
-558124
-558236
-558308
-558334
-558374
-558359
-558409
-558393
-558408
-558456
-558482
-558614
-558621
-558648
-558708
-558711
-558692
-558822
-558844
-558848
-558897
-558917
-558944
-558933
-559009
-558999
-559061
-559183
-559226
-559313
-559372
-559435
-559553
-559583
-559740
-559837
-559890
-559935
-560066
-560124
-560175
-560320
-560465
-560543
-560633
-560733
-560839
-560940
-561141
-561199
-561193
-561282
-561458
-561564
-561748
-561806
-561900
-562007
-562090
-562306
-562362
-562505
-562712
-562748
-562929
-562943
-563106
-563226
-563438
-563467
-563693
-563853
-563991
-564113
-564243
-564446
-564541
-564746
-565147
-565149
-565183
-565366
-565481
-565607
-565766
-565858
-566097
-566226
-566387
-566483
-566646
-566810
-566932
-567129
-567248
-567400
-567603
-567791
-567960
-568128
-568324
-568435
-568582
-568732
-568905
-569063
-569138
-569368
-569526
-569635
-569834
-569987
-570046
-570282
-570335
-570486
-570626
-570833
-570967
-571199
-571310
-571488
-571681
-571813
-571900
-572094
-572193
-572359
-572522
-572694
-572857
-573038
-573198
-573286
-573449
-573598
-573769
-573952
-573940
-574230
-574406
-574446
-574639
-574727
-574959
-575117
-575207
-575415
-575535
-575740
-575834
-575902
-576099
-576247
-576338
-576507
-576641
-576729
-576849
-576925
-577078
-577247
-577426
-577575
-577587
-577695
-577656
-577928
-578091
-578204
-578310
-578437
-578474
-578525
-578636
-578685
-578905
-579011
-579042
-579167
-579286
-579422
-579524
-579559
-579675
-579790
-579838
-579895
-580052
-580033
-580107
-580286
-580359
-580508
-580629
-580634
-580727
-580800
-580971
-581058
-581133
-581214
-581400
-581331
-581520
-581655
-581730
-581809
-581906
-582013
-582179
-582346
-582442
-582530
-582621
-582790
-582858
-582975
-583218
-583272
-583440
-583497
-583643
-583837
-583899
-584062
-584176
-584325
-584477
-584548
-585134
-585324
-585439
-585593
-585684
-585807
-585960
-586028
-586083
-586223
-586279
-586364
-586409
-586224
-586158
-585997
-585807
-585571
-584625
-584007
-583674
-583245
-582738
-582165
-581514
-580884
-579292
-578565
-577784
-576881
-576068
-575089
-574257
-573408
-572473
-571567
-570686
-569815
-568894
-568006
-567193
-566498
-565685
-564815
-564091
-563383
-562620
-561744
-561113
-560561
-559825
-559253
-558655
-558091
-557454
-556942
-556320
-555745
-555256
-554721
-554231
-553750
-553293
-552819
-552486
-552366
-551780
-551273
-550910
-550553
-550271
-550027
-549524
-549400
-549110
-548926
-548701
-548399
-548236
-548041
-547947
-547735
-547588
-547493
-547280
-547229
-547044
-546946
-546842
-546752
-546653
-546543
-546539
-546455
-546337
-546324
-546206
-546223
-546230
-546168
-546159
-546112
-546105
-546046
-546170
-546202
-546213
-546167
-546175
-546257
-546265
-546390
-546464
-546561
-546618
-546736
-546753
-546811
-546928
-547135
-547266
-547442
-547565
-547737
-547950
-548359
-548366
-548458
-548645
-548866
-549102
-549250
-549457
-549681
-549911
-550141
-550302
-550498
-550624
-550830
-551063
-551362
-551477
-551710
-551900
-552062
-552307
-552454
-552701
-552784
-553037
-553211
-553371
-553474
-553563
-553741
-553891
-554026
-554090
-554232
-554400
-554423
-554593
-554709
-554768
-554833
-554928
-555019
-555088
-555166
-555235
-555372
-555403
-555386
-555514
-555548
-555659
-555591
-555667
-555744
-555777
-555807
-555774
-555890
-555864
-555865
-555850
-555882
-555935
-555939
-555903
-555854
-555937
-555977
-555998
-555920
-555925
-555935
-555876
-556058
-556035
-555834
-555958
-555981
-556096
-556119
-556078
-556083
-556103
-555916
-556092
-556160
-556189
-556262
-556272
-556245
-556288
-556405
-556479
-556482
-556548
-556589
-556626
-556705
-556792
-556855
-556896
-556940
-556963
-557035
-557108
-557160
-557254
-557285
-557451
-557444
-557514
-557727
-558077
-557987
-557984
-558071
-558157
-558319
-558350
-558506
-558559
-558737
-558653
-558876
-559058
-559122
-559329
-559430
-559583
-559682
-559790
-559926
-560045
-560157
-560198
-560429
-560566
-560680
-560835
-560891
-561062
-561240
-561316
-561361
-561540
-561710
-561847
-562041
-562102
-562299
-562443
-562552
-562648
-562779
-562920
-563021
-563155
-563280
-563473
-563622
-563753
-563924
-564121
-564227
-564331
-564463
-564600
-564735
-564884
-565069
-565221
-565324
-565480
-565612
-565739
-565846
-566000
-566189
-566399
-566512
-566676
-566780
-566946
-567111
-567248
-567392
-567554
-567724
-567904
-568072
-568084
-568230
-568456
-568610
-568701
-568846
-568980
-569167
-569308
-569389
-569536
-569675
-569833
-569987
-570094
-570174
-570223
-570446
-570600
-570665
-570902
-570996
-571118
-571253
-571305
-571446
-571611
-571653
-571827
-571964
-572134
-572328
-572379
-572560
-572596
-572757
-572848
-572966
-573086
-573152
-573218
-573380
-573474
-573666
-573658
-573816
-573951
-573990
-574061
-574149
-574214
-574274
-574347
-574496
-574497
-574666
-574750
-574824
-574876
-574983
-575031
-575165
-575282
-575350
-575439
-575455
-575579
-575714
-575794
-575799
-575929
-575974
-576127
-576197
-576240
-576350
-576456
-576436
-576614
-576749
-576829
-576925
-577002
-577191
-577248
-577281
-577453
-577527
-577610
-577766
-577842
-577964
-578079
-578152
-578266
-578457
-578594
-578611
-578694
-578819
-578931
-579062
-579208
-579374
-579487
-579528
-579657
-579760
-579844
-579960
-580094
-580117
-580227
-580242
-580310
-580306
-580236
-580252
-580187
-580067
-579845
-579687
-579445
-579176
-578938
-578514
-578232
-577813
-577282
-576641
-576036
-575378
-574857
-574097
-573361
-572563
-571766
-570984
-570071
-569141
-568215
-567346
-566449
-565515
-564721
-563758
-562837
-561957
-561170
-560336
-559476
-558654
-557859
-557063
-556340
-555567
-554907
-554176
-553492
-552879
-552109
-551588
-550946
-550336
-549663
-549115
-548585
-547989
-547485
-546966
-546429
-545984
-545582
-545219
-544670
-544268
-543861
-543501
-543131
-542796
-542462
-542106
-541825
-541482
-541202
-540894
-540737
-540427
-540221
-539964
-539785
-539541
-539329
-539153
-538979
-538755
-538596
-538409
-538297
-538109
-538022
-537950
-537818
-537694
-537641
-537564
-537464
-537357
-537337
-537264
-537198
-537196
-537105
-537166
-537104
-537048
-537131
-537057
-537128
-537170
-537106
-537214
-537261
-537309
-537407
-537408
-537479
-537508
-537578
-537691
-537796
-537846
-537938
-538079
-538272
-538452
-538667
-538813
-538801
-539064
-539238
-539390
-539572
-539701
-539933
-540107
-540353
-540541
-540765
-540956
-541060
-541296
-541495
-541661
-541937
-542107
-542286
-542536
-542508
-542781
-543044
-543203
-543381
-543551
-543801
-543921
-544052
-544226
-544399
-544559
-544727
-544853
-544940
-545119
-545260
-545345
-545466
-545567
-545591
-545709
-545843
-545873
-545938
-546014
-546586
-546351
-546296
-546256
-546353
-546398
-546457
-546386
-546504
-546453
-546533
-546587
-546571
-546585
-546634
-546618
-546644
-546628
-546689
-546736
-546724
-546720
-546705
-546770
-546812
-546819
-546795
-546824
-546830
-546970
-546967
-546961
-546934
-547038
-547113
-547137
-547146
-547224
-547298
-547240
-547358
-547488
-547496
-547629
-547614
-547697
-547779
-547781
-547878
-547943
-548055
-548035
-548122
-548225
-548256
-548397
-548447
-548520
-548698
-548733
-548842
-548818
-549011
-549021
-549076
-549312
-549320
-549350
-549435
-549559
-549720
-549817
-549886
-549965
-550081
-550263
-550422
-550550
-550662
-550709
-550839
-550960
-551105
-551252
-551327
-551508
-551608
-551777
-551968
-552057
-552205
-552331
-552474
-552592
-552799
-552996
-553049
-553159
-553340
-553555
-553585
-553795
-553939
-554071
-554179
-554355
-554519
-554704
-554793
-555005
-555163
-555269
-555446
-555572
-555726
-555873
-556095
-556188
-556383
-556562
-556665
-556846
-556949
-557150
-557300
-557477
-557596
-557683
-557877
-558087
-558252
-558423
-558497
-558628
-558841
-558984
-559167
-559305
-559521
-559594
-559625
-559809
-559866
-560188
-560373
-560577
-560749
-560967
-561050
-561259
-561479
-561604
-561748
-561897
-562086
-562249
-562434
-562611
-562680
-562902
-563063
-563151
-563288
-563477
-563708
-563834
-563934
-564054
-564155
-564295
-564418
-564587
-564708
-564842
-564981
-565116
-565233
-565368
-565544
-565599
-565797
-565908
-566006
-566079
-566129
-566289
-566444
-566520
-566625
-566732
-566875
-567018
-567133
-567274
-567311
-567462
-567573
-567658
-567828
-567950
-568048
-568174
-568331
-568420
-568498
-568594
-568695
-568888
-569053
-569205
-569229
-569352
-569450
-569550
-569542
-569728
-569899
-569983
-570146
-570256
-570356
-570362
-570618
-570546
-570784
-570901
-571030
-571157
-571284
-571437
-571547
-571655
-571781
-571902
-572091
-572231
-572318
-572352
-572490
-572632
-572734
-572852
-572999
-573170
-573255
-573346
-573470
-573608
-573682
-573757
-573822
-573970
-574035
-574095
-574139
-574094
-574141
-574102
-574056
-573905
-573736
-573540
-573361
-573011
-572742
-572347
-571935
-571503
-570968
-570413
-569733
-569162
-568403
-567663
-566925
-566041
-565187
-564461
-563483
-562540
-561623
-560715
-559738
-558820
-558056
-557117
-556196
-555259
-554388
-553522
-552702
-551896
-551124
-550348
-549581
-548786
-548049
-547194
-546568
-545864
-545246
-544726
-544090
-543511
-542909
-542400
-541851
-541266
-540774
-540342
-539824
-539364
-538881
-538438
-538073
-537584
-537137
-536841
-536410
-536115
-535862
-535526
-535221
-534930
-534636
-534310
-534113
-533824
-533994
-533487
-533296
-533089
-532857
-532742
-532585
-532384
-532204
-532121
-531963
-531852
-531759
-531585
-531374
-531387
-531380
-531297
-531235
-531177
-531075
-531080
-530967
-530935
-530873
-530944
-530863
-530876
-530814
-530839
-530808
-530862
-530939
-530958
-531006
-531072
-531174
-531146
-531199
-531254
-531377
-531433
-531638
-531766
-531853
-531977
-532096
-532236
-532509
-532636
-532902
-533040
-533192
-533398
-533661
-533905
-534115
-534323
-534455
-534678
-534896
-535157
-535280
-535617
-535760
-535959
-536201
-536418
-536590
-536822
-537001
-537304
-537327
-537629
-537795
-537983
-538106
-538362
-538408
-538614
-538693
-538880
-539038
-539169
-539280
-539320
-539415
-539573
-539684
-539762
-539901
-539876
-540038
-540079
-540125
-540213
-540242
-540380
-540483
-540513
-540650
-540582
-540663
-540720
-540756
-540694
-540781
-540823
-540892
-540975
-540956
-540989
-540998
-541034
-541086
-541107
-541052
-541110
-541154
-541145
-541171
-541246
-541295
-541311
-541347
-541909
-541543
-541454
-541758
-541694
-541616
-541731
-541791
-541846
-541827
-541888
-541926
-542022
-542331
-542218
-542207
-542326
-542454
-542489
-542544
-542588
-542642
-542772
-542857
-543008
-543123
-543160
-543301
-543384
-543477
-543543
-543690
-543760
-543870
-544043
-544023
-544249
-544307
-544337
-544462
-544577
-544642
-544752
-544868
-544983
-545070
-545211
-545310
-545472
-545525
-545647
-545788
-545923
-546143
-546134
-546361
-546515
-546639
-546821
-546896
-547089
-547221
-547444
-547519
-547632
-547771
-548005
-548212
-548358
-548476
-548603
-548786
-548990
-549110
-549218
-549473
-549587
-549749
-549848
-550155
-550324
-550391
-550555
-550763
-550938
-551143
-551334
-551466
-551597
-551681
-551901
-552070
-552194
-552398
-552629
-552682
-552842
-552863
-553185
-553367
-553490
-553545
-553783
-553869
-554089
-554219
-554309
-554527
-554561
-554704
-554958
-555319
-555186
-555275
-555455
-555603
-555820
-555862
-556051
-556231
-556397
-556554
-556746
-556935
-557100
-557256
-557423
-557554
-557661
-557850
-557985
-558094
-558344
-558489
-558628
-558736
-558972
-559128
-559304
-559460
-559579
-559673
-559821
-560825
-560995
-561076
-561213
-561322
-561412
-561553
-561724
-561874
-561876
-562101
-562142
-562281
-562369
-562412
-562521
-562575
-562699
-562826
-562879
-562992
-563022
-563221
-563271
-563380
-563540
-563550
-563630
-563808
-563841
-563926
-564059
-564220
-564380
-564472
-564592
-564677
-564875
-564917
-565118
-565256
-565374
-565545
-565609
-565710
-565863
-566014
-566077
-566226
-566334
-566425
-566557
-566613
-566879
-567043
-567042
-567146
-567359
-567397
-567503
-567761
-567826
-568034
-568057
-568193
-568295
-568451
-568608
-568722
-568909
-569195
-569214
-569246
-569355
-569463
-569557
-569614
-569723
-569808
-569778
-569843
-569881
-569857
-569760
-569659
-569592
-569404
-569195
-568971
-568604
-568315
-567889
-567377
-566891
-566412
-565748
-565173
-564377
-563722
-562928
-562066
-561262
-560484
-559602
-558617
-557725
-556813
-555876
-555005
-554082
-553280
-552314
-551400
-550583
-549707
-548925
-548060
-547253
-546539
-545694
-544981
-544279
-543584
-542906
-542259
-541543
-540956
-540347
-539726
-539245
-538664
-538135
-537599
-537051
-536556
-536074
-535670
-535323
-534855
-534382
-533991
-533652
-533191
-532924
-532576
-532134
-531873
-531577
-531319
-531032
-530809
-530569
-530341
-530098
-529812
-529696
-529428
-529293
-529099
-528981
-528786
-528668
-528577
-528525
-528480
-528326
-528257
-528124
-528123
-528014
-528070
-527958
-527991
-528001
-527978
-527962
-527959
-527841
-527824
-527932
-527964
-527968
-527971
-527978
-527973
-528028
-528072
-528122
-528166
-528293
-528367
-528491
-528542
-528617
-528796
-528766
-528978
-529219
-529298
-529467
-529453
-529776
-530027
-530240
-530416
-530614
-530883
-531044
-531275
-531526
-531727
-531948
-532265
-532505
-532594
-532922
-533130
-533343
-533563
-534060
-534064
-534214
-534437
-534561
-534807
-535097
-535243
-535382
-535576
-535751
-535855
-536013
-536172
-536344
-536497
-536647
-536731
-536889
-536992
-537154
-537206
-537308
-537423
-537489
-537651
-537661
-537768
-537820
-537977
-538028
-538022
-538126
-538148
-538232
-538251
-538333
-538443
-538527
-538606
-538547
-538548
-538631
-538649
-538699
-538707
-538658
-538729
-538738
-538892
-538897
-538933
-538981
-538920
-538925
-538917
-539006
-539060
-539098
-539132
-539206
-539185
-539179
-539257
-539336
-539418
-539509
-539557
-539613
-539672
-539698
-539767
-539841
-539905
-539946
-540026
-540073
-540213
-540221
-540365
-540404
-540440
-540632
-540643
-540691
-540802
-540858
-540961
-541141
-541125
-541195
-541320
-541405
-541509
-541568
-541651
-541737
-541871
-541983
-542085
-542215
-542355
-542468
-542549
-542699
-542779
-542953
-543056
-543152
-543347
-543499
-543641
-543755
-543906
-544075
-544277
-544393
-544545
-544727
-544932
-544986
-545092
-545149
-545456
-545642
-545831
-545951
-546116
-546369
-546509
-546704
-546737
-546983
-547166
-547308
-547552
-547643
-547804
-548032
-548150
-548241
-548436
-548638
-548809
-548730
-549037
-549195
-549407
-549528
-549710
-549859
-550012
-550174
-550324
-550524
-550651
-550799
-550892
-551104
-551328
-551723
-551662
-551777
-551977
-552085
-552334
-552433
-552578
-552814
-553046
-553143
-553320
-553476
-553669
-553844
-553977
-554031
-554229
-554413
-554619
-554685
-554928
-555057
-555148
-555361
-555482
-555706
-555856
-556089
-556228
-556357
-556452
-556685
-556849
-557036
-557224
-557390
-557531
-557659
-557828
-558006
-558114
-558185
-558405
-558571
-558775
-558821
-558943
-559107
-559242
-559467
-559510
-559657
-559774
-559867
-559931
-560052
-560507
-560283
-560300
-560453
-560527
-560607
-560692
-560819
-561005
-561045
-561176
-561290
-561370
-561414
-561482
-561632
-561720
-561848
-561968
-562039
-562159
-562273
-562397
-562442
-562565
-562679
-562759
-562927
-563030
-563070
-563162
-563274
-563263
-563554
-563765
-563853
-564002
-564109
-564160
-564271
-564412
-564593
-564705
-564847
-564960
-565101
-565282
-565367
-565465
-565578
-565786
-565887
-566018
-566171
-566277
-566397
-566520
-566721
-566767
-566894
-566975
-567127
-567230
-567360
-567491
-567592
-567727
-567831
-567811
-567966
-567986
-568473
-568256
-568194
-568134
-568064
-567927
-567844
-567758
-567523
-567372
-567025
-566667
-566433
-565952
-565430
-564928
-564377
-563754
-563123
-562394
-561633
-560880
-560047
-559191
-558290
-557368
-556421
-555528
-554660
-553794
-552912
-551926
-550961
-550144
-549288
-548492
-547632
-546808
-546092
-545352
-544584
-543827
-543159
-542504
-541842
-541230
-540577
-540062
-539511
-538949
-538398
-537831
-537302
-536861
-536383
-535955
-535309
-535020
-534653
-534327
-533931
-533524
-533251
-532873
-532612
-532292
-532078
-531737
-531526
-531114
-531078
-530903
-530661
-530504
-530302
-530070
-529914
-529814
-529746
-529598
-529534
-529395
-529325
-529203
-529167
-529062
-529027
-529007
-528880
-528895
-528820
-528855
-528780
-528760
-528721
-528728
-528777
-528771
-528724
-528766
-528793
-528845
-528816
-528838
-528865
-528989
-529007
-529095
-529162
-529297
-529410
-529493
-529579
-529741
-529838
-530017
-530184
-530358
-530477
-530780
-530975
-531175
-531372
-531601
-531822
-532151
-532240
-532484
-532753
-533038
-533214
-533535
-533728
-533998
-534189
-534374
-534638
-534748
-535129
-535269
-535501
-535747
-535848
-536182
-536361
-536500
-536694
-536849
-536977
-537247
-537384
-537500
-537690
-537807
-537999
-538143
-538265
-538446
-538448
-538568
-538517
-538745
-539160
-539100
-539091
-539193
-539220
-539316
-539403
-539486
-539520
-539593
-539579
-539580
-539665
-539726
-539811
-539816
-539862
-539831
-539932
-539945
-539960
-540002
-540018
-540119
-540118
-540203
-540186
-540294
-540209
-540221
-540294
-540295
-540306
-540350
-540472
-540529
-540568
-540561
-540665
-540621
-540719
-540682
-540708
-540816
-540835
-540916
-541006
-541020
-541152
-541142
-541171
-541253
-541346
-541365
-541431
-541517
-541623
-541573
-541645
-541842
-542167
-541967
-541996
-542046
-542119
-542210
-542300
-542336
-542434
-542541
-542580
-542734
-542856
-542929
-543105
-543219
-543409
-543468
-543539
-543694
-543798
-544029
-544024
-544231
-544350
-544440
-544714
-544845
-545028
-545098
-545220
-545331
-545477
-545667
-545758
-545901
-546076
-546192
-546382
-546538
-546619
-546685
-546878
-546894
-547181
-547345
-547480
-547627
-547833
-547986
-548072
-548241
-548399
-548470
-548762
-548901
-548988
-549194
-549352
-549429
-549602
-549844
-549977
-550070
-550160
-550244
-550454
-550653
-550737
-550894
-551139
-551325
-551437
-551504
-551711
-551870
-552066
-552202
-552381
-552563
-552657
-552863
-553005
-553188
-553326
-553534
-553701
-553919
-554051
-554259
-554389
-554515
-554670
-554863
-555003
-555157
-555272
-555527
-555613
-555736
-555904
-555996
-556158
-556315
-556396
-556433
-556683
-556880
-557049
-557163
-557276
-557426
-557522
-557607
-557812
-557972
-558009
-558149
-558264
-558402
-558356
-558606
-558688
-558811
-558907
-559359
-559345
-559353
-559414
-559523
-559596
-559706
-559881
-559948
-560062
-560193
-560252
-560385
-560534
-560549
-560644
-560795
-560846
-560972
-561110
-561295
-561350
-561378
-561494
-561564
-561568
-561711
-561836
-561923
-562021
-562065
-562214
-562295
-562376
-562540
-562554
-562667
-562756
-562882
-562986
-563115
-563173
-563274
-563416
-563519
-563561
-563663
-563854
-563940
-564077
-564185
-564280
-564349
-564479
-564581
-564749
-564799
-564965
-565151
-565152
-565277
-565436
-565482
-565704
-565752
-565902
-566004
-566096
-566256
-566343
-566480
-566571
-566704
-566806
-566891
-566956
-567031
-567051
-566942
-566993
-566868
-566779
-566656
-566377
-566230
-565999
-565609
-565342
-564783
-564253
-563713
-563174
-562513
-561895
-561151
-560343
-559549
-558757
-557843
-556965
-556101
-555211
-554261
-553419
-552442
-551620
-550756
-550016
-549102
-548168
-547372
-546525
-545675
-544908
-544124
-543475
-542714
-542048
-541314
-540662
-540042
-539399
-538855
-538158
-537684
-537187
-536664
-536101
-535572
-535038
-534629
-534245
-533849
-533436
-533323
-532701
-532357
-531987
-531635
-531841
-531200
-530802
-530579
-530309
-530061
-529829
-529622
-529429
-529126
-528993
-528786
-528658
-528554
-528448
-528264
-528128
-528268
-527966
-527764
-527682
-527681
-527586
-527516
-527419
-527374
-527361
-527285
-527254
-527310
-527256
-527239
-527217
-527252
-527272
-527648
-527382
-527361
-527341
-527388
-527468
-527489
-527577
-527659
-527683
-527838
-527928
-528003
-528047
-528152
-528301
-528394
-528553
-528725
-528804
-529053
-529268
-529334
-529569
-529727
-529993
-530238
-530388
-530605
-530789
-531070
-531282
-531488
-531728
-531886
-532233
-532478
-532688
-532934
-533091
-533292
-533395
-533693
-533981
-534207
-534403
-534616
-534838
-534986
-535229
-535482
-535673
-535798
-536008
-536154
-536313
-536430
-536551
-536781
-536959
-537089
-537139
-537224
-537364
-537481
-537584
-537659
-537786
-537926
-537938
-537998
-538126
-538096
-538164
-538255
-538236
-538262
-538323
-538284
-538357
-538394
-538533
-538513
-538550
-538651
-538677
-538689
-538771
-538741
-538812
-538844
-538891
-538926
-538958
-539009
-539019
-539178
-539189
-539168
-539247
-539251
-539256
-539342
-539285
-539387
-539403
-539456
-539783
-539686
-539653
-539648
-539784
-539786
-539781
-539926
-540017
-540098
-540152
-540219
-540250
-540201
-540362
-540584
-540642
-540803
-540849
-540944
-541059
-541231
-541305
-541402
-541513
-541626
-541811
-541850
-541963
-542062
-542188
-542354
-542443
-542619
-542771
-542850
-542883
-543113
-543168
-543244
-543410
-543581
-543657
-543749
-543884
-544078
-544220
-544376
-544543
-544716
-544780
-544963
-545059
-545256
-545412
-545535
-545704
-545871
-545946
-546082
-546337
-546523
-546663
-546728
-546936
-547134
-547230
-547409
-547571
-547815
-547977
-548095
-548202
-548484
-548570
-548782
-548909
-549171
-549290
-549393
-549686
-549778
-549945
-550074
-550233
-550499
-550597
-550881
-550971
-551175
-551281
-551417
-551583
-551733
-551853
-552023
-552289
-552373
-552545
-552632
-552932
-553119
-553349
-553408
-553646
-553778
-553995
-554116
-554284
-554526
-554733
-554832
-554977
-555223
-555403
-555570
-555725
-555882
-556137
-556282
-556432
-556542
-556771
-556900
-557193
-557220
-557442
-557531
-557715
-557828
-557956
-558063
-558233
-558407
-558603
-558721
-558921
-558989
-559197
-559349
-559485
-559559
-559702
-559866
-560072
-560230
-560276
-560401
-560578
-560707
-560915
-560973
-561080
-561173
-561255
-561450
-561537
-561605
-561745
-561868
-562350
-562256
-562241
-562426
-562544
-563131
-562966
-562922
-563081
-563179
-563247
-563444
-563514
-563654
-563681
-563738
-563911
-564077
-564141
-564333
-564438
-564536
-564702
-564814
-564875
-564954
-565079
-565265
-565288
-565322
-565582
-565662
-565606
-565872
-566026
-566133
-566358
-566333
-566509
-566725
-566838
-566960
-567170
-567298
-567416
-567487
-567646
-567723
-567887
-567965
-568132
-568311
-568364
-568532
-568663
-568803
-569000
-569403
-569297
-569111
-569267
-569360
-569449
-569536
-569492
-569470
-569397
-569266
-569173
-568932
-568715
-568474
-568080
-567738
-567203
-566680
-566152
-565561
-565017
-564243
-563462
-563092
-562028
-561007
-560099
-559185
-558255
-557392
-556500
-555527
-554667
-553798
-552916
-551948
-551064
-550290
-549312
-548491
-547714
-546882
-546172
-545446
-544562
-543878
-543266
-542593
-541907
-541353
-540694
-540087
-539544
-538993
-538478
-537913
-537494
-537017
-536476
-536093
-535595
-535171
-534755
-534366
-534027
-533667
-533410
-533081
-532667
-532363
-532046
-531851
-531517
-531361
-531082
-530909
-530712
-530433
-530263
-530070
-529964
-529743
-529609
-529505
-529373
-529204
-529134
-529047
-528874
-528862
-528825
-528718
-528648
-528666
-528593
-528551
-528515
-528505
-528585
-528546
-528545
-528861
-528698
-528671
-528698
-528705
-528756
-528804
-528855
-528948
-529010
-529097
-529194
-529262
-529357
-529476
-529532
-529693
-529839
-529928
-530095
-530249
-530328
-530507
-530716
-530882
-531046
-531203
-531538
-531652
-531823
-532046
-532355
-532508
-532761
-532998
-533228
-533496
-533751
-533902
-534114
-534416
-534677
-534876
-535125
-535347
-535530
-536125
-536074
-536201
-536400
-536625
-536847
-537030
-537201
-537362
-537519
-537766
-537966
-538132
-538266
-538472
-538636
-538802
-538963
-539092
-539198
-539250
-539465
-539581
-539691
-539885
-539959
-540064
-540114
-540161
-540293
-540382
-540463
-540452
-540555
-540646
-540751
-540757
-540790
-540890
-540976
-541073
-541017
-541152
-541180
-541185
-541318
-541349
-541363
-541463
-541496
-541491
-541527
-541621
-541610
-541702
-541787
-541791
-541787
-541776
-541879
-541932
-542013
-542126
-542120
-542146
-542265
-542319
-542309
-542412
-542458
-542572
-542602
-542729
-542824
-542820
-542822
-542909
-542993
-543105
-543159
-543267
-543298
-543461
-543589
-543698
-543792
-543919
-544012
-544130
-544281
-544422
-544581
-544714
-544899
-544990
-544945
-545177
-545352
-545462
-545596
-545776
-545916
-546064
-546144
-546258
-546381
-546603
-546702
-546889
-547032
-547182
-547404
-547542
-547638
-547768
-547826
-548078
-548344
-548525
-548717
-548809
-548972
-549106
-549286
-549505
-549706
-549853
-550011
-550063
-550375
-550558
-550771
-550908
-551008
-551275
-551419
-551571
-551799
-551922
-552095
-552323
-552534
-552690
-552780
-552936
-553150
-553399
-553567
-553715
-553888
-554008
-554195
-554476
-554584
-554741
-555221
-555849
-556016
-556207
-556446
-556585
-556770
-556902
-557118
-557212
-557344
-557481
-557745
-557821
-557974
-558220
-558427
-558619
-558782
-558935
-559107
-559163
-559383
-559661
-559779
-559994
-560155
-560376
-560549
-560760
-560863
-561115
-561144
-561307
-561576
-561771
-562018
-562144
-562298
-562457
-562639
-562762
-562861
-563028
-563243
-563376
-563566
-563695
-563852
-563983
-564084
-564230
-564253
-564512
-564620
-565089
-565003
-565064
-565222
-565301
-565466
-565598
-565705
-565832
-565943
-566133
-566310
-566404
-566509
-566739
-566831
-566937
-567118
-567164
-567261
-567389
-567611
-567711
-567789
-568392
-568318
-568217
-568156
-568441
-568516
-568674
-568831
-568973
-569126
-569199
-569359
-569489
-569584
-569772
-569814
-570031
-570120
-570268
-570442
-570454
-570619
-570782
-570984
-571126
-571176
-571409
-571478
-571589
-571753
-571913
-572068
-572191
-572283
-572393
-572534
-572669
-572819
-572900
-573018
-573148
-573313
-573402
-573591
-573773
-573798
-573968
-574023
-574157
-574262
-574320
-574431
-574452
-574447
-574370
-574274
-574261
-574206
-574054
-573859
-573605
-573225
-572886
-572440
-571905
-571376
-570845
-570288
-569617
-568919
-568117
-567317
-566464
-565517
-564638
-563730
-562859
-561958
-561003
-560156
-559313
-558251
-557412
-556477
-555643
-554722
-553974
-553080
-552288
-551508
-550738
-549956
-549190
-548563
-547946
-547258
-546593
-546024
-545469
-544824
-544290
-543834
-543260
-542819
-542229
-541761
-541329
-540912
-540494
-540117
-539667
-539401
-539021
-538657
-538351
-538019
-537776
-537520
-537191
-536911
-536697
-536445
-536157
-535968
-535811
-535603
-535417
-535240
-535118
-534789
-534741
-534627
-534537
-534394
-534360
-534281
-534204
-534162
-534078
-533993
-533999
-533937
-533878
-533854
-533836
-533823
-533775
-533794
-533728
-533630
-533733
-533751
-533788
-533824
-533866
-533905
-534053
-534046
-534099
-534200
-534300
-534466
-534549
-534741
-534867
-534876
-535077
-535302
-535486
-535594
-535808
-536090
-536266
-536447
-536735
-536954
-537089
-537465
-537632
-537813
-538003
-538282
-538516
-538728
-539004
-539183
-539421
-539615
-539915
-540108
-540318
-540608
-540780
-541062
-541275
-541532
-541690
-541966
-542208
-542400
-542658
-542744
-542906
-543067
-543287
-543449
-543688
-543826
-544042
-544152
-544325
-544496
-544606
-544762
-544861
-545033
-545068
-545153
-545334
-545348
-545493
-545548
-545588
-545741
-545817
-545894
-546027
-546047
-546141
-546178
-546246
-546316
-546320
-546400
-546441
-546416
-546441
-546594
-546639
-546480
-546592
-546717
-546763
-546792
-546881
-546897
-546890
-546994
-546999
-547109
-547533
-547310
-547296
-547317
-547286
-547410
-547495
-547542
-547592
-547731
-547736
-547837
-548000
-548002
-548098
-548258
-548324
-548382
-548504
-548565
-548614
-548752
-548843
-548945
-549133
-549139
-549305
-549370
-549467
-549543
-549591
-549751
-549948
-550022
-550090
-550197
-550288
-550326
-550436
-550551
-550679
-550842
-550896
-550997
-551101
-551290
-551355
-551524
-551711
-551807
-551828
-552094
-552258
-552454
-552600
-552732
-552863
-553027
-553172
-553414
-553509
-553723
-553970
-554003
-554244
-554419
-554586
-554729
-554961
-555091
-555321
-555486
-555631
-555780
-555978
-556172
-556466
-556632
-556749
-556876
-557185
-557330
-557461
-557641
-557767
-558001
-558122
-558340
-558511
-558721
-558813
-558954
-559172
-559398
-559573
-559724
-559883
-560168
-560264
-560424
-560558
-560800
-560925
-561119
-561268
-561527
-561640
-561885
-562040
-562251
-562446
-562603
-562844
-563013
-563184
-563420
-563609
-563817
-563938
-564163
-564268
-564524
-564623
-564799
-565135
-565241
-565379
-565503
-565731
-565908
-566134
-566305
-566567
-566613
-566793
-566922
-567211
-567854
-567758
-567762
-567945
-568082
-568239
-568465
-568608
-568814
-569001
-569145
-569252
-569382
-569557
-569702
-569847
-570049
-570175
-570282
-570446
-570608
-570771
-570951
-571006
-571128
-571301
-571400
-571525
-571673
-571781
-571851
-571950
-572144
-572227
-572349
-572539
-572576
-572698
-572875
-572811
-573045
-573157
-573300
-573549
-573555
-573746
-573891
-574006
-574095
-574329
-574669
-574563
-574601
-574773
-574872
-575014
-575222
-575280
-575411
-575512
-575665
-575871
-576052
-576103
-576166
-576379
-576475
-576638
-576744
-576887
-576849
-577113
-577273
-577425
-577534
-577747
-577831
-577934
-578066
-578185
-578293
-578564
-578651
-578854
-578914
-579030
-579143
-579400
-579563
-579698
-579817
-579974
-580040
-580152
-580185
-580332
-580366
-580456
-580537
-580555
-580438
-580380
-580324
-580202
-580032
-579756
-579415
-579078
-578766
-578243
-577775
-577241
-576641
-575992
-575328
-574553
-573754
-573000
-572190
-571337
-570503
-569370
-568547
-567739
-566834
-565951
-565335
-564220
-563295
-562360
-561541
-560727
-559903
-559104
-558354
-557536
-556866
-556051
-555414
-554780
-554208
-553617
-552955
-552447
-551884
-551371
-550797
-550369
-549876
-549408
-549014
-548605
-548178
-547767
-547422
-547040
-546651
-546285
-545989
-545690
-545439
-545097
-544879
-544625
-544377
-544148
-543931
-543663
-543525
-543274
-543185
-543009
-542918
-542793
-542582
-542466
-542433
-542341
-542259
-542151
-542179
-542052
-542043
-541973
-541934
-541919
-541912
-541985
-541937
-541860
-541950
-541944
-542080
-542148
-542131
-542184
-542071
-542307
-542367
-542460
-542529
-542617
-542624
-542777
-542899
-543061
-543130
-543225
-543433
-543572
-543664
-543880
-543995
-544186
-544442
-544545
-544766
-544966
-545215
-545434
-545680
-545959
-546144
-546410
-546699
-546898
-547064
-547353
-547554
-547820
-548111
-548303
-548620
-548733
-548976
-549243
-549421
-549702
-549913
-550101
-550337
-550461
-550722
-550905
-551127
-551337
-551484
-551650
-551818
-551999
-552128
-552330
-552458
-552565
-552679
-552607
-552870
-552992
-553181
-553202
-553262
-553406
-553513
-553581
-553600
-553708
-553786
-553827
-553903
-553902
-553945
-553997
-553848
-554021
-554142
-554204
-554211
-554216
-554330
-554417
-554405
-554470
-554505
-554544
-554576
-554440
-554648
-554736
-554761
-554874
-554897
-554969
-555018
-555000
-555121
-555112
-555272
-555241
-555248
-555277
-555392
-555506
-555426
-555351
-555591
-555629
-555648
-555635
-555720
-555795
-556153
-556026
-556059
-556053
-556061
-556165
-556290
-556276
-556367
-556532
-556545
-556643
-556825
-556894
-556959
-557131
-557231
-557329
-557365
-557580
-557672
-557973
-558343
-558451
-558630
-558731
-558816
-559012
-559164
-559301
-559420
-559607
-559711
-559943
-560053
-560163
-560360
-560537
-560713
-560766
-560906
-561081
-561302
-561359
-561506
-561650
-561828
-562051
-562153
-562274
-562465
-562639
-562725
-562897
-563087
-563253
-563339
-563499
-563676
-563857
-564060
-564169
-564323
-564478
-564668
-564807
-564984
-565125
-565346
-565509
-565647
-565824
-565977
-566266
-566413
-566579
-566736
-566907
-567109
-567340
-567578
-567698
-567900
-568030
-568273
-568492
-568618
-568783
-568970
-569133
-569471
-569608
-569755
-569905
-570133
-570304
-570497
-570712
-570881
-571061
-571171
-571363
-571527
-571761
-571962
-572132
-572322
-572459
-572550
-572685
-572902
-573086
-573122
-573347
-573588
-573800
-573996
-574157
-574326
-574496
-574676
-574813
-574942
-575150
-575340
-575574
-575662
-575783
-575966
-576115
-576289
-576390
-576512
-576731
-576936
-576997
-577158
-577264
-577419
-577597
-577637
-577794
-577923
-578057
-578194
-578318
-578404
-578491
-578674
-578731
-578933
-578885
-579050
-579170
-579403
-579402
-579606
-579712
-579800
-579999
-580085
-580172
-580333
-580495
-580620
-580848
-580957
-581180
-581169
-581361
-581537
-581598
-581755
-581895
-582109
-582136
-582333
-582492
-582616
-582780
-582904
-583087
-583141
-583278
-583357
-583521
-583625
-583761
-583933
-584132
-584309
-584366
-584542
-584647
-584900
-585008
-585117
-585286
-585380
-585518
-585694
-585844
-585955
-586152
-586260
-586447
-586560
-586651
-586784
-586803
-586804
-586814
-586747
-586687
-586597
-586557
-586297
-586043
-585847
-585581
-585103
-584709
-584250
-583721
-583217
-582645
-581963
-581179
-580467
-579805
-578926
-578082
-577260
-576318
-575357
-574516
-573680
-572722
-571849
-570899
-570004
-569088
-568272
-567318
-566552
-565736
-564943
-564081
-563336
-562632
-561916
-561127
-560512
-559858
-559131
-558425
-557868
-557349
-556844
-556220
-555704
-555184
-554718
-554264
-553777
-553311
-553191
-552469
-552050
-551705
-551395
-551008
-550715
-550427
-550065
-549800
-549606
-549324
-549089
-548891
-548632
-548449
-548281
-548037
-547939
-547805
-547605
-547375
-547234
-547146
-547007
-546871
-546759
-546787
-546657
-546428
-546427
-546444
-546292
-546331
-546302
-546284
-546197
-546216
-546204
-546200
-546236
-546209
-546076
-546143
-546265
-546417
-546447
-546492
-546610
-546711
-546744
-546883
-546958
-547138
-547225
-547275
-547367
-547498
-547670
-547829
-547962
-548086
-548315
-548428
-548611
-548867
-549076
-549372
-549517
-549687
-549869
-550092
-550269
-550521
-551069
-551097
-551162
-551447
-551644
-551854
-551984
-552301
-552494
-552736
-552976
-553176
-553323
-553584
-553679
-554017
-554175
-554378
-554599
-554710
-554936
-555146
-555238
-555459
-555643
-555820
-556000
-556090
-556268
-556430
-556546
-556771
-557170
-557052
-556944
-557120
-557325
-557433
-557485
-557563
-557475
-557614
-557662
-557786
-557861
-557982
-557969
-558090
-558094
-558165
-558224
-558199
-558285
-558305
-558356
-558414
-558554
-558523
-558641
-558632
-558712
-558719
-558879
-558970
-558873
-558995
-559081
-559131
-559202
-559259
-559296
-559258
-559438
-559441
-559497
-559579
-559680
-559640
-559724
-559786
-559837
-559859
-559896
-559985
-560044
-560052
-560163
-560235
-560241
-560353
-560437
-560498
-560578
-560676
-560813
-560791
-560887
-560950
-560990
-561147
-561255
-561340
-561402
-561564
-561672
-561754
-561873
-562041
-562120
-562297
-562432
-562529
-562699
-562801
-563354
-563244
-563237
-563417
-563525
-563722
-563860
-563983
-564165
-564252
-564384
-564600
-564759
-564915
-564982
-565213
-565403
-565460
-565718
-565746
-565966
-566061
-566232
-566433
-566656
-566855
-566961
-567169
-567298
-567472
-567641
-567794
-567962
-568136
-568340
-568479
-568642
-568797
-569052
-569202
-569430
-569573
-569707
-569900
-570092
-570194
-570374
-570514
-570731
-570913
-571062
-571182
-571340
-571514
-571677
-571778
-572046
-572124
-572314
-572539
-572696
-572949
-573144
-573274
-573484
-573689
-573856
-573988
-574219
-574381
-574569
-574785
-574947
-575106
-575337
-575542
-575743
-575932
-576111
-576293
-576495
-576617
-576788
-577079
-577227
-577307
-577469
-577637
-577920
-578060
-578292
-578456
-578562
-578782
-578903
-579103
-579319
-579382
-579606
-579791
-579960
-580014
-580186
-580372
-580644
-580726
-580910
-581483
-581333
-581290
-581425
-581556
-581724
-581896
-581973
-582126
-582663
-582462
-582480
-582664
-582772
-582882
-583016
-583073
-583211
-583375
-583458
-583630
-583731
-583788
-583996
-584147
-584210
-584332
-584514
-584637
-584776
-584957
-585076
-585244
-585334
-585487
-585614
-585776
-586048
-586161
-586310
-586348
-586373
-586644
-586870
-587050
-587125
-587305
-587500
-587693
-587671
-587828
-588063
-588106
-588267
-588387
-588596
-588773
-588837
-589025
-589156
-589220
-589322
-589481
-589706
-589886
-590093
-590265
-590331
-590439
-590553
-590672
-590800
-590912
-590854
-590921
-590912
-590948
-590864
-590803
-590637
-590546
-590367
-590056
-589807
-589493
-589054
-588615
-588141
-587644
-587073
-586399
-585692
-585030
-584332
-583494
-582696
-581702
-580884
-579922
-579037
-578029
-577095
-576249
-575288
-574430
-573476
-572506
-571648
-570723
-569897
-569148
-568330
-567351
-566719
-565931
-565176
-564413
-563735
-563125
-562424
-561882
-561224
-560612
-559924
-559445
-559021
-558506
-558018
-557496
-556968
-556567
-556107
-555736
-555354
-555035
-554608
-554284
-554014
-553686
-553388
-553130
-552893
-552393
-552351
-552164
-551958
-551682
-551412
-551410
-551222
-551005
-550887
-550768
-550704
-550526
-550434
-550296
-550173
-550114
-549936
-549725
-549780
-549725
-549696
-549623
-549608
-549658
-549629
-549583
-549614
-549555
-549549
-549572
-549600
-549591
-549551
-549695
-549740
-549723
-549830
-549870
-549975
-550052
-550104
-550191
-550313
-550473
-550570
-550714
-550867
-550931
-551141
-551344
-551517
-551761
-552016
-552117
-552345
-552521
-552652
-552885
-553103
-553362
-553632
-553783
-553954
-554169
-554465
-554645
-554919
-555082
-555372
-555532
-555810
-556023
-556263
-556384
-556681
-556846
-557048
-557287
-557387
-557644
-557909
-557984
-558208
-558373
-558598
-558804
-558880
-559059
-559253
-559389
-559586
-559766
-559780
-559927
-560081
-560210
-560234
-560320
-560437
-560423
-560605
-560734
-560785
-560782
-560833
-560951
-561007
-561098
-561236
-561314
-561379
-561375
-561358
-561511
-561478
-561636
-561783
-561754
-561827
-561792
-561979
-562045
-562016
-562018
-562153
-562197
-562237
-562266
-562274
-562339
-562392
-562506
-562436
-562529
-562607
-562635
-562711
-562758
-562849
-562784
-562911
-563032
-563048
-563090
-563123
-563245
-563349
-563464
-563538
-563569
-563625
-563742
-563844
-563910
-563987
-564081
-564164
-564367
-564390
-564509
-564561
-564595
-564735
-564867
-564974
-565058
-565151
-565268
-565458
-565581
-565633
-565722
-565805
-565925
-566173
-566213
-566430
-566495
-566564
-566724
-566938
-567014
-567199
-567343
-567456
-567616
-567816
-567957
-568028
-568189
-568300
-568483
-568668
-568779
-568975
-569121
-569250
-569378
-569487
-569705
-569921
-570092
-570308
-570376
-570516
-570712
-570937
-571007
-571243
-571396
-571610
-571901
-571996
-572228
-572383
-572618
-572796
-572853
-573134
-573253
-573440
-573642
-573828
-573992
-574180
-574370
-574540
-574692
-574819
-574980
-575174
-575370
-575587
-575744
-575918
-576047
-576251
-576375
-576560
-576768
-576871
-577068
-577212
-577344
-577604
-577771
-577904
-578146
-578272
-578496
-578663
-578887
-579055
-579251
-579248
-579524
-579819
-579939
-580142
-580326
-580592
-580782
-581004
-581162
-581281
-581508
-581715
-581862
-582023
-582146
-582313
-582575
-582773
-582901
-583062
-583220
-583378
-583528
-583637
-583805
-584261
-584767
-584868
-584972
-585128
-585273
-585458
-585517
-585688
-585835
-586022
-586141
-586250
-586274
-586431
-586614
-586709
-586873
-587012
-587149
-587264
-587420
-587496
-587594
-587701
-587862
-587959
-588088
-588213
-588391
-588458
-588546
-588623
-588851
-588905
-589039
-589176
-589305
-589377
-589517
-589635
-589818
-589916
-590083
-590210
-590397
-590502
-590647
-590785
-590959
-591121
-591209
-591349
-591563
-591647
-591775
-591953
-592035
-592207
-592379
-592552
-592712
-592827
-592998
-593152
-593263
-593444
-593608
-593691
-593826
-593955
-594128
-594221
-594364
-594530
-594403
-594536
-594545
-594561
-594556
-594432
-594353
-594164
-593984
-593737
-593470
-593152
-592790
-592188
-591580
-591221
-590635
-590042
-589412
-588657
-587931
-587145
-586294
-585433
-584467
-583616
-582755
-581837
-580922
-579999
-578981
-578116
-577182
-576264
-575353
-574539
-573728
-572791
-572066
-571255
-570442
-569725
-568929
-568212
-567601
-566969
-566290
-565678
-565062
-564432
-563874
-563216
-562764
-562428
-561904
-561432
-560985
-560595
-560202
-559787
-559293
-558984
-558654
-558239
-557998
-557782
-557391
-557238
-556989
-556665
-556408
-555987
-555825
-555653
-555547
-555355
-555216
-555092
-554914
-554745
-554654
-554589
-554544
-554440
-554353
-554295
-554243
-554227
-554207
-554222
-554096
-554114
-554119
-554089
-554072
-554124
-554179
-554219
-554252
-554371
-554347
-554501
-554538
-554660
-554686
-554856
-554911
-555087
-555129
-555277
-555423
-555564
-555684
-555831
-556005
-556192
-556343
-556468
-556701
-556965
-557083
-557353
-557978
-557963
-558044
-558282
-558412
-558649
-558691
-559050
-559227
-559417
-559644
-559827
-560021
-560273
-560471
-560671
-560794
-560960
-561246
-561375
-561458
-561733
-561931
-562031
-562258
-562517
-562640
-562734
-562905
-563047
-563272
-563486
-563571
-563687
-563909
-564044
-564212
-564294
-564439
-564488
-564641
-564824
-564882
-565004
-565069
-565223
-565175
-565319
-565441
-565516
-565582
-565676
-565731
-565715
-565771
-565845
-565862
-565917
-565997
-565984
-565976
-565994
-566038
-566136
-566087
-566128
-566123
-566187
-566192
-566178
-566292
-566309
-566326
-566383
-566430
-566350
-566383
-566496
-566487
-566502
-566573
-566597
-566618
-566664
-566713
-566774
-566851
-566956
-566973
-566953
-567086
-567192
-567255
-567298
-567416
-567561
-567564
-567681
-567758
-567800
-567843
-567904
-567950
-568127
-568191
-568294
-568317
-568475
-568499
-568560
-568664
-568687
-568795
-568890
-568967
-569151
-569239
-569389
-569497
-569578
-569729
-569788
-570051
-570122
-570305
-570423
-570558
-570661
-570818
-571058
-571184
-571286
-571393
-571618
-571718
-571902
-572006
-572126
-572246
-572404
-572575
-572687
-572744
-572958
-573034
-573144
-573260
-573438
-573688
-573816
-573966
-574107
-574326
-574474
-574615
-574876
-575001
-575093
-575338
-575434
-575625
-575900
-576103
-576287
-576449
-576623
-576744
-576990
-577065
-577333
-577466
-577604
-577788
-577944
-578030
-578270
-578402
-578648
-578564
-578889
-579507
-579419
-579522
-579656
-579788
-579964
-580131
-580280
-580413
-580622
-580829
-580973
-581076
-581280
-581425
-581587
-581760
-581953
-582113
-582349
-582493
-582574
-582857
-583004
-583121
-583351
-583580
-583731
-583927
-584100
-584289
-584444
-584598
-584783
-584920
-585042
-585228
-585334
-585556
-585655
-585887
-585934
-586190
-586288
-586360
-586501
-586713
-586850
-586927
-587148
-587349
-587492
-587574
-587680
-587895
-588007
-588176
-588271
-588381
-588617
-588776
-588929
-588972
-589137
-589237
-589446
-589539
-589654
-589795
-589855
-590048
-590202
-590338
-590527
-590526
-590637
-590807
-590884
-591093
-591202
-591286
-591409
-591510
-591620
-591792
-591937
-592070
-592139
-592196
-592326
-592515
-592708
-592779
-592928
-593061
-593215
-593299
-593447
-593544
-593735
-593862
-593892
-594060
-594154
-594391
-594548
-594650
-594714
-594856
-595067
-595171
-595357
-595448
-595525
-596067
-595935
-596051
-596188
-596325
-596426
-596611
-596663
-596712
-596893
-596874
-596903
-596878
-596789
-596825
-596642
-596473
-596318
-595986
-595755
-595417
-594907
-594458
-593966
-593479
-592947
-592252
-591515
-590821
-590175
-589411
-588515
-587654
-586811
-585895
-585002
-584050
-583148
-582161
-581203
-580272
-579467
-578448
-577520
-576700
-575834
-575063
-574244
-573489
-572628
-571830
-571159
-570357
-569724
-569005
-568326
-567652
-567008
-566335
-565856
-565385
-564857
-564285
-563813
-563263
-562782
-562407
-561936
-561516
-561138
-560921
-560492
-560135
-559657
-559312
-559101
-558788
-558501
-558218
-558030
-557721
-557284
-557251
-557107
-556788
-556605
-556574
-556413
-556212
-556085
-555981
-556059
-555833
-555653
-555516
-555416
-555425
-555422
-555331
-555247
-555182
-555174
-555118
-555105
-555135
-555097
-555141
-555171
-555203
-555225
-555278
-555216
-555388
-555443
-555411
-555501
-555604
-555709
-555729
-555825
-555920
-556275
-556189
-556263
-556396
-556583
-556790
-556927
-556969
-557144
-557384
-557477
-557673
-557825
-558075
-558281
-558483
-558695
-558958
-559092
-559338
-559538
-559782
-560013
-560196
-560339
-560599
-560839
-561019
-561246
-561419
-561640
-561845
-561994
-562182
-562441
-562614
-562792
-563043
-563150
-563312
-563611
-563722
-563871
-564000
-564244
-564380
-564518
-564661
-564815
-564924
-565046
-565161
-565282
-565420
-565542
-565594
-565716
-565826
-565931
-565942
-566092
-566082
-566128
-566194
-566266
-566390
-566413
-566406
-566460
-566448
-566461
-566629
-566639
-566609
-566657
-566686
-566731
-566754
-566776
-566881
-566884
-566923
-567004
-567055
-567067
-567134
-567171
-567174
-567260
-567363
-567414
-567426
-567487
-567552
-567577
-567670
-567692
-567756
-567893
-567933
-567977
-567978
-568038
-568168
-568192
-568306
-568340
-568408
-568480
-568562
-568614
-568742
-568797
-568860
-569032
-569049
-569131
-569286
-569322
-569432
-569569
-569703
-569729
-569867
-569911
-570052
-570049
-570229
-570262
-570468
-570619
-570596
-570806
-571438
-571704
-571810
-571909
-572093
-572208
-572387
-572537
-572699
-572790
-572886
-573042
-573220
-573416
-573584
-573693
-573850
-574037
-574193
-574342
-574473
-574655
-574818
-575042
-575161
-575304
-575429
-575604
-575869
-576014
-576185
-576292
-576476
-576634
-576780
-576957
-577144
-577388
-577464
-577616
-577783
-577961
-578190
-578280
-578459
-578601
-578716
-578991
-579143
-579318
-579500
-579583
-579778
-579935
-580156
-580361
-580500
-580606
-580774
-581014
-581242
-581395
-581456
-581718
-581875
-582059
-582182
-582361
-582592
-582750
-583026
-583204
-583288
-583491
-583646
-583856
-584064
-584258
-584316
-584537
-584705
-584818
-585103
-585313
-585470
-585611
-585726
-585937
-586012
-586247
-586339
-586608
-586808
-586900
-587065
-587197
-587382
-587568
-587556
-587780
-587935
-588108
-588174
-588337
-588579
-588669
-588848
-588920
-589052
-589192
-589265
-589469
-589589
-589748
-589880
-590009
-590110
-590255
-590341
-590540
-590647
-590754
-590870
-590976
-591104
-591247
-591484
-591552
-591671
-591875
-591913
-592051
-591997
-592239
-592512
-592483
-592760
-592877
-593015
-593071
-593282
-593307
-593439
-593648
-593846
-593950
-594082
-594196
-594294
-594424
-594527
-594699
-594849
-594993
-595107
-595283
-595436
-595621
-595694
-595815
-595951
-596131
-596298
-596444
-596650
-596729
-596823
-596989
-597075
-597176
-597369
-597406
-597461
-597584
-597588
-597589
-597718
-597599
-597545
-597366
-597225
-597081
-596766
-596533
-596286
-595907
-595489
-594971
-594418
-593930
-593295
-592639
-591962
-591245
-590441
-589701
-588803
-587902
-587052
-586133
-585261
-584335
-583257
-582283
-581411
-580492
-579549
-578678
-577740
-576854
-575958
-575093
-574256
-573487
-572687
-571927
-571145
-570496
-569813
-569145
-568446
-567866
-567251
-566667
-566051
-565520
-564876
-564521
-563971
-563516
-563025
-562482
-562121
-561732
-561332
-560959
-560541
-560206
-559850
-559520
-559160
-558896
-558640
-558348
-558043
-557747
-557543
-557292
-557065
-556878
-556711
-556443
-556276
-556145
-556040
-555916
-555721
-555665
-556027
-555594
-555380
-555288
-555200
-555105
-555018
-555058
-555005
-554975
-554968
-554948
-554977
-555052
-554998
-555002
-555079
-555128
-555203
-555187
-555217
-555287
-555271
-555369
-555454
-555565
-555641
-555744
-555941
-556084
-556301
-556394
-556522
-556642
-556928
-557060
-557169
-557349
-557548
-557756
-557861
-558125
-558316
-558549
-558724
-558904
-559109
-559264
-559551
-559703
-559752
-560017
-560328
-560432
-560749
-560973
-561209
-561403
-561601
-561702
-561933
-562074
-562261
-562431
-562615
-562800
-562982
-563136
-563292
-563468
-563694
-563760
-563962
-564090
-564154
-564303
-564442
-564590
-564705
-564855
-564911
-565022
-565190
-565307
-565329
-565454
-565447
-565540
-565657
-565790
-565807
-565896
-565949
-566006
-566078
-566121
-566143
-566212
-566314
-566197
-566223
-566236
-566329
-566280
-566428
-566448
-566476
-566478
-566490
-566507
-566589
-566623
-566573
-566631
-566687
-566772
-566830
-566914
-566926
-566991
-567017
-567541
-567206
-567243
-567239
-567351
-567380
-567435
-567478
-567502
-567677
-567706
-567683
-567826
-567860
-568007
-567997
-568091
-568104
-568195
-568263
-568382
-568495
-568376
-568616
-568632
-568785
-568981
-569042
-569154
-569218
-569278
-569431
-569520
-569655
-569768
-569880
-569996
-570072
-570175
-570308
-570478
-570652
-570781
-570856
-571019
-571124
-571260
-571440
-571527
-571653
-571827
-571982
-572073
-572166
-572320
-572408
-572558
-572765
-572895
-573037
-573065
-573274
-573372
-573542
-573729
-573837
-574006
-574058
-574284
-574432
-574602
-574811
-574928
-575038
-575143
-575420
-575590
-575757
-575969
-576166
-576307
-576502
-576668
-576837
-576949
-577191
-577300
-577471
-577699
-577845
-578029
-578185
-578324
-578458
-578692
-578955
-579084
-579272
-579377
-579613
-579760
-579842
-580087
-580283
-580389
-580600
-580735
-580975
-581131
-581298
-581487
-581648
-581870
-582079
-582200
-582333
-582460
-582701
-582846
-582917
-583154
-583357
-583584
-583759
-583691
-583900
-584152
-584327
-584378
-584652
-584768
-584940
-585154
-585286
-585483
-585582
-585790
-586053
-586190
-586314
-586491
-586584
-586807
-586930
-587110
-587200
-587391
-587583
-587708
-587803
-587966
-588048
-588278
-588320
-588534
-588670
-588779
-588912
-589020
-589554
-589357
-589430
-589529
-589669
-589766
-589937
-589943
-590081
-590254
-590362
-590560
-590623
-590742
-590820
-590967
-591109
-591167
-591360
-591422
-591557
-591736
-591842
-591926
-592096
-592179
-592241
-592341
-592536
-592723
-592827
-593051
-593172
-593285
-593443
-593446
-593700
-593793
-593869
-593930
-594099
-594288
-594375
-594579
-594658
-594756
-594983
-595136
-595284
-595478
-595492
-595652
-595751
-595993
-596102
-596218
-596294
-596361
-596527
-596646
-596683
-596754
-596793
-596755
-596737
-596646
-596551
-596428
-596346
-596144
-595826
-595457
-595180
-594736
-594257
-593796
-593213
-592662
-591986
-591303
-590587
-589766
-588989
-588278
-587356
-586465
-585565
-584776
-583794
-582881
-581889
-581025
-580046
-579017
-578089
-577204
-576339
-575453
-574622
-573768
-572969
-572147
-571389
-570593
-569976
-569275
-568567
-568183
-567322
-566732
-566120
-565488
-564862
-564283
-563910
-563352
-562881
-562407
-562000
-561493
-561125
-560716
-560324
-559977
-559707
-559387
-558816
-558641
-558364
-558163
-557900
-557668
-557418
-557213
-556972
-556787
-556596
-556436
-556348
-556153
-555975
-555905
-555702
-555617
-555542
-555459
-555305
-555219
-555126
-555083
-555048
-555017
-554764
-554868
-554869
-554941
-554883
-554852
-554861
-554704
-554839
-554891
-554894
-554857
-554932
-554986
-555009
-554985
-555031
-555098
-555224
-555364
-555511
-555653
-555718
-555864
-555964
-556097
-556285
-556465
-556677
-556832
-556926
-557084
-557241
-557855
-557847
-557883
-558092
-558235
-558504
-558720
-558938
-559165
-559353
-559488
-559727
-559910
-560097
-560277
-560471
-560679
-560883
-561063
-561267
-561416
-561564
-561776
-561893
-562039
-562312
-562535
-562702
-562846
-562954
-563125
-563276
-563383
-563518
-563666
-563765
-563888
-563991
-564082
-564166
-564286
-564342
-564456
-564517
-564661
-564683
-564717
-564803
-564858
-564844
-564890
-564892
-565033
-565159
-565243
-565200
-565152
-565259
-565317
-565587
-565454
-565398
-565360
-565369
-565502
-565451
-565469
-565441
-565515
-565500
-565546
-565526
-565538
-565544
-565550
-565622
-565663
-565698
-565749
-566189
-566042
-565878
-565905
-565993
-565934
-565942
-566020
-566141
-566217
-566309
-566430
-566418
-566414
-566496
-566595
-566665
-566773
-566826
-566941
-566956
-567082
-567248
-567362
-567382
-567442
-567618
-567694
-567696
-567815
-567998
-568041
-568173
-568195
-568317
-568508
-568663
-568775
-568859
-568936
-569070
-569125
-569213
-569390
-569536
-569656
-569757
-569832
-569972
-570062
-570171
-570258
-570394
-570522
-570673
-570844
-570871
-571064
-571216
-571322
-571324
-571636
-571777
-571888
-572025
-572210
-572297
-572583
-572840
-572809
-572878
-573130
-573359
-573545
-573655
-573756
-573925
-574105
-574273
-574490
-574799
-574861
-574983
-575063
-575235
-575385
-575590
-575835
-575941
-576060
-576177
-576359
-576527
-576628
-576844
-577031
-577269
-577405
-577461
-577697
-577829
-577968
-578163
-578365
-578534
-578667
-578818
-578925
-579114
-579262
-579413
-579584
-579767
-579938
-580061
-580246
-580268
-580491
-580657
-580793
-581090
-581245
-581432
-581509
-581685
-582525
-582702
-582874
-583053
-583219
-583367
-583545
-583659
-583816
-584003
-584196
-584313
-584452
-584591
-584693
-584805
-584972
-585110
-585209
-585365
-585426
-585575
-585740
-585783
-585889
-586041
-586133
-586226
-586355
-586476
-586581
-586728
-586806
-586889
-587002
-587092
-587160
-587352
-587489
-587517
-588052
-587946
-587998
-588067
-588099
-588264
-588397
-588392
-588559
-588744
-588861
-589073
-589268
-589289
-589839
-589720
-589719
-589894
-590006
-590114
-590267
-590340
-590511
-590625
-590745
-590836
-590962
-591121
-591252
-591372
-591530
-591668
-591733
-591860
-591998
-592083
-592273
-592456
-592575
-592691
-592805
-593430
-593269
-593276
-593331
