PPG
-533598
-533762
-533892
-533945
-534124
-534284
-534460
-534593
-534753
-534870
-535016
-535119
-535231
-535421
-535548
-535705
-535822
-535933
-536078
-536277
-536346
-536496
-536634
-536708
-536877
-537001
-537059
-537240
-537318
-537480
-537614
-537775
-537855
-538021
-538094
-538263
-538405
-538894
-538715
-538753
-538880
-538983
-539151
-539299
-539350
-539487
-539560
-539684
-539796
-539922
-540072
-540173
-540297
-540340
-540551
-540589
-540781
-540848
-541002
-541296
-541276
-541286
-541372
-541537
-541634
-541456
-541567
-541580
-541535
-541431
-541190
-541010
-540654
-540337
-539940
-539413
-538794
-538166
-537424
-536568
-535759
-534907
-533880
-532850
-531750
-530602
-529220
-528149
-526952
-525750
-524478
-523314
-522104
-520932
-519761
-518539
-517369
-516313
-515171
-514200
-513172
-512108
-511165
-510062
-509223
-508436
-507486
-506690
-505934
-505084
-504306
-503558
-502894
-502212
-501485
-500901
-500353
-499718
-499119
-498598
-498107
-497652
-497119
-496751
-496321
-495914
-495512
-495093
-494733
-494450
-494144
-493792
-493528
-493267
-493100
-492864
-492687
-492550
-492220
-492168
-492003
-491946
-491847
-491785
-491704
-491718
-491608
-491615
-491656
-491634
-491709
-491708
-491787
-491805
-491908
-492032
-492054
-492179
-492292
-492454
-492515
-492728
-492958
-493052
-493248
-493440
-493541
-493761
-494032
-494317
-494500
-494718
-494925
-495211
-495461
-495661
-495871
-496188
-496527
-496758
-497053
-497335
-497636
-497947
-498244
-498517
-498843
-499171
-499519
-499802
-500058
-500430
-500695
-500984
-501127
-501511
-501817
-502110
-502382
-502726
-502993
-503201
-503500
-503736
-504026
-504217
-504524
-504747
-505015
-505230
-505404
-505600
-505918
-506142
-506221
-506450
-506543
-506756
-506893
-507125
-507266
-507362
-507539
-507617
-507681
-507852
-507982
-508128
-508090
-508242
-508336
-508422
-508331
-508477
-508469
-508439
-508522
-508554
-508571
-508605
-508600
-508630
-508695
-508641
-508696
-508753
-508644
-508659
-508644
-508727
-508814
-508711
-508681
-508698
-508710
-508740
-508663
-508733
-508729
-508746
-508602
-508728
-508658
-508682
-508784
-508803
-508807
-508793
-508731
-508813
-508859
-508915
-508926
-509011
-508997
-509073
-509071
-509174
-509150
-509270
-509338
-509405
-509442
-509542
-509576
-509569
-509777
-509810
-509830
-509944
-509979
-510087
-510213
-510281
-510433
-510477
-510530
-510600
-510590
-510809
-510981
-511133
-511218
-511321
-511557
-511559
-511699
-511806
-511932
-512236
-512244
-512375
-512510
-512605
-512733
-512855
-513030
-513200
-513415
-513458
-513576
-513828
-513848
-514026
-514263
-514375
-514580
-514719
-514782
-515028
-515178
-515295
-515480
-515619
-515804
-515856
-516155
-516253
-516385
-516454
-516792
-516979
-517013
-517546
-517499
-517582
-517744
-517944
-518107
-518331
-518502
-518583
-518762
-518924
-519205
-519319
-519513
-519764
-519850
-520003
-520206
-520382
-520492
-520685
-520910
-521098
-521274
-521387
-521583
-521744
-521877
-522123
-522255
-522474
-522608
-522812
-522967
-523174
-523372
-523478
-523562
-523782
-523943
-524096
-524221
-524401
-524565
-524823
-524932
-524999
-525150
-525337
-525486
-525674
-525778
-525833
-526039
-526099
-526267
-526422
-526635
-526748
-526812
-526939
-527099
-527233
-527303
-527491
-527619
-527739
-527818
-527934
-528087
-528258
-528350
-528498
-528579
-528668
-528809
-528912
-529069
-529190
-529290
-529439
-529529
-529623
-529764
-529925
-530000
-530110
-530173
-530365
-530467
-530495
-530612
-530717
-530859
-531023
-531179
-531246
-531338
-531440
-531477
-531608
-531791
-531858
-531992
-532092
-532209
-532253
-532465
-532452
-532677
-532753
-532755
-532804
-532952
-532935
-532883
-532817
-532728
-532534
-532407
-532194
-531662
-531405
-530976
-530476
-529923
-529193
-528446
-527548
-526639
-525725
-524767
-523668
-522526
-521417
-520176
-519008
-517741
-516619
-515373
-514193
-512925
-511786
-510657
-509475
-508375
-507256
-506218
-505156
-504134
-503111
-502603
-501365
-500347
-499421
-498554
-497649
-496967
-496167
-495474
-494684
-494029
-493368
-492707
-492057
-491453
-490899
-490285
-489740
-489275
-488806
-488382
-487821
-487344
-486939
-486544
-486175
-485883
-485622
-485179
-484944
-484664
-484271
-484127
-483947
-483744
-483591
-483373
-483232
-483189
-483009
-482888
-482881
-482815
-482823
-482670
-482681
-482700
-482702
-482694
-482700
-482749
-482744
-482798
-482891
-483013
-483097
-483238
-483276
-483427
-483595
-483603
-483822
-484074
-484210
-484310
-484546
-484672
-484902
-485184
-485372
-485511
-486006
-486282
-486479
-486780
-487071
-487309
-487569
-487852
-488134
-488415
-488785
-489030
-489344
-489583
-489921
-490200
-490432
-490780
-491026
-491372
-491700
-491940
-492270
-492561
-492844
-493033
-493416
-493720
-493852
-494186
-494448
-494697
-495315
-495250
-495458
-495601
-495850
-496028
-496054
-496376
-496437
-496607
-496884
-497039
-497226
-497190
-497418
-497583
-497739
-497895
-497959
-498051
-498151
-498202
-498348
-498413
-498456
-498528
-498629
-498715
-498712
-498704
-498694
-498726
-498748
-498828
-498809
-498857
-498772
-498827
-498751
-498815
-498818
-498773
-498774
-498831
-498822
-498740
-498817
-498773
-498741
-498753
-498721
-498690
-498740
-498724
-498745
-498740
-498792
-498803
-498786
-498826
-498836
-498909
-498878
-498873
-498951
-499036
-498975
-499074
-499087
-499159
-499232
-499255
-499285
-499412
-499475
-499518
-499643
-499720
-499754
-499908
-499950
-500018
-500153
-500190
-500276
-500310
-500363
-500445
-500669
-500728
-500896
-500995
-501080
-501221
-501378
-501456
-501537
-501702
-501849
-502024
-502060
-502247
-502395
-502514
-502653
-502780
-502860
-502972
-503147
-503233
-503389
-503527
-503758
-503857
-503964
-504112
-504299
-504361
-504618
-504815
-505020
-505074
-505235
-505315
-505587
-505775
-505969
-506093
-506234
-506456
-506593
-506691
-506907
-507021
-507226
-507462
-507570
-507802
-507933
-508159
-508254
-508451
-508525
-508775
-508976
-509162
-509324
-509497
-509631
-509889
-510088
-510222
-510412
-510647
-510752
-510922
-511070
-511346
-511544
-511662
-511877
-512033
-512224
-512350
-512533
-512715
-512879
-513014
-513267
-513378
-513525
-513709
-513934
-514125
-514232
-514216
-514559
-514642
-514888
-515051
-515224
-515285
-515516
-515662
-515853
-515902
-516117
-516245
-516320
-516494
-516644
-516771
-516881
-517024
-517065
-517194
-517356
-517482
-517657
-517832
-517930
-517968
-518066
-518297
-518389
-518538
-518636
-518771
-518868
-518921
-519078
-519167
-519241
-519371
-519434
-519672
-519795
-519827
-519922
-520159
-520182
-520308
-520427
-520599
-520634
-520721
-520881
-521000
-521110
-521194
-521233
-521448
-521491
-521759
-521778
-521818
-521973
-522167
-522185
-522360
-522443
-522629
-522709
-522746
-522868
-523026
-523107
-523530
-523396
-523268
-523255
-523301
-523221
-523209
-523138
-522993
-522727
-522500
-522002
-521712
-521289
-520774
-520151
-519451
-518642
-517772
-516906
-515918
-514861
-513782
-512697
-511579
-510411
-509252
-508072
-506887
-505672
-504470
-503350
-502166
-501069
-499937
-498801
-497799
-496729
-495736
-494783
-494234
-492927
-491909
-490933
-490148
-489278
-488454
-487601
-486899
-486157
-485453
-484784
-484157
-483459
-482902
-482226
-481708
-481211
-480667
-480213
-479627
-479212
-478709
-478304
-477863
-477504
-477354
-476841
-476552
-476135
-475796
-475560
-475305
-475132
-474917
-474712
-474477
-474702
-474134
-473871
-474138
-474172
-473820
-473725
-473862
-473567
-473479
-473556
-473401
-473445
-473484
-473454
-473516
-473586
-473709
-473718
-473833
-473924
-474075
-474187
-474243
-474341
-474533
-474649
-474859
-474988
-475190
-475389
-475566
-475731
-475943
-476210
-476392
-476686
-476858
-477128
-477374
-477625
-477874
-478623
-478662
-478837
-478902
-479293
-479613
-479946
-480175
-480481
-480852
-481030
-481319
-481616
-481951
-482234
-482518
-482783
-483091
-483399
-483596
-483875
-484123
-484425
-484656
-484893
-485170
-485361
-485560
-485824
-486046
-486253
-486387
-486535
-486841
-487014
-487161
-487275
-487373
-487620
-487735
-487796
-487920
-488126
-488093
-488321
-488381
-488877
-488690
-488672
-488712
-488729
-488861
-488860
-488925
-489021
-489057
-488965
-489031
-489096
-489118
-489128
-489137
-489224
-489289
-489310
-489260
-489208
-489253
-489196
-489223
-489260
-489288
-489263
-489352
-489325
-489203
-489264
-489245
-489299
-489397
-489364
-489384
-489423
-489405
-489403
-489484
-489545
-489553
-489520
-489630
-489684
-489758
-489806
-489804
-490141
-490003
-490007
-490081
-490155
-490183
-490233
-490288
-490368
-490300
-490488
-490646
-490685
-490771
-490924
-490977
-491099
-491158
-491248
-491348
-491488
-491625
-491743
-491822
-491917
-492067
-492181
-492283
-492372
-492533
-492622
-492834
-492946
-492995
-493205
-493365
-493434
-493647
-493795
-493882
-494013
-494101
-494298
-494444
-494652
-494793
-494914
-495147
-495301
-495388
-495565
-495773
-495876
-496092
-496264
-496478
-496625
-496811
-496963
-497136
-497264
-497482
-497653
-497803
-498021
-498181
-498301
-498474
-498640
-498808
-498985
-499174
-499307
-499479
-499740
-499908
-499996
-500160
-500333
-500583
-500780
-500959
-501053
-501205
-501436
-501566
-501737
-501918
-502113
-502328
-502428
-502568
-502713
-502956
-503235
-503340
-503518
-503696
-503736
-503903
-504248
-504373
-504404
-504650
-504891
-505022
-505207
-505409
-505474
-505532
-505777
-505906
-506091
-506256
-506412
-506543
-506610
-506778
-507006
-507064
-507253
-507377
-507554
-507631
-507751
-507874
-507900
-507917
-508247
-508368
-508442
-508617
-508697
-508911
-508980
-509118
-509378
-509287
-509436
-509509
-509573
-509511
-509796
-509969
-510087
-510252
-510404
-510445
-510592
-510682
-510768
-510853
-511023
-511195
-511105
-511299
-511495
-511622
-511695
-511765
-511644
-511962
-512057
-512151
-512326
-512421
-512565
-512623
-512773
-512841
-512921
-513087
-513165
-513226
-513300
-513502
-513598
-513517
-513692
-513832
-513872
-514085
-514107
-514270
-514318
-514321
-514298
-514233
-514180
-513898
-513758
-513530
-513255
-512875
-512412
-511889
-511394
-510694
-509964
-509100
-508231
-507307
-506373
-505245
-504272
-502946
-501897
-500867
-499687
-498574
-497418
-496220
-495138
-493972
-492801
-491697
-490653
-489664
-488541
-487544
-486582
-485634
-484611
-483706
-482857
-481937
-481167
-480370
-479593
-478781
-478087
-477384
-476633
-475965
-475344
-474750
-474072
-473519
-472992
-472464
-471907
-471474
-471017
-470536
-470138
-469675
-469338
-469019
-468578
-468225
-467975
-467625
-467325
-467116
-466793
-466577
-466331
-466213
-466068
-465825
-465724
-465598
-465418
-465382
-465262
-465215
-465089
-465052
-465008
-464993
-465011
-465024
-465019
-465029
-465058
-465189
-465216
-465217
-465381
-465413
-465590
-465643
-465793
-465885
-466014
-466205
-466316
-466451
-466628
-466766
-466939
-467229
-467373
-467522
-467799
-468017
-468300
-468483
-468775
-469014
-469226
-469521
-469744
-470085
-470268
-470602
-470931
-471222
-471481
-471798
-472043
-472388
-472604
-472915
-473177
-473427
-473759
-474045
-474372
-474675
-474800
-475083
-475302
-475562
-475933
-476096
-476358
-476551
-476860
-477078
-477214
-477452
-477586
-477829
-477905
-478185
-478255
-478469
-478662
-478728
-478856
-479071
-479149
-479218
-479787
-479541
-479542
-479630
-479686
-479701
-479723
-479901
-479998
-479893
-479947
-480004
-479942
-480008
-480081
-480204
-480133
-480238
-480158
-480179
-480258
-480226
-480250
-480246
-480178
-480153
-480221
-480276
-480237
-480250
-480233
-480242
-480248
-480253
-480231
-480261
-480374
-480304
-480377
-480293
-480355
-480429
-480416
-480394
-480764
-480608
-480531
-480711
-480735
-480788
-480835
-480833
-480887
-481005
-481022
-481052
-481143
-481244
-481304
-481320
-481409
-481521
-481637
-481705
-481850
-481869
-481982
-482083
-482167
-482172
-482366
-482427
-482569
-482661
-482837
-483007
-483095
-483224
-483316
-483402
-483494
-483672
-483813
-484013
-484105
-484264
-484414
-484465
-484617
-484792
-485001
-485087
-485226
-485395
-485528
-485707
-485923
-486069
-486209
-486320
-486472
-486644
-486846
-486986
-487140
-487359
-487492
-487610
-487809
-488129
-488060
-488257
-488450
-488659
-488774
-489025
-489178
-489299
-489514
-489696
-489828
-489983
-490184
-490338
-490564
-490755
-490916
-491021
-491206
-491413
-491497
-491729
-491985
-492109
-492267
-492509
-492669
-492789
-492950
-493213
-493431
-493550
-493709
-493957
-494040
-494233
-494385
-494514
-494713
-494789
-495058
-495207
-495414
-495662
-495787
-495876
-496105
-496311
-496393
-496548
-496788
-496939
-497025
-497154
-497286
-497521
-497579
-497824
-497962
-498158
-498243
-498471
-498525
-498733
-498861
-498995
-499163
-499228
-499416
-499508
-499630
-499713
-499908
-500012
-500113
-500201
-500398
-500567
-500628
-500683
-500819
-500828
-501019
-501114
-501170
-501293
-501468
-501617
-501648
-501745
-501881
-501987
-502044
-502147
-502287
-502396
-502517
-502623
-502655
-502756
-502877
-502987
-503116
-503235
-503321
-503452
-503595
-503736
-503799
-503913
-503832
-504072
-504194
-504334
-504389
-504546
-504648
-504712
-504870
-504908
-505116
-505209
-505311
-505367
-505312
-505540
-505652
-505698
-505817
-505769
-505863
-505858
-505845
-505749
-505739
-505456
-505275
-505067
-504720
-504321
-503836
-503263
-502635
-501901
-501122
-500297
-499366
-498410
-497425
-496334
-495386
-494189
-493050
-492019
-490827
-489735
-488567
-487455
-486317
-485164
-484049
-483012
-481966
-480851
-479784
-478865
-477874
-476874
-475988
-475088
-474249
-473441
-472661
-471864
-471131
-470348
-469705
-468916
-468337
-467652
-467026
-466434
-465894
-465309
-464782
-464292
-463750
-463268
-462884
-462471
-461998
-461593
-461188
-460838
-460433
-460113
-459785
-459553
-459279
-459012
-458757
-458581
-458380
-458202
-457999
-457877
-457668
-457596
-457431
-457378
-457182
-457235
-457109
-457079
-457030
-456968
-456956
-457041
-456999
-456969
-457057
-457152
-457208
-457236
-457346
-457446
-457517
-457623
-457745
-457924
-458054
-458190
-458309
-458455
-458683
-458876
-458941
-459175
-459398
-459578
-459822
-459980
-460261
-460502
-460738
-460997
-461277
-461461
-461755
-462023
-462327
-462613
-462876
-463171
-463419
-463793
-464092
-464336
-464613
-464966
-465199
-465458
-465786
-466056
-466363
-466589
-466807
-467089
-467275
-467566
-467815
-468097
-468339
-468547
-468719
-468863
-469094
-469224
-469465
-469635
-469841
-470011
-470074
-470264
-470423
-470417
-470596
-470737
-470852
-470898
-471079
-471148
-471187
-471108
-471294
-471327
-471391
-471416
-471433
-471476
-471523
-471607
-471631
-471594
-471664
-471663
-471684
-471692
-471719
-471681
-471645
-471722
-471692
-471644
-471775
-471747
-471754
-471815
-471807
-471757
-471770
-471855
-471889
-471923
-472236
-472052
-471910
-471935
-471971
-471980
-472010
-472026
-472125
-472157
-472225
-472173
-472217
-472260
-472253
-472295
-472347
-472433
-472538
-472606
-472724
-472802
-472872
-472963
-472993
-473051
-473178
-473302
-473361
-473472
-473555
-473656
-473738
-473880
-474027
-474154
-474230
-474343
-474499
-474613
-474723
-474859
-474957
-475169
-475263
-475397
-475460
-475673
-475841
-475882
-476065
-476252
-476354
-476442
-476730
-476918
-476956
-477017
-477234
-477385
-477570
-477725
-477813
-478025
-478142
-478301
-478476
-478682
-478796
-479034
-479190
-479345
-479527
-479617
-479870
-480012
-480135
-480304
-480449
-480720
-480843
-481075
-481187
-481445
-481587
-481771
-481939
-482075
-482294
-482486
-482582
-482807
-482925
-483225
-483360
-483522
-483753
-483883
-484100
-484274
-484466
-484610
-484788
-484968
-485217
-485356
-485600
-485731
-485855
-486155
-486259
-486417
-486594
-486799
-486995
-487135
-487320
-487460
-487699
-487775
-487984
-488073
-488254
-488469
-488621
-488746
-488974
-489064
-489227
-489312
-489471
-489634
-489752
-489996
-490052
-490202
-490320
-490520
-490724
-490856
-490943
-491139
-491215
-491318
-491480
-491615
-491752
-491881
-492004
-492045
-492142
-492331
-492369
-492445
-492635
-492723
-492845
-493005
-493008
-493153
-493240
-493316
-493411
-493516
-493622
-493799
-493861
-493959
-494036
-494202
-494287
-494328
-494485
-494552
-494679
-494815
-494853
-494963
-495049
-495201
-495334
-495429
-495559
-495589
-495680
-495831
-495915
-496059
-496137
-496135
-496802
-496550
-496571
-496676
-496719
-496781
-496969
-497120
-497091
-497232
-497330
-497458
-497531
-497673
-497693
-497792
-497911
-497965
-497977
-497973
-497909
-498135
-497675
-497379
-497023
-496730
-496266
-495824
-495311
-494629
-493883
-493111
-492298
-491400
-490441
-489456
-488529
-487447
-486325
-485165
-484115
-482913
-481794
-480709
-479617
-478489
-477348
-476333
-475266
-474224
-473179
-472180
-471283
-470356
-469402
-468544
-467691
-466851
-466003
-465135
-464434
-463720
-463064
-462292
-461647
-460953
-460392
-459842
-459199
-458538
-457966
-457450
-456973
-456480
-456041
-455576
-455211
-454798
-454321
-453967
-453614
-453293
-452961
-452680
-452440
-452108
-451851
-451628
-451468
-451234
-451084
-450917
-450809
-450550
-450401
-450332
-450239
-450159
-450054
-449998
-449873
-449890
-449845
-450238
-450041
-450087
-450103
-450111
-450152
-450361
-450372
-450528
-450647
-450752
-450885
-451020
-451154
-451326
-451491
-451598
-451799
-452042
-452211
-452433
-452638
-452921
-453126
-453422
-453590
-453830
-454088
-454361
-454650
-454911
-455187
-455486
-455858
-456166
-456392
-456681
-457042
-457290
-457620
-457884
-458197
-458506
-458772
-459039
-459358
-459620
-459921
-460246
-460491
-460717
-460992
-461285
-461421
-461658
-461830
-462065
-462291
-462445
-462758
-462885
-463067
-463236
-463352
-463537
-463649
-463780
-463882
-463961
-464131
-464225
-464359
-464451
-464557
-464622
-464714
-464769
-464809
-464865
-464905
-465024
-465009
-465030
-465133
-465144
-465255
-465267
-465296
-465340
-465387
-465427
-465447
-465387
-465480
-465401
-465483
-465523
-465531
-465572
-465613
-465574
-465575
-465580
-465669
-465633
-465696
-465738
-465755
-465797
-465858
-465902
-465886
-465998
-465949
-466048
-466096
-466147
-466200
-466259
-466316
-466384
-466459
-466506
-466551
-466670
-466682
-466786
-466902
-466987
-467022
-467120
-467244
-467293
-467446
-467491
-467607
-467713
-467792
-467918
-468030
-468192
-468291
-468385
-468517
-468624
-468745
-468884
-469048
-469276
-469322
-469512
-469650
-469730
-469927
-469982
-470171
-470355
-470490
-470717
-470798
-470983
-471139
-471219
-471388
-471548
-471734
-471877
-472071
-472208
-472382
-472563
-472752
-472956
-473021
-473234
-473340
-473576
-473780
-473863
-474023
-474227
-474440
-474596
-474733
-474982
-475210
-475281
-475408
-475710
-475791
-475966
-476237
-476350
-476547
-476700
-476884
-477178
-477307
-477495
-477638
-477845
-477982
-478186
-478375
-478522
-478666
-478801
-478953
-479157
-479359
-479605
-479731
-479934
-480088
-480322
-480443
-480661
-480780
-480919
-481120
-481268
-481430
-481652
-481831
-482013
-482171
-482340
-482506
-482619
-482807
-482951
-483127
-483360
-483489
-483638
-483849
-483972
-484099
-484205
-484316
-484504
-484721
-484742
-484986
-485077
-485294
-485380
-485501
-485628
-485721
-485876
-486011
-486125
-486283
-486443
-486476
-486641
-486721
-486820
-486995
-487112
-487249
-487292
-487306
-487471
-487613
-487621
-487726
-487902
-487930
-488047
-488139
-488214
-488316
-488461
-488531
-488588
-488631
-488764
-488866
-488913
-489093
-489154
-489230
-489313
-489399
-490260
-490386
-490500
-490690
-490692
-490883
-491111
-491136
-491311
-491320
-491470
-491538
-491613
-491748
-491885
-491941
-492018
-492156
-492278
-492367
-492362
-492478
-492679
-492725
-492852
-492947
-493053
-493016
-492986
-492998
-492904
-492844
-492787
-492532
-492328
-491951
-491630
-491199
-490765
-490216
-489479
-488772
-487992
-487217
-486300
-485354
-484355
-483360
-482286
-481231
-480142
-478976
-477960
-476903
-475750
-474639
-473519
-472518
-471455
-470437
-469431
-468331
-467425
-466466
-465486
-464549
-463692
-462850
-462037
-461208
-460444
-459725
-459041
-458344
-457627
-456988
-456334
-455665
-455025
-454500
-454007
-453587
-453015
-452471
-452110
-451657
-451195
-450769
-450487
-450094
-449775
-449421
-449103
-448843
-448524
-448340
-448091
-447863
-447663
-447469
-447243
-447105
-446976
-446843
-446686
-446639
-446514
-446373
-446320
-446287
-446208
-446181
-446109
-446120
-446144
-446135
-446152
-446207
-446295
-446333
-446364
-446404
-446526
-446676
-446725
-446767
-446907
-447040
-447181
-447386
-447471
-447683
-447832
-447929
-448101
-448287
-448499
-448715
-448971
-449144
-449348
-449597
-449865
-450046
-450370
-450621
-450918
-451111
-451469
-451676
-451988
-452228
-452528
-452751
-453064
-453340
-453587
-453859
-454070
-454432
-454707
-454932
-455193
-455471
-455716
-455922
-456236
-456427
-456599
-456824
-457029
-457287
-457467
-457664
-457856
-458008
-458201
-458398
-458561
-458738
-458817
-458975
-459114
-459240
-459347
-459343
-459506
-459570
-459703
-459734
-459792
-459846
-459955
-460026
-460057
-460054
-460088
-460103
-460160
-460194
-460203
-460257
-460161
-460218
-460227
-460282
-460250
-460260
-460253
-460267
-460280
-460291
-460300
-460254
-460233
-460257
-460288
-460340
-460300
-460297
-460369
-460428
-460451
-460462
-460398
-460511
-460599
-460568
-460651
-460656
-460693
-460658
-460813
-460790
-460879
-460948
-460966
-461075
-461132
-461183
-461271
-461361
-461489
-461481
-461562
-461623
-461785
-461867
-461934
-461971
-462125
-462265
-462316
-462483
-463017
-463209
-463373
-463451
-463666
-463735
-463853
-464034
-464213
-464319
-464436
-464579
-464744
-464871
-465029
-465211
-465407
-465591
-465677
-465816
-466103
-466210
-466288
-466456
-466679
-466763
-466945
-467104
-467226
-467447
-467616
-467819
-467929
-467985
-468240
-468414
-468647
-468790
-468985
-469169
-469308
-469502
-469722
-470213
-470134
-470176
-470355
-470403
-470655
-470831
-470969
-471160
-471364
-471519
-471727
-471972
-472133
-472249
-472440
-472602
-472752
-472917
-473093
-473378
-473507
-473649
-473843
-473986
-474003
-474296
-474475
-474669
-474829
-474978
-475205
-475314
-475454
-475614
-475851
-475951
-476089
-476311
-476378
-476662
-476787
-476920
-477078
-477208
-477370
-477554
-477661
-477793
-477974
-478145
-478202
-478326
-478549
-478622
-478728
-478946
-479097
-479248
-479343
-479414
-479653
-479866
-479855
-480026
-480135
-480250
-480400
-480474
-480620
-480789
-480899
-481043
-481172
-481239
-481351
-481467
-481565
-481727
-481851
-481935
-481971
-482098
-482266
-482444
-482552
-482616
-482640
-482729
-482838
-482973
-483164
-483145
-483220
-483301
-483453
-483524
-483608
-483734
-483865
-483919
-484072
-484157
-484261
-484428
-484468
-484568
-484723
-484788
-484872
-484979
-485183
-485204
-485385
-485476
-485628
-485671
-485788
-485894
-485978
-486036
-486178
-486253
-486455
-486511
-486623
-486691
-486825
-486915
-486948
-487162
-487245
-487323
-487427
-487537
-487566
-487759
-487725
-487852
-487943
-487949
-487896
-487859
-487754
-487677
-487458
-487242
-486920
-486572
-486086
-485009
-483631
-482906
-481216
-480239
-479206
-478194
-477153
-476086
-475068
-473959
-472819
-471757
-470604
-469547
-468460
-467454
-466672
-465468
-464336
-463247
-462292
-461352
-460366
-459460
-458626
-457703
-456851
-456110
-455296
-454521
-453792
-453081
-452363
-451668
-451019
-450418
-449822
-449137
-448607
-448085
-447622
-447045
-446519
-446027
-445647
-445174
-444806
-444365
-444038
-443664
-443332
-443058
-442683
-442373
-442091
-441826
-441604
-441400
-441195
-440933
-440762
-440616
-440423
-440254
-440128
-439967
-439901
-439834
-439756
-439732
-439610
-439598
-439521
-439458
-439434
-439377
-439378
-439480
-439534
-439568
-439512
-439543
-439586
-439650
-439752
-439760
-439899
-439983
-440124
-440186
-440250
-440403
-440593
-440729
-440739
-441009
-441153
-441319
-441537
-441736
-441848
-442024
-442335
-442533
-442772
-443003
-443147
-443380
-443646
-443856
-444191
-444489
-444694
-444970
-445237
-445520
-445890
-446141
-446438
-446682
-446904
-447274
-447470
-447783
-448086
-448351
-448499
-448843
-449112
-449320
-449576
-449778
-450036
-450249
-450510
-450692
-450901
-451071
-451256
-451467
-451595
-451798
-451966
-452141
-452272
-452482
-452610
-452740
-452787
-453009
-453018
-453240
-453227
-453365
-453459
-453600
-453642
-453696
-453728
-453820
-453886
-453917
-454034
-454025
-454020
-454075
-454127
-454254
-454265
-454215
-454251
-454325
-454327
-454367
-454473
-454585
-454611
-454704
-454674
-454665
-454671
-454745
-454822
-454796
-454820
-454924
-454986
-454989
-455011
-455097
-455219
-455251
-455372
-455378
-455456
-455594
-455641
-455736
-455794
-455810
-455924
-455982
-456082
-456197
-456241
-456355
-456505
-456482
-456624
-456752
-456948
-457056
-457138
-457262
-457327
-457399
-457525
-457690
-457913
-457940
-458109
-458284
-458408
-458532
-458684
-458851
-458978
-459136
-459340
-459434
-459606
-459700
-459893
-460042
-460116
-460390
-460566
-460753
-460913
-461071
-461290
-461381
-461651
-461806
-461940
-462166
-462338
-462476
-462691
-462835
-463019
-463192
-463472
-463527
-463733
-463906
-464086
-464284
-464511
-464676
-464822
-464840
-465158
-465296
-465603
-465751
-465967
-466174
-466329
-466468
-466581
-466767
-467030
-467265
-467447
-467653
-467873
-467957
-468203
-468390
-468613
-468674
-468986
-469088
-469308
-469463
-469724
-469912
-470016
-470215
-470425
-470619
-470776
-471055
-471154
-471369
-471559
-471705
-471869
-472073
-472148
-472364
-472586
-472709
-472717
-473044
-473257
-473692
-473728
-473751
-473890
-474096
-474292
-474394
-474596
-474750
-474902
-475071
-475235
-475432
-475541
-475696
-475891
-476027
-476237
-476360
-476575
-476683
-476806
-476967
-477115
-477329
-477449
-477579
-477725
-477852
-478058
-478165
-478225
-478286
-478494
-478614
-478680
-478859
-478956
-479103
-479188
-479368
-479500
-479578
-479635
-479791
-479903
-480046
-480043
-480207
-480232
-480419
-480497
-480560
-480583
-480761
-480896
-480900
-481046
-481152
-481281
-481318
-481465
-481488
-481631
-481552
-481802
-481964
-482058
-482174
-482322
-482444
-482503
-482668
-482858
-482790
-482963
-483109
-483257
-483331
-483441
-483500
-483612
-483815
-483938
-483991
-484120
-484239
-484401
-484532
-484653
-484529
-484689
-484901
-484975
-485075
-485247
-485380
-485536
-485557
-486035
-486045
-486061
-485929
-485773
-485674
-485471
-485459
-484908
-484419
-483961
-483354
-482738
-482047
-481245
-480417
-479568
-478605
-477602
-476671
-475644
-474591
-473495
-472479
-471699
-470288
-469179
-468097
-466932
-465895
-464877
-463789
-462790
-461866
-460871
-459925
-458982
-458085
-457176
-456354
-455573
-454737
-454008
-453191
-452500
-451759
-451088
-450370
-449755
-449149
-448571
-447955
-447397
-446904
-446344
-445847
-445384
-444946
-444459
-444124
-443670
-443294
-442892
-442403
-442120
-441834
-441595
-441333
-441082
-440760
-440489
-440294
-440119
-439901
-439675
-439585
-439378
-439252
-439201
-439105
-438994
-438862
-438885
-438748
-438691
-438682
-438653
-438604
-438630
-438568
-438651
-438648
-438693
-438742
-438730
-438813
-438988
-439061
-439108
-439226
-439397
-439429
-439514
-439673
-439812
-440014
-440103
-440239
-440430
-440654
-440728
-440953
-441134
-441373
-441587
-441859
-442099
-442302
-442486
-442713
-443063
-443300
-443584
-443868
-444137
-444243
-444648
-444940
-445243
-445554
-445741
-446062
-446441
-446682
-447007
-447355
-447574
-447808
-448141
-448388
-448635
-448938
-449153
-449319
-449646
-450108
-450181
-450328
-450527
-450740
-450992
-451134
-451389
-451568
-451811
-451985
-452068
-452195
-452444
-452554
-452669
-452812
-452896
-453019
-453137
-453198
-453303
-453419
-453352
-453560
-453584
-453530
-453669
-453715
-453799
-453914
-454278
-454087
-454024
-454103
-454152
-454146
-454216
-454181
-454245
-454241
-454381
-454377
-454429
-454545
-454560
-454660
-454716
-454662
-454756
-454831
-454900
-454861
-454989
-454917
-455019
-455075
-455228
-455195
-455304
-455429
-455424
-455554
-455597
-455602
-455727
-455779
-455814
-455878
-456020
-456083
-456217
-456295
-456412
-456544
-456606
-456721
-456834
-456883
-457050
-457116
-457319
-457369
-457554
-457617
-457773
-457847
-457863
-458147
-458358
-458459
-458703
-458819
-458948
-459042
-459226
-459358
-459546
-459725
-459929
-460046
-460192
-460367
-460525
-460716
-460828
-460979
-461119
-461330
-461501
-461737
-461864
-461993
-462235
-462405
-462556
-462739
-462918
-463119
-463390
-463528
-463690
-463770
-464082
-464283
-464463
-464680
-464829
-465041
-465216
-465437
-465615
-465749
-466005
-466142
-466375
-466514
-466612
-466910
-467044
-467228
-467438
-467700
-467858
-468003
-468222
-468387
-468610
-468802
-468926
-469124
-469362
-469533
-469742
-469865
-470121
-470354
-470477
-470664
-470879
-471058
-471230
-471467
-471647
-471834
-472038
-472246
-472380
-472571
-472691
-472956
-473137
-473300
-473464
-473584
-473742
-473958
-474152
-474317
-474557
-474702
-474893
-475066
-475159
-475332
-475455
-475608
-475822
-475997
-476227
-476400
-476507
-476676
-476794
-476963
-477158
-477264
-477422
-477601
-477799
-477996
-478062
-478227
-478426
-478527
-478695
-478900
-478978
-479140
-479266
-479431
-479414
-479628
-479768
-479979
-480118
-480174
-480281
-480491
-480609
-480767
-480828
-480892
-481106
-481210
-481291
-481467
-481575
-481649
-481763
-481886
-482051
-482173
-482240
-482324
-482474
-482583
-482709
-482846
-482927
-483027
-483182
-483327
-483405
-483508
-483656
-483757
-483863
-483947
-484101
-484216
-484554
-484577
-484509
-484679
-484782
-484860
-485053
-485124
-485221
-485376
-485566
-485603
-485723
-485874
-485963
-486116
-486316
-486353
-486540
-486675
-486783
-486908
-487002
-487086
-487332
-487467
-487592
-487718
-487651
-487930
-488001
-488114
-488278
-488456
-488640
-488784
-488901
-489007
-489109
-489131
-489362
-489443
-489458
-489559
-489581
-489654
-489526
-489455
-489321
-489014
-488842
-488400
-488052
-487564
-487063
-486405
-485725
-485038
-484504
-483357
-482385
-481466
-480484
-479417
-478330
-477313
-476258
-475120
-474083
-473004
-471928
-470823
-469801
-468582
-467685
-466661
-465707
-464783
-463770
-462869
-461979
-461114
-460248
-459417
-458574
-457861
-457098
-456229
-455637
-455005
-454353
-453654
-453040
-452463
-451900
-451384
-450915
-450399
-449839
-449401
-449128
-448602
-448073
-447709
-447363
-447039
-446673
-446377
-446073
-445778
-445533
-445301
-445072
-444827
-444624
-444502
-444259
-444069
-444018
-443869
-443740
-443666
-443580
-443464
-443457
-443442
-443376
-443339
-443379
-443352
-443390
-443300
-443362
-443372
-443373
-443410
-443462
-443554
-443633
-443759
-443792
-443894
-443985
-444405
-444352
-444371
-444525
-444694
-444781
-445376
-445223
-445319
-445544
-445754
-445841
-446057
-446292
-446509
-446760
-447014
-447247
-447475
-447798
-448012
-448244
-448584
-448911
-449151
-449419
-449770
-449824
-451402
-451782
-452009
-452337
-452620
-452914
-453200
-453427
-453691
-453960
-454178
-454481
-454686
-454909
-455083
-455248
-455585
-455791
-455990
-456206
-456400
-456539
-456687
-456845
-457041
-457147
-457382
-457492
-457531
-457675
-457763
-457895
-458009
-458132
-458134
-458332
-458397
-458482
-458520
-458572
-458636
-458708
-458781
-458742
-458904
-458789
-458899
-458954
-458988
-459073
-459037
-458996
-459141
-459114
-459225
-459188
-459255
-459237
-459300
-459296
-459388
-459429
-459400
-459384
-459514
-459551
-459589
-459650
-459692
-459749
-459802
-459835
-459860
-459933
-460018
-460104
-460081
-460154
-460304
-460416
-460423
-460533
-460667
-460736
-460864
-460997
-460969
-461155
-461161
-461340
-461498
-461576
-461726
-461851
-461927
-462024
-462140
-462288
-462480
-462560
-462697
-462775
-462958
-463170
-463298
-463380
-463551
-463708
-463816
-463929
-464126
-464219
-464378
-464597
-464748
-464921
-465080
-465202
-465254
-465653
-465743
-465889
-466174
-466233
-466466
-466650
-466790
-466920
-467111
-467315
-467508
-467611
-467795
-467964
-468164
-468325
-468460
-468685
-468793
-469010
-469195
-469424
-469573
-469709
-469891
-470096
-470271
-470517
-470516
-470820
-470955
-471166
-471356
-471559
-471761
-471865
-472076
-472244
-472449
-472633
-472849
-472998
-473088
-473286
-473518
-473658
-473903
-474101
-474220
-474398
-474605
-474726
-474883
-475080
-475207
-475381
-475595
-475811
-475971
-476099
-476296
-476508
-476667
-476754
-476955
-477114
-477301
-477538
-477636
-477852
-477974
-478091
-478267
-478378
-478589
-478723
-478903
-479077
-479203
-479327
-479366
-479545
-479725
-479892
-479980
-480152
-480355
-480452
-480621
-480743
-480917
-481043
-481121
-481284
-481466
-481577
-481668
-481849
-482033
-482132
-482268
-482384
-482518
-482583
-482767
-482921
-483022
-483095
-483285
-483374
-483528
-483633
-483758
-483795
-483971
-484085
-484230
-484281
-484364
-484475
-484581
-484671
-484769
-484840
-484984
-485041
-485150
-485237
-485353
-485475
-485497
-485582
-485662
-485765
-485841
-485883
-485978
-486004
-486163
-486250
-486295
-486358
-486477
-486564
-486606
-486787
-486837
-486875
-486983
-487191
-487210
-487364
-487476
-487572
-487635
-487670
-487822
-487885
-487943
-488086
-488092
-488261
-488362
-488510
-488554
-488652
-488770
-488816
-488948
-489042
-489137
-489229
-489336
-489439
-489472
-489608
-489706
-489803
-489985
-490032
-490194
-490209
-490401
-490512
-490645
-490726
-490968
-491018
-491083
-491204
-491259
-491304
-491374
-491404
-491434
-491327
-491222
-491026
-490927
-490613
-490363
-489977
-489461
-488949
-488416
-487760
-487108
-486320
-485428
-484567
-483612
-482670
-481698
-480710
-479631
-478667
-477644
-476568
-475520
-474448
-473463
-472335
-471306
-470218
-469305
-468345
-467324
-466383
-465544
-464604
-463783
-462900
-462056
-461251
-460449
-459676
-459021
-458313
-457626
-456976
-456256
-455802
-455177
-454589
-454058
-453642
-453087
-452550
-452129
-451774
-451305
-450880
-450552
-450148
-449862
-449572
-449274
-449063
-448695
-448394
-448122
-447931
-447717
-447584
-447460
-447306
-447119
-446973
-446858
-446759
-446607
-446546
-446465
-446466
-446412
-446327
-446298
-446286
-446369
-446309
-446338
-446305
-446276
-446373
-446378
-446450
-446427
-446607
-446654
-446748
-446771
-446852
-447009
-447137
-447280
-447399
-447403
-447674
-447891
-447966
-448171
-448322
-448465
-448731
-448953
-449017
-449251
-449514
-449701
-449978
-450237
-450460
-450684
-450956
-451248
-451504
-451764
-452049
-452365
-452570
-452825
-453185
-453481
-453710
-453965
-454250
-454549
-454840
-455176
-455423
-455613
-455818
-455899
-456213
-456518
-456736
-456963
-457242
-457448
-457593
-457889
-458076
-458174
-458445
-458557
-458753
-458932
-459024
-459200
-459324
-459460
-459622
-459625
-459725
-459796
-459893
-460007
-460067
-460120
-460268
-460331
-460355
-460378
-460403
-460506
-460529
-460475
-460409
-460556
-460553
-460677
-460595
-460659
-460680
-460695
-460698
-460739
-460738
-460749
-460750
-460738
-460740
-460795
-460843
-460807
-460896
-460920
-460854
-460773
-460876
-460915
-460948
-460903
-460963
-460987
-461035
-461034
-461079
-461142
-461208
-461259
-461298
-461356
-461413
-461448
-461458
-461593
-461669
-461708
-461844
-461909
-461981
-462061
-462097
-462238
-462257
-462434
-462496
-462623
-462745
-462854
-462931
-462973
-463190
-463332
-463627
-463610
-463703
-463759
-463880
-464042
-464153
-464268
-464400
-464556
-464749
-464948
-465047
-465078
-465307
-465482
-465631
-465846
-465943
-466113
-466325
-466408
-466570
-466843
-466940
-467065
-467222
-467420
-467530
-467706
-467898
-468027
-468189
-468372
-468503
-468657
-468882
-469078
-469155
-469339
-469504
-469639
-469806
-469962
-470225
-470384
-470555
-470682
-470859
-471054
-471217
-471366
-471547
-471714
-471904
-472073
-472239
-472353
-472536
-472714
-472891
-473051
-473263
-473487
-473600
-473798
-474227
-474240
-474322
-474414
-474636
-474741
-474906
-475069
-475297
-475453
-475597
-475799
-475890
-476121
-476272
-476406
-476620
-476771
-476961
-477076
-477232
-477427
-477500
-477660
-477819
-477939
-478164
-478246
-478442
-478600
-478708
-478849
-479056
-479128
-479218
-479529
-479599
-479843
-479895
-480025
-480169
-480299
-480435
-480601
-480675
-480853
-481005
-481081
-481296
-481368
-481452
-481556
-481674
-481872
-481978
-482136
-482245
-482340
-482485
-482581
-482688
-482777
-482804
-482898
-483046
-483162
-483275
-483409
-483332
-483580
-483745
-483848
-483965
-483992
-484151
-484203
-484308
-484334
-484436
-484543
-484704
-484793
-484853
-484958
-485059
-485141
-485233
-485317
-485485
-485523
-485601
-485606
-485753
-485859
-485978
-486071
-486155
-486271
-486360
-486454
-486548
-486618
-486742
-486831
-486929
-487038
-487148
-487196
-487354
-487433
-487560
-487651
-487779
-487860
-487942
-488063
-488199
-488254
-488372
-488442
-488560
-489152
-488884
-488916
-488979
-489121
-489196
-489383
-489446
-489563
-489531
-489748
-489854
-489944
-490046
-490154
-490232
-490301
-490373
-490315
-490248
-490212
-490132
-489873
-489731
-489447
-489107
-488705
-488254
-487627
-487142
-486512
-485868
-485056
-484336
-483357
-482459
-481603
-480608
-479593
-478571
-477509
-476575
-475528
-474523
-473464
-472454
-471398
-470434
-469342
-468366
-467413
-466462
-465598
-464685
-463773
-462937
-462037
-461170
-460429
-459677
-458920
-458149
-457470
-456753
-456104
-455395
-454891
-454206
-453677
-453114
-452548
-452008
-451478
-451024
-450546
-450069
-449633
-449226
-448825
-448449
-448035
-447691
-447327
-447018
-446718
-446451
-446129
-445931
-445631
-445470
-445199
-445065
-444872
-444689
-444534
-444362
-444301
-444115
-444039
-443954
-443923
-443818
-443685
-443677
-443595
-443566
-443495
-443551
-443519
-443490
-443534
-443527
-443556
-443580
-443544
-443621
-443757
-443693
-443855
-443942
-444045
-444133
-444253
-444394
-444473
-444597
-444727
-444814
-445062
-445066
-445292
-445438
-445628
-445804
-445846
-446109
-446332
-446616
-446861
-447001
-447267
-447461
-447792
-447975
-448318
-448568
-448892
-449017
-449350
-449697
-449959
-450182
-450509
-450750
-451054
-451326
-451594
-451872
-452160
-452420
-452608
-452825
-453117
-453359
-453620
-453890
-454120
-454383
-454508
-454825
-455013
-455223
-455412
-455603
-455780
-455900
-456103
-456317
-456421
-456541
-456755
-456846
-456926
-457076
-457163
-457322
-457365
-457517
-457560
-457674
-457804
-457867
-457971
-457958
-458081
-458068
-458141
-458135
-458194
-458272
-458301
-458393
-458495
-458478
-458551
-458575
-458566
-458678
-458662
-458683
-458726
-458798
-458806
-458906
-458905
-458970
-459079
-459102
-459197
-459220
-459316
-459318
-459405
-459442
-459507
-459608
-459625
-459664
-459761
-459803
-459950
-459927
-460088
-460312
-460229
-460338
-460405
-460583
-460699
-460785
-460909
-460930
-461030
-461154
-461258
-461399
-461515
-461580
-461718
-461924
-462041
-462152
-462315
-462401
-462630
-462710
-462848
-463008
-463185
-463244
-463381
-463548
-463759
-463882
-463951
-464168
-464296
-464526
-464643
-464794
-464979
-465110
-465317
-465489
-465618
-465891
-465991
-466092
-466321
-466446
-466628
-466734
-466952
-467181
-467327
-467524
-467651
-467848
-468077
-468289
-468444
-468645
-468871
-468946
-469097
-469338
-469523
-469577
-469822
-470158
-470274
-470494
-470734
-470871
-471068
-471155
-471339
-471455
-471768
-472003
-472148
-472305
-472438
-472528
-472792
-473069
-473240
-473474
-473565
-473755
-473933
-474102
-474306
-474432
-474598
-474793
-474960
-475170
-475311
-475468
-475634
-475845
-475951
-476151
-476339
-476434
-476695
-476935
-477008
-477208
-477354
-477545
-477790
-477883
-478058
-478244
-478439
-478558
-478716
-478908
-479091
-479229
-479388
-479587
-479669
-479914
-480071
-480259
-480355
-480462
-480557
-480780
-480894
-481085
-481250
-481365
-481472
-481645
-481798
-481932
-482080
-482189
-482331
-482499
-482622
-482808
-482870
-483065
-483114
-483327
-483434
-483534
-484103
-483951
-483977
-484068
-484144
-484270
-484419
-484535
-484641
-484749
-484859
-484832
-484938
-485035
-485218
-485325
-485405
-485536
-485685
-485720
-485842
-485898
-485980
-486150
-486224
-486307
-486439
-486490
-486595
-486742
-486835
-486893
-487036
-487095
-487123
-487370
-487459
-487518
-487654
-487772
-487831
-487955
-488076
-488231
-488247
-488405
-488548
-488641
-488716
-488783
-488955
-489086
-489167
-489248
-489446
-489485
-489633
-489757
-489832
-489985
-490046
-490092
-490282
-490396
-490558
-490690
-490760
-490913
-490994
-491153
-491302
-491317
-491477
-491631
-491584
-491722
-491714
-491787
-491728
-490990
-490725
-490374
-489938
-489369
-488792
-488211
-487578
-486761
-485960
-485148
-484204
-483305
-482365
-481385
-480315
-479255
-478246
-477191
-476189
-475117
-474098
-473040
-472017
-471066
-470028
-469033
-468068
-467156
-466242
-465320
-464322
-463580
-462755
-461969
-461185
-460393
-459685
-458943
-458266
-457590
-457015
-456282
-455659
-455138
-454536
-454020
-453435
-452951
-452501
-451952
-451589
-451153
-450675
-450240
-449886
-449536
-449177
-448897
-448558
-448254
-447916
-447699
-447459
-447230
-447024
-446816
-446556
-446397
-446152
-445976
-445909
-445740
-445646
-445544
-445495
-445346
-445336
-445275
-445205
-445225
-445134
-445084
-445048
-445060
-445129
-445118
-445127
-445231
-445263
-445368
-445367
-445394
-445401
-445584
-445563
-445677
-445856
-445873
-445990
-446079
-446204
-446409
-446546
-446669
-446949
-447102
-447231
-447376
-447634
-447743
-448020
-448500
-448710
-448940
-449151
-449368
-449669
-449921
-450205
-450526
-450799
-451048
-451247
-451591
-451815
-452154
-452446
-452724
-452935
-453211
-453494
-453743
-454010
-454343
-454619
-454700
-455008
-455337
-455573
-455771
-455995
-456215
-456331
-456617
-456914
-457124
-457244
-457402
-457548
-457756
-457859
-458074
-458146
-458387
-458526
-458514
-458682
-458749
-458920
-458965
-459087
-459221
-459330
-459384
-459400
-459430
-459536
-459672
-459954
-459746
-459718
-459832
-459841
-460153
-460081
-460086
-460057
-460078
-460170
-460288
-460241
-460332
-460319
-460415
-460467
-460509
-460612
-460641
-460649
-460725
-460794
-460879
-460907
-460982
-461108
-461207
-461219
-461206
-461349
-461460
-461480
-461634
-461647
-461733
-461881
-461959
-462107
-462156
-462262
-462352
-462422
-462532
-462675
-462786
-462843
-462974
-462992
-463239
-463424
-463528
-463699
-463809
-463858
-464001
-464189
-464300
-464458
-464582
-464655
-464862
-464972
-465161
-465312
-465403
-465601
-465818
-465900
-466089
-466340
-466485
-466669
-466775
-466966
-467213
-467377
-467598
-467728
-467843
-468005
-468203
-468341
-468538
-468694
-468865
-469053
-469313
-469341
-469620
-469902
-470067
-470251
-470437
-470646
-470852
-471022
-471184
-471392
-471617
-471763
-471972
-472094
-472338
-472578
-472777
-473004
-473137
-473290
-473361
-473649
-473923
-473930
-474253
-474503
-474719
-474851
-475117
-475253
-475404
-475651
-475811
-476011
-476212
-476419
-476650
-476705
-477024
-477135
-477320
-477547
-477715
-477923
-478060
-478211
-478435
-478612
-478857
-478966
-479078
-479331
-479522
-479689
-479824
-480119
-480249
-480407
-480550
-480710
-480907
-481115
-481260
-481394
-481556
-481733
-481966
-482102
-482221
-482383
-482571
-482737
-482911
-483011
-483201
-483332
-483391
-483674
-483802
-483885
-484069
-484174
-484361
-484496
-484689
-484823
-484950
-485043
-485226
-485355
-485513
-485663
-485706
-485813
-485983
-486173
-486230
-486310
-486456
-486513
-486675
-486863
-486954
-487044
-487181
-487256
-487409
-487444
-487414
-487612
-487748
-487877
-487985
-488116
-488156
-488264
-488330
-488494
-488506
-488681
-488727
-488741
-488895
-488984
-489101
-489196
-489327
-489438
-489535
-489665
-489715
-489899
-489939
-490054
-490152
-490301
-490488
-490565
-490590
-490705
-490799
-490932
-490985
-491096
-491299
-491325
-491451
-491525
-491688
-491771
-491845
-492002
-492174
-492300
-492539
-492623
-492713
-492843
-492988
-493093
-493222
-493307
-493477
-493602
-493745
-493849
-494023
-494100
-494178
-494219
-494416
-494369
-494456
-494454
-494368
-494251
-494184
-494020
-493661
-493505
-493110
-492708
-492296
-491781
-491154
-490507
-489752
-488958
-488164
-487203
-486253
-485345
-484385
-483403
-482353
-481375
-480408
-479325
-478286
-477255
-476271
-475544
-474280
-473260
-472119
-471329
-470340
-469474
-468643
-467765
-466891
-466125
-465357
-464615
-464012
-463230
-462504
-461798
-461167
-460591
-459977
-459422
-458867
-458325
-457800
-457354
-456866
-456387
-456023
-455580
-455191
-454787
-454477
-454116
-453788
-453460
-453157
-452860
-452636
-452351
-452153
-451954
-451700
-451519
-451356
-451239
-451086
-450987
-450786
-450718
-450608
-450581
-450513
-450508
-450375
-450362
-450280
-450367
-450391
-450265
-450327
-450355
-450308
-450392
-450497
-450498
-450589
-450506
-450730
-450850
-450964
-451001
-451137
-451151
-451290
-451486
-451627
-451683
-451937
-452101
-452271
-452397
-452587
-452727
-452893
-453140
-453394
-453543
-453764
-453984
-454354
-454515
-454735
-455066
-455185
-455502
-455752
-456085
-456348
-456567
-456920
-457173
-457466
-457728
-458045
-458353
-458616
-458915
-459125
-459390
-459694
-460006
-460211
-460390
-460706
-460911
-461161
-461435
-461492
-461762
-461960
-462218
-462357
-462581
-462688
-462911
-463073
-463224
-463384
-463466
-463562
-463735
-463844
-464007
-464075
-464188
-464299
-464223
-464394
-464472
-464551
-464577
-464709
-464768
-464744
-464806
-464888
-464924
-465007
-465010
-464992
-465043
-465115
-465104
-465134
-465165
-465213
-465244
-465277
-465294
-465300
-465375
-465447
-465524
-465525
-465467
-465547
-465616
-465648
-465626
-465640
-465703
-465758
-465850
-465896
-465915
-465985
-466098
-466088
-466272
-466359
-466432
-466499
-466551
-466543
-466664
-466791
-466859
-466929
-467039
-467179
-467291
-467416
-467541
-467658
-467724
-467854
-468038
-468050
-468177
-468318
-468528
-468623
-468745
-468922
-469031
-469119
-469194
-469313
-469514
-469606
-469839
-469952
-470120
-470219
-470451
-470568
-470654
-470829
-470995
-471167
-471331
-471498
-471647
-471859
-472030
-472173
-472352
-472498
-472718
-472825
-473054
-473154
-473377
-473544
-473631
-473886
-474085
-474197
-474416
-474672
-474810
-475045
-475175
-475389
-475566
-475714
-475840
-476018
-476180
-476362
-476550
-476740
-476900
-477063
-477229
-477393
-477581
-477728
-477945
-478136
-478331
-478485
-478659
-478865
-478978
-479186
-479323
-479459
-479640
-479797
-480030
-480222
-480353
-480529
-480721
-480869
-481038
-481167
-481301
-481462
-481662
-481780
-481893
-482010
-482199
-482419
-482522
-482700
-482880
-482972
-483183
-483290
-483445
-483562
-483668
-483898
-484051
-484173
-484279
-484428
-484566
-484712
-484843
-484995
-485125
-485204
-485348
-485469
-485608
-485722
-485858
-486015
-486093
-486295
-486328
-486459
-486532
-486648
-486768
-486933
-487050
-487085
-487149
-487287
-487472
-487612
-487608
-487545
-487720
-487953
-487979
-488167
-488205
-488376
-488432
-488591
-488556
-488643
-488786
-488808
-488923
-488984
-489030
-489124
-489242
-489278
-489396
-489492
-489474
-489482
-489614
-489700
-489756
-489814
-489898
-490042
-490022
-490088
-490166
-490126
-490305
-490440
-490572
-490683
-490744
-490840
-490894
-491024
-491060
-491101
-491295
-491319
-491389
-491444
-491537
-491646
-491720
-491745
-491899
-491991
-492060
-492104
-492234
-492395
-492356
-492492
-492612
-492649
-492793
-492941
-492974
-493087
-493149
-493204
-493335
-493427
-493504
-493595
-493628
-493675
-493676
-493675
-493630
-493643
-493504
-493286
-493016
-492786
-492527
-492080
-491667
-491139
-490646
-490038
-489282
-488565
-487818
-486871
-486031
-485192
-484288
-483351
-482464
-481425
-480498
-479354
-478371
-477443
-476254
-475376
-474761
-473547
-472583
-471621
-470632
-469711
-468836
-467973
-467124
-466355
-465545
-464766
-463994
-463338
-462635
-462004
-461376
-460732
-460133
-459502
-459012
-458515
-457950
-457415
-456954
-456434
-455985
-455544
-455215
-454767
-454489
-454048
-453729
-453509
-453167
-452903
-452703
-452433
-452211
-451977
-451739
-451566
-451363
-451175
-451120
-451034
-450826
-450815
-450709
-450575
-450558
-450419
-450321
-450305
-450242
-450251
-450204
-450245
-450255
-450274
-450279
-450240
-450287
-450269
-450331
-450373
-450455
-450529
-450467
-450588
-450763
-450886
-450868
-451090
-451193
-451337
-451427
-451601
-451804
-451922
-452098
-452299
-452509
-452672
-452851
-453108
-453319
-453591
-453799
-453991
-454254
-454614
-454837
-455075
-455326
-455628
-455882
-456162
-456342
-456641
-456946
-457259
-457486
-457762
-458033
-458403
-458671
-458893
-459182
-459445
-459627
-459976
-460214
-460483
-460641
-460934
-461116
-461339
-461545
-461762
-462015
-462184
-462336
-462468
-462619
-462854
-463023
-463127
-463273
-463473
-463612
-463630
-463837
-463904
-463966
-464088
-464219
-464242
-464392
-464492
-464484
-464532
-464655
-464672
-464720
-464748
-464833
-464912
-464885
-464926
-464997
-465012
-465091
-465076
-465046
-465148
-465100
-465209
-465196
-465253
-465263
-465245
-465303
-465336
-465405
-465428
-465420
-465530
-465531
-465580
-465603
-465658
-465664
-465706
-465816
-465842
-465922
-465959
-466037
-466094
-466200
-466183
-466256
-466403
-466490
-466549
-466690
-466697
-466810
-466840
-467046
-467047
-467210
-467262
-467333
-467513
-467662
-467778
-467834
-468112
-468111
-468208
-468434
-468551
-468679
-468804
-468958
-469096
-469186
-469378
-469499
-469655
-469845
-470023
-470171
-470300
-470452
-470689
-470822
-470952
-471107
-471263
-471444
-471628
-471747
-471874
-472045
-472266
-472487
-472622
-472735
-472898
-473186
-473333
-473493
-473502
-473759
-473946
-474183
-474349
-474511
-474752
-474812
-475020
-475213
-475425
-475570
-475713
-475910
-476079
-476335
-476465
-476672
-476951
-477085
-477273
-477406
-477598
-477794
-477932
-478167
-478357
-478541
-478678
-478867
-479106
-479278
-479423
-479612
-479721
-479953
-480172
-480261
-480519
-480719
-480847
-481065
-481189
-481427
-481576
-481785
-481922
-482130
-482281
-482400
-482606
-482783
-483009
-483098
-483304
-483477
-483620
-483831
-483950
-484092
-484271
-484362
-484638
-484803
-484884
-485066
-485300
-485400
-485506
-485702
-485918
-486093
-486175
-486383
-486496
-486584
-486703
-486885
-487037
-487162
-487377
-487473
-487549
-487684
-487869
-488005
-488120
-488194
-488360
-488457
-488534
-488696
-488757
-488932
-488999
-489171
-489322
-489457
-489497
-489648
-489680
-489780
-489887
-490045
-490120
-490186
-490305
-490421
-490483
-490594
-490735
-490871
-490980
-491069
-491120
-491234
-491373
-491524
-491536
-491667
-491812
-491949
-492049
-492102
-492270
-492443
-492550
-492671
-492716
-492744
-492937
-493093
-493210
-493342
-493464
-493579
-493659
-493779
-493886
-493950
-494068
-494190
-494398
-494568
-494654
-494749
-494855
-494900
-495004
-495083
-495142
-495246
-495197
-495211
-495110
-495061
-494912
-494688
-494529
-494201
-493769
-493405
-492835
-492376
-491733
-491014
-490230
-489476
-488681
-487787
-486814
-485918
-484988
-483968
-483035
-481933
-480987
-479979
-478886
-477899
-476953
-475960
-474946
-474060
-473133
-472205
-471238
-470442
-469480
-468618
-467844
-467028
-466276
-465643
-464888
-464186
-463480
-462796
-462107
-461545
-460974
-460334
-459727
-459323
-458797
-458282
-457772
-457310
-456914
-456410
-455963
-455620
-455237
-454845
-454535
-454175
-453863
-453546
-453266
-452924
-452709
-452431
-452199
-451956
-451753
-451638
-451469
-451283
-451134
-450958
-450856
-450770
-450632
-450484
-450465
-450360
-450203
-450186
-450115
-450097
-450105
-450088
-450100
-450098
-450028
-450026
-450078
-450136
-450126
-450200
-450306
-450357
-450381
-450419
-450501
-450536
-450577
-450768
-450932
-451085
-451215
-451348
-451458
-451561
-451773
-451949
-452101
-452354
-452535
-452709
-452915
-453085
-453255
-453496
-453797
-453996
-454320
-454587
-454865
-455140
-455473
-455690
-455933
-456145
-456442
-456652
-456980
-457204
-457553
-457807
-458079
-458356
-458614
-458898
-459084
-459388
-459625
-459948
-460141
-460364
-460609
-460870
-461076
-461314
-461545
-461726
-461921
-462104
-462310
-462458
-462643
-462719
-462903
-463012
-463154
-463260
-463454
-463575
-463747
-463786
-463920
-464020
-464094
-464111
-464246
-464378
-464444
-464532
-464564
-464733
-464720
-464844
-464913
-464926
-464972
-465052
-465181
-465237
-465257
-465290
-465325
-465376
-465436
-465508
-465540
-465571
-465671
-465731
-465755
-465861
-465984
-466006
-466028
-466172
-466238
-466301
-466338
-466407
-466445
-466586
-466684
-466825
-466855
-467040
-467094
-467218
-467322
-467378
-467484
-467627
-467745
-467950
-467999
-468153
-468148
-468302
-468426
-468604
-468786
-468847
-469014
-469176
-469301
-469486
-469573
-469674
-469802
-469928
-470125
-470228
-470455
-470561
-470697
-470850
-471082
-471199
-471348
-471485
-471611
-471805
-471988
-472105
-472348
-472517
-472675
-472811
-472994
-473192
-473390
-473607
-473770
-473933
-474108
-474292
-474461
-474573
-474782
-475025
-475173
-475406
-475557
-475775
-476030
-476148
-476373
-476553
-476722
-476903
-477085
-477239
-477465
-477664
-477844
-478042
-478263
-478419
-478478
-478781
-478996
-479210
-479319
-479538
-479718
-479969
-480152
-480316
-480546
-480716
-480877
-481091
-481284
-481461
-481642
-481871
-482023
-482207
-482422
-482556
-482738
-482957
-483099
-483337
-483492
-483745
-483880
-484017
-484218
-484429
-484587
-484728
-484935
-485090
-485253
-485278
-485624
-485849
-485980
-486181
-486370
-486598
-486731
-486913
-487034
-487179
-487314
-487445
-487615
-487797
-487928
-488015
-488216
-488381
-488588
-488665
-488742
-488925
-489060
-489159
-489287
-489446
-489640
-489775
-489867
-489947
-490105
-490197
-490286
-490456
-490484
-490689
-490779
-490867
-490908
-491017
-491109
-491175
-491341
-491456
-491607
-491716
-491736
-491908
-491972
-492028
-492171
-492238
-492363
-492471
-492587
-492655
-492834
-493013
-493115
-493149
-493298
-493449
-493517
-493621
-493803
-493865
-493990
-494156
-494221
-494343
-494476
-494573
-494725
-494830
-494981
-495122
-495256
-495274
-495423
-495551
-495686
-495791
-495894
-496003
-496144
-496243
-496407
-496552
-496618
-496808
-496923
-496985
-497120
-497152
-497258
-497359
-497433
-497446
-497511
-497491
-497378
-497216
-497103
-496896
-496652
-496396
-496056
-495556
-495078
-494391
-493773
-493078
-492357
-491486
-490695
-489708
-488774
-487874
-486916
-485824
-484914
-483829
-482758
-481768
-480771
-479736
-478764
-477745
-476820
-475878
-474976
-474047
-473162
-472263
-471451
-470643
-469926
-469146
-468345
-467687
-466924
-466171
-465809
-465011
-464321
-463738
-463171
-462560
-462076
-461570
-461055
-460630
-460181
-459693
-459275
-458941
-458503
-458160
-457755
-457450
-457146
-456824
-456578
-456298
-456065
-455783
-455546
-455394
-455186
-454992
-454806
-454637
-454556
-454417
-454252
-454147
-454056
-453969
-453883
-453812
-453795
-453679
-453632
-453607
-453536
-453530
-453574
-453529
-453536
-453623
-453806
-453771
-453809
-453968
-453966
-454082
-454105
-454252
-454362
-454437
-454621
-454605
-454867
-454990
-455145
-455341
-455520
-455602
-455820
-456025
-456223
-456402
-456639
-456926
-457139
-457396
-457620
-457875
-458171
-458440
-458649
-458941
-459222
-459472
-459791
-460067
-460349
-460670
-460930
-461200
-461433
-461788
-462016
-462263
-462601
-462848
-463102
-463398
-463605
-463756
-464027
-464343
-464522
-464770
-464957
-465106
-465339
-465531
-465713
-466000
-466115
-466199
-466423
-466485
-466657
-466778
-466973
-467058
-467155
-467328
-467387
-467435
-467514
-467679
-467789
-467807
-467899
-468000
-468055
-468113
-468197
-468264
-468341
-468407
-468464
-468481
-468500
-468573
-468616
-468640
-468766
-468824
-468877
-468897
-468929
-468999
-469077
-469145
-469178
-469239
-469269
-469311
-469407
-469391
-469478
-469510
-469586
-469662
-469744
-469779
-469802
-469919
-470015
-470140
-470219
-470295
-470389
-470558
-470541
-470649
-470768
-470862
-470988
-471113
-471194
-471271
-471352
-471500
-471651
-471824
-471915
-471990
-472199
-472329
-472407
-472901
-472731
-472885
-472976
-473199
-473285
-473402
-473586
-473706
-473910
-474085
-474240
-474381
-474492
-474628
-474870
-474982
-475129
-475323
-475545
-475673
-475877
-476026
-476223
-476360
-476552
-476712
-476889
-477090
-477257
-477408
-477643
-477752
-477923
-478220
-478302
-478538
-478665
-478907
-479074
-479258
-479384
-479549
-479760
-479963
-480145
-480381
-480539
-480701
-480886
-481090
-481282
-481487
-481703
-481848
-482034
-482246
-482401
-482565
-482808
-482933
-483136
-483306
-483523
-483714
-483877
-484026
-484180
-484391
-484534
-484763
-484917
-485135
-485354
-485442
-485643
-485752
-485941
-486161
-486324
-486524
-486676
-486827
-487018
-487148
-487367
-487578
-487668
-487846
-488010
-488172
-488328
-488432
-488594
-488749
-488882
-489037
-489241
-489378
-489467
-489665
-489796
-489946
-490124
-490161
-490340
-490456
-490707
-490967
-490996
-491065
-491170
-491280
-491401
-491526
-491659
-491701
-491890
-492007
-492129
-492214
-492382
-492445
-492594
-492640
-492606
-492664
-492851
-492839
-493095
-493192
-493306
-493350
-493491
-493554
-493684
-493840
-493812
-493969
-494102
-494122
-494259
-494322
-494439
-494532
-494626
-494695
-494814
-494973
-494961
-495136
-495200
-495335
-495452
-495550
-495564
-495796
-495842
-496072
-496167
-496262
-496281
-496379
-496428
-496592
-496695
-496800
-496919
-497021
-497106
-497146
-497304
-497391
-497509
-497668
-497733
-497892
-497997
-498117
-498235
-498379
-498490
-498553
-498625
-498653
-498793
-498946
-498967
-498985
-498925
-498860
-498775
-498634
-498342
-498146
-497761
-497488
-497016
-496526
-495979
-495386
-494755
-493995
-493188
-492356
-491504
-490627
-489635
-488719
-487701
-486667
-485709
-484656
-483719
-482649
-481598
-480664
-479748
-478793
-477886
-476909
-475913
-475107
-474290
-473518
-472621
-471861
-471034
-470313
-469562
-468906
-468289
-467653
-466930
-466375
-465892
-465202
-464708
-464242
-463749
-463305
-462790
-462376
-461930
-461580
-461209
-460885
-460560
-460054
-459908
-459537
-459388
-459136
-458820
-458586
-458407
-458257
-458042
-457891
-457711
-457570
-457407
-457324
-457243
-457128
-457063
-457009
-456944
-456899
-456833
-456789
-456792
-456751
-456755
-456797
-456793
-456798
-456903
-456929
-456937
-456967
-457112
-457114
-457161
-457218
-457352
-457533
-457543
-457707
-457887
-457925
-458073
-458230
-458376
-458517
-458652
-458849
-459058
-459204
-459517
-459647
-459769
-459993
-460273
-460560
-460697
-460889
-461157
-461477
-461765
-462021
-462219
-462559
-462898
-463156
-463407
-463711
-463988
-464210
-464506
-464777
-465080
-465353
-465615
-465980
-466233
-466443
-466757
-467010
-467227
-467408
-467692
-467958
-468168
-468385
-468642
-468775
-468926
-469223
-469353
-469592
-469739
-469537
-469906
-469989
-470194
-470401
-470620
-470654
-470740
-470897
-470930
-470989
-471044
-471141
-471251
-471298
-471304
-471387
-471507
-471511
-471533
-471600
-471713
-471682
-471738
-471700
-471752
-471900
-471872
-471923
-471888
-471950
-471995
-472026
-471889
-472088
-472131
-472174
-472155
-472171
-472232
-472385
-472369
-472453
-472494
-472436
-472479
-472616
-472748
-472823
-472857
-473008
-472995
-473084
-473179
-473293
-473306
-473470
-473465
-473572
-473661
-473730
-473835
-474004
-473984
-474126
-474325
-474618
-474594
-474621
-474736
-474850
-474945
-475098
-475168
-475317
-475500
-475608
-475757
-475827
-475955
-476097
-476253
-476404
-476544
-476745
-476896
-477019
-477188
-477275
-477439
-477609
-477722
-477850
-478031
-478140
-478406
-478528
-478774
-478864
-479088
-479153
-479322
-479485
-479622
-479807
-480060
-480180
-480436
-480576
-480707
-480870
-481066
-481252
-481409
-481593
-481786
-481930
-482122
-482306
-482439
-482685
-482840
-483080
-483263
-483381
-483511
-483739
-483945
-484076
-484315
-484516
-484680
-484877
-485048
-485220
-485409
-485604
-485757
-485951
-486234
-486371
-486547
-486601
-486859
-487032
-487255
-487379
-487600
-487777
-487933
-488111
-488368
-488577
-488701
-488847
-489015
-489160
-489364
-489535
-489751
-490288
-490232
-490239
-490362
-490587
-490764
-490849
-491022
-491259
-491430
-491541
-491652
-491846
-491941
-492085
-492287
-492437
-492590
-492841
-492936
-493025
-493160
-493261
-493414
-493573
-493579
-493786
-493892
-494028
-494171
-494358
-494435
-494500
-494656
-494650
-494779
-494910
-495004
-495150
-495237
-495331
-495305
-495507
-495566
-495723
-495865
-495931
-496105
-496190
-496256
-496389
-496482
-496557
-496725
-496853
-497003
-497090
-497176
-497313
-497398
-497561
-497711
-497733
-497813
-497962
-498119
-498259
-498372
-498549
-498617
-498698
-498800
-498928
-498970
-499099
-499263
-499436
-499839
-499703
-499717
-499852
-500010
-500052
-500200
-500330
-500365
-500488
-500522
-500706
-500637
-500839
-500842
-500903
-500773
-500760
-500748
-500589
-500482
-500260
-499975
-499560
-499076
-498660
-498126
-497540
-496862
-496178
-495369
-494566
-493641
-492845
-491867
-490971
-489926
-489051
-488100
-486973
-485954
-484920
-483949
-482938
-481918
-480917
-479980
-478980
-478040
-477125
-476285
-475357
-474531
-473741
-472828
-472098
-471379
-470677
-470020
-469299
-468553
-467945
-467338
-466715
-466169
-465648
-465134
-464575
-464104
-463591
-463179
-462711
-462348
-461910
-461615
-461212
-460862
-460548
-460274
-460001
-459695
-459462
-459131
-459013
-458805
-458543
-458382
-458214
-458045
-457887
-457714
-457625
-457486
-457439
-457431
-457353
-457286
-457233
-457077
-457079
-457061
-457028
-456994
-457092
-457104
-457081
-457218
-457206
-457231
-457227
-457300
-457389
-457432
-457492
-457548
-457706
-457769
-457860
-457998
-458106
-458284
-458394
-458533
-458629
-458766
-458966
-459144
-459249
-459515
-459736
-459919
-460085
-460270
-460468
-460738
-460989
-461134
-461434
-461718
-461989
-462282
-462481
-462788
-463030
-463318
-463656
-463905
-464155
-464528
-464803
-465043
-465372
-465635
-465906
-466109
-466415
-466678
-467010
-467275
-467472
-467760
-468107
-468289
-468498
-468708
-468922
-469125
-469331
-469527
-469745
-469954
-470113
-470271
-470474
-470652
-470808
-470892
-471092
-471246
-471581
-471463
-471648
-471752
-471769
-471935
-472081
-472201
-472314
-472447
-472483
-472531
-472638
-472714
-472827
-472880
-473011
-473038
-473498
-473331
-473266
-473342
-473455
-473499
-473553
-473681
-473787
-473783
-473874
-473967
-474072
-474070
-474141
-474230
-474333
-474401
-474313
-474535
-474698
-474800
-474906
-474998
-475113
-475185
-475261
-475312
-475401
-475490
-475692
-475844
-475862
-476003
-476070
-476228
-476323
-476474
-476598
-476724
-476703
-476944
-477085
-477226
-477597
-477575
-477709
-477782
-477994
-478097
-478156
-478652
-478677
-478556
-478814
-478963
-479138
-479272
-479480
-479627
-479720
-479799
-480111
-480268
-480459
-480572
-480819
-480880
-481056
-481225
-481339
-481628
-481874
-481968
-482135
-482319
-482493
-482705
-482917
-483296
-483291
-483478
-483621
-483722
-483979
-484206
-484442
-484457
-484675
-484991
-485206
-485220
-485446
-485783
-486424
-486257
-486353
-486535
-486695
-486916
-487021
-487194
-487392
-487648
-487860
-488107
-488313
-488507
-488684
-488921
-489052
-489241
-489374
-489571
-489668
-490234
-490273
-490400
-490569
-490815
-491345
-491390
-491488
-491675
-491798
-492012
-492245
-492411
-492548
-492715
-492886
-493125
-493331
-493442
-493653
-493827
-494012
-494236
-494387
-494580
-494776
-494949
-495191
-495361
-495349
-495488
-495714
-496009
-496177
-496321
-496471
-496604
-496759
-496947
-497062
-497236
-497416
-497552
-497681
-497820
-497999
-498125
-498278
-498303
-498442
-498662
-498631
-498901
-498959
-499116
-499268
-499406
-499487
-499542
-499667
-499756
-499953
-500025
-500099
-500276
-500361
-500503
-500559
-500719
-500812
-500904
-501045
-501135
-501224
-501422
-501415
-501556
-501671
-501798
-501956
-501954
-502013
-502613
-502562
-502857
-502751
-502912
-502973
-503051
-503247
-503258
-503427
-503534
-503606
-503761
-503851
-504286
-504559
-504411
-504405
-504406
-504518
-504732
-504818
-504914
-505039
-505227
-505254
-505452
-505447
-505649
-505787
-505813
-505963
-506064
-506165
-506268
-506280
-506198
-506216
-506162
-506034
-505808
-505628
-505341
-504970
-504525
-504138
-503699
-503126
-502367
-501707
-500838
-499979
-499138
-498212
-497232
-496212
-495687
-494390
-493133
-492165
-491443
-490162
-489083
-487960
-486950
-485953
-484992
-484006
-483071
-482131
-481145
-480287
-479442
-478609
-478276
-477180
-476358
-475583
-474810
-474102
-473485
-472778
-472204
-471676
-471093
-470500
-469959
-469467
-469014
-468511
-468033
-467689
-467225
-466820
-466449
-466072
-465768
-465442
-465076
-464768
-464600
-464274
-463958
-463783
-463594
-463446
-463200
-463010
-462763
-462667
-462576
-462430
-462299
-462244
-462165
-462091
-462026
-461930
-461924
-461833
-461825
-461843
-461825
-461842
-461810
-461845
-461860
-461871
-461909
-461917
-462018
-462131
-462225
-462331
-462425
-462445
-462608
-462743
-462875
-462895
-463028
-463296
-463338
-463575
-463684
-463797
-464036
-464187
-464404
-464528
-464729
-464983
-465194
-465426
-465610
-465855
-466087
-466325
-466603
-466916
-467203
-467365
-467663
-468011
-468324
-468581
-468904
-469114
-469460
-469756
-470028
-470284
-470642
-470885
-471152
-471413
-471701
-471989
-472216
-472481
-472742
-472959
-473184
-473505
-473748
-473971
-474173
-474414
-474582
-474777
-474988
-475217
-475390
-475594
-475692
-475881
-475998
-476267
-476364
-476482
-476559
-476710
-476804
-476944
-477014
-477183
-477218
-477328
-477411
-477477
-477555
-477661
-477736
-477892
-477845
-477862
-477955
-478023
-478138
-478176
-478179
-478275
-478308
-478311
-478404
-478481
-478478
-478532
-478615
-478642
-478698
-478842
-478845
-478941
-479002
-479023
-479110
-479213
-479304
-479360
-479375
-479479
-479524
-479635
-479673
-479736
-479817
-479861
-479981
-480041
-480178
-480317
-480379
-480477
-480572
-480685
-480779
-480901
-481013
-481140
-481221
-481447
-481526
-481638
-481756
-481884
-482015
-482214
-482288
-482514
-482563
-482729
-482902
-483053
-483165
-483304
-483476
-483660
-483853
-483965
-484187
-484290
-484474
-484637
-484741
-484926
-485076
-485336
-485456
-485660
-485903
-486039
-486190
-486424
-486551
-486720
-486848
-487070
-487264
-487466
-487610
-487801
-488027
-488258
-488394
-488604
-488761
-488961
-489088
-489347
-489552
-489715
-489834
-490015
-490216
-490461
-490644
-490787
-490999
-491156
-491334
-491566
-491827
-491907
-492074
-492342
-492520
-492625
-492852
-492988
-493194
-493457
-493677
-493786
-493945
-494167
-494388
-494561
-494713
-494945
-495157
-495268
-495431
-495581
-495712
-495933
-496111
-496317
-496464
-496641
-496887
-497050
-497232
-497446
-497597
-497753
-497890
-498052
-498251
-498395
-498568
-498736
-498885
-499075
-499263
-499390
-499474
-499667
-499796
-499969
-500160
-500292
-500436
-500592
-500776
-500854
-501011
-501013
-501137
-501341
-501477
-501528
-501705
-501788
-501916
-502054
-502096
-502246
-502371
-502379
-502525
-502657
-502751
-502879
-502980
-503171
-503241
-503424
-503457
-503623
-503755
-503930
-503963
-504166
-504181
-504375
-504476
-504586
-504665
-504823
-504911
-505073
-505156
-505203
-505428
-505465
-505628
-505732
-505884
-506024
-506049
-506112
-506296
-506454
-506574
-506681
-506810
-506958
-507072
-507213
-507253
-507355
-507484
-507669
-507855
-507951
-507937
-508075
-508083
-508147
-508132
-508197
-508159
-507950
-507886
-507623
-507277
-506963
-506609
-506178
-505660
-505067
-504425
-503726
-502888
-502099
-501265
-500312
-499332
-498308
-497271
-496304
-495252
-494206
-493195
-492123
-491029
-490022
-489041
-488024
-487056
-486063
-485176
-484219
-483289
-482467
-481600
-480780
-479916
-479146
-478379
-477769
-477059
-476375
-475744
-475035
-474510
-473979
-473412
-472807
-472329
-471776
-471429
-470913
-470477
-470038
-469602
-469323
-468954
-468601
-468215
-467966
-467649
-467420
-467160
-466934
-466719
-466418
-466202
-466000
-465815
-465701
-465518
-465420
-465257
-465167
-465079
-464980
-464894
-464744
-464765
-464667
-464609
-464558
-464518
-464634
-464589
-464541
-464532
-464630
-464619
-464655
-464719
-464753
-464819
-464976
-465023
-465096
-465209
-465281
-465435
-465540
-465681
-465792
-465953
-466156
-466241
-466433
-466518
-466705
-466946
-467058
-467343
-467543
-467751
-467987
-468196
-468523
-468752
-468980
-469221
-469479
-469749
-470041
-470301
-470584
-470863
-471092
-471468
-471737
-472004
-472317
-472628
-472870
-473211
-473489
-473775
-474104
-474321
-474586
-474867
-475184
-475418
-475708
-475915
-476168
-476388
-476692
-476872
-477146
-477310
-477528
-477750
-477927
-478187
-478335
-478494
-478662
-478902
-478989
-479181
-479379
-479482
-479585
-479691
-479769
-479954
-480000
-480093
-480243
-480298
-480335
-480416
-480577
-480613
-480708
-480789
-480889
-481057
-481010
-481100
-481105
-481262
-481309
-481339
-481382
-481412
-481481
-481555
-481615
-481649
-481716
-481802
-481842
-481885
-481983
-482021
-481988
-482139
-482144
-482279
-482299
-482497
-482528
-482612
-482768
-482751
-482910
-482992
-483097
-483165
-483292
-483363
-483394
-483559
-483610
-483784
-483917
-483985
-484126
-484224
-484305
-484453
-484540
-484632
-484775
-484908
-485077
-485211
-485373
-485533
-485571
-485752
-485930
-486020
-486207
-487181
-487400
-487603
-487784
-487971
-488036
-488226
-488372
-488537
-488735
-488905
-489191
-489329
-489553
-489689
-489885
-490105
-490197
-490448
-490652
-490802
-490975
-491195
-491352
-491543
-491748
-491915
-492121
-492382
-492534
-492722
-492897
-493073
-493276
-493503
-493680
-493823
-494040
-494208
-494409
-494620
-494792
-494978
-495178
-495485
-495730
-495816
-495977
-496238
-496393
-496615
-496783
-496975
-497150
-497395
-497546
-497779
-498003
-498111
-498305
-498459
-498721
-498862
-499126
-499271
-499429
-499642
-499822
-500005
-500136
-500374
-500592
-500716
-500932
-501060
-501290
-501428
-501610
-501759
-501931
-502010
-502167
-502294
-502518
-502634
-502742
-502935
-503060
-503212
-503471
-503577
-503637
-503744
-503895
-504107
-504233
-504369
-504497
-504626
-504794
-504892
-504990
-505098
-505311
-505357
-505482
-505606
-505829
-505930
-506043
-506195
-506270
-506388
-506527
-506636
-506896
-506992
-507095
-507231
-507431
-507544
-507633
-507812
-507959
-507995
-508125
-508208
-508349
-508570
-508613
-508740
-508901
-509031
-509145
-509308
-509413
-509559
-509619
-509735
-509835
-509983
-510123
-510212
-510377
-510545
-510714
-510774
-510852
-510971
-511133
-511122
-511172
-511246
-511183
-511109
-511080
-510922
-510824
-510452
-510183
-509865
-509380
-508887
-508372
-507670
-506967
-506252
-505411
-504591
-503563
-502571
-501656
-500647
-499608
-498543
-497500
-496497
-495343
-494324
-493281
-492236
-491240
-490218
-489274
-488295
-487276
-486499
-485581
-484585
-483781
-482963
-482247
-481478
-480732
-480024
-479327
-478666
-477992
-477352
-476862
-476224
-475755
-475211
-474722
-474223
-473780
-473404
-472948
-472531
-472189
-471844
-471574
-471189
-470970
-470644
-470359
-470072
-469807
-469703
-469459
-469243
-469048
-468926
-468756
-468636
-468505
-468411
-468280
-468134
-468081
-468013
-467984
-467949
-467848
-467925
-467876
-467842
-467814
-467910
-467946
-467935
-468027
-468052
-468065
-468134
-468219
-468285
-468368
-468472
-468523
-468726
-468834
-468909
-469048
-469145
-469417
-469529
-469713
-469897
-469982
-470262
-470421
-470543
-470758
-470977
-471176
-471397
-471655
-471826
-472126
-472373
-472592
-472921
-473123
-473378
-473644
-473921
-474219
-474482
-474790
-475131
-475361
-475683
-475941
-476220
-476528
-476806
-477127
-477406
-477665
-477949
-478237
-478518
-478761
-478990
-479257
-479461
-479725
-480000
-480160
-480458
-480712
-480866
-481058
-481262
-481442
-481631
-481821
-482039
-482129
-482243
-482400
-482576
-482728
-482771
-482938
-483057
-483189
-483280
-483308
-483460
-483576
-483629
-483748
-483815
-483853
-483896
-483998
-484090
-484075
-484186
-484237
-484251
-484263
-484394
-484395
-484416
-484490
-484513
-484534
-484567
-484622
-484677
-484731
-484775
-484674
-484834
-484875
-485001
-485003
-485110
-485148
-485229
-485291
-485395
-485397
-485369
-485483
-485617
-485661
-485795
-485803
-485935
-486036
-486047
-486096
-486256
-486320
-486442
-486515
-486635
-486719
-486801
-486934
-487018
-487074
-487173
-487330
-487393
-487530
-487753
-487827
-487967
-488159
-488217
-488314
-488446
-488568
-488798
-488934
-489038
-489219
-489318
-489537
-489734
-489749
-489860
-490081
-490212
-490354
-490481
-490636
-490878
-491012
-491183
-491352
-491499
-491659
-491867
-492039
-492220
-492471
-492590
-492686
-492905
-493140
-493288
-493546
-493692
-493780
-494012
-494219
-494407
-494665
-494818
-494987
-495187
-495345
-495502
-495726
-495859
-496080
-496282
-496401
-496674
-496789
-496972
-497163
-497309
-497467
-497655
-497821
-497983
-498240
-498366
-498524
-498711
-498932
-499126
-499360
-499505
-499669
-499791
-499988
-500210
-500444
-500541
-500688
-500897
-501094
-501328
-501474
-501666
-501778
-501974
-502184
-502400
-502498
-502656
-502873
-502992
-503169
-503264
-503413
-503575
-503739
-503936
-504061
-504202
-504360
-504481
-504652
-504789
-504921
-504996
-505177
-505348
-505440
-505499
-505626
-505779
-505880
-506070
-506234
-506306
-506432
-506503
-506691
-506867
-506968
-507064
-507186
-507223
-507509
-507558
-507743
-508066
-508033
-508123
-508223
-508347
-508487
-508544
-508636
-508783
-509014
-509085
-509164
-509427
-509520
-509618
-509716
-509876
-509880
-510071
-510221
-510326
-510418
-510512
-510670
-510792
-510944
-511029
-511137
-511297
-511439
-511681
-511662
-511748
-511881
-512058
-512105
-512148
-512046
-512235
-512335
-512237
-512210
-512162
-512054
-511862
-511558
-511260
-510990
-510542
-510006
-509439
-508831
-508220
-507414
-506580
-505738
-504873
-503802
-502794
-501793
-500828
-499755
-498693
-497610
-496525
-495358
-494433
-493424
-492359
-491321
-490311
-489342
-488383
-487460
-486532
-485730
-484877
-484047
-483283
-482503
-481737
-481033
-480397
-479690
-478987
-478468
-477822
-477279
-476732
-476304
-475710
-475237
-474811
-474342
-473979
-473536
-473212
-472900
-472565
-472191
-471870
-471649
-471341
-471136
-470851
-470735
-470452
-470269
-470202
-469941
-469793
-469671
-469589
-469486
-469370
-469419
-469316
-469289
-469188
-469114
-469121
-469123
-469159
-469099
-469110
-469196
-469190
-469221
-469275
-469328
-469400
-469508
-469532
-469688
-469776
-469865
-469909
-470093
-470202
-470298
-470471
-470622
-470738
-470961
-471072
-471238
-471424
-471608
-471841
-472057
-472330
-472607
-472577
-472913
-473146
-473496
-473648
-473921
-474246
-474503
-474752
-475049
-475344
-475644
-475911
-476279
-476529
-476802
-477086
-477369
-477712
-478009
-478248
-478540
-478864
-479166
-479383
-479684
-479939
-480218
-480472
-480722
-480948
-481253
-481470
-481701
-481918
-482095
-482329
-482473
-482679
-482853
-483062
-483249
-483393
-483611
-483716
-484243
-484070
-484097
-484240
-484360
-484407
-484530
-484677
-484703
-484762
-484822
-484939
-484924
-484998
-485109
-485169
-485201
-485224
-485211
-485340
-485424
-485446
-485442
-485407
-485486
-485567
-485571
-485520
-485583
-485568
-485607
-485639
-485705
-485722
-485756
-485722
-485811
-485880
-485813
-485934
-485967
-485976
-486086
-486121
-486101
-486214
-486233
-486277
-486310
-486392
-486531
-486556
-486591
-487129
-486952
-486958
-486970
-487042
-487186
-487305
-487337
-487399
-487473
-487580
-487687
-487759
-487812
-487981
-488093
-488126
-488347
-488448
-488520
-488645
-488790
-488952
-489002
-489117
-489282
-489464
-489519
-489623
-490197
-490305
-490470
-490690
-490842
-490975
-491118
-491229
-491401
-491544
-491745
-491933
-492070
-492249
-492345
-492550
-492769
-492821
-492999
-493245
-493466
-493612
-493778
-493911
-494095
-494206
-494408
-494633
-494731
-494921
-495095
-495310
-495539
-495695
-495919
-496191
-496327
-496444
-496598
-496787
-496967
-497133
-497295
-497802
-497834
-497938
-498164
-498171
-498353
-498570
-498837
-498952
-499144
-499411
-499548
-499698
-499949
-500093
-500260
-500430
-500705
-500840
-501026
-501207
-501345
-501610
-501749
-501893
-502090
-502296
-502474
-502649
-502747
-502891
-503117
-503321
-503457
-503685
-503808
-503988
-504141
-504278
-504495
-504538
-504787
-504913
-505146
-505255
-505420
-505528
-505657
-505825
-505975
-506130
-506185
-506420
-506552
-506714
-506735
-506948
-507035
-507139
-507227
-507392
-507522
-507615
-507716
-507891
-507931
-508078
-508117
-508292
-508337
-508464
-508595
-508687
-508860
-508940
-509035
-509192
-509254
-509425
-509525
-509559
-509759
-509797
-509938
-510087
-510621
-510473
-510407
-510523
-510533
-510659
-510740
-510924
-511028
-511166
-511246
-511359
-511431
-511503
-511581
-511757
-511848
-511992
-512117
-512155
-512322
-512428
-512537
-512589
-512798
-512913
-512990
-513072
-513165
-513287
-513332
-513459
-513594
-513633
-513622
-513582
-513416
-513334
-513199
-512808
-512639
-512316
-511841
-511401
-510831
-510094
-509583
-508854
-507978
-507186
-506228
-505248
-504309
-503295
-502191
-501091
-500086
-498966
-497891
-496791
-495711
-494497
-493456
-492470
-491516
-490533
-489560
-488638
-487725
-486800
-485834
-485026
-484128
-483402
-482622
-481864
-481210
-480446
-479853
-479205
-478584
-477901
-477447
-476910
-476461
-475896
-475902
-475152
-474648
-474264
-473900
-473493
-473175
-472843
-472517
-472198
-471955
-471729
-471264
-471253
-471095
-470946
-470636
-470475
-470408
-470287
-470150
-470005
-469937
-469824
-469768
-469655
-469596
-469545
-469484
-469589
-469632
-469598
-469620
-469608
-469612
-469676
-469736
-469785
-469944
-469921
-469980
-470161
-470250
-470384
-470520
-470641
-470717
-470871
-471085
-471184
-471663
-471605
-471701
-471888
-472091
-472338
-472463
-472730
-472858
-473153
-473405
-473604
-473901
-474107
-474306
-474553
-474881
-475169
-475487
-475771
-476009
-476261
-476556
-476897
-477200
-477480
-477710
-478032
-478336
-478546
-478803
-479122
-479360
-479681
-479897
-480221
-480499
-480682
-480934
-481117
-481389
-481684
-481896
-482105
-482241
-482468
-482641
-482934
-483071
-483344
-483506
-483924
-483805
-483964
-484097
-484160
-484304
-484322
-484562
-484653
-484751
-484805
-484934
-485061
-485103
-485183
-485213
-485198
-485348
-485401
-485433
-485490
-485622
-485607
-485621
-485703
-485663
-485660
-485740
-485764
-485812
-485772
-485795
-485867
-485889
-485804
-485872
-485905
-485999
-486063
-485975
-485989
-485916
-486098
-486125
-486168
-486161
-486257
-486287
-486299
-486378
-486361
-486515
-486582
-486725
-486756
-486774
-486818
-486871
-486970
-487040
-487172
-487205
-487274
-487400
-487467
-487532
-487652
-487751
-487705
-487888
-488040
-488162
-488250
-488405
-488496
-488590
-488663
-488821
-489021
-489141
-489227
-489321
-489490
-489569
-489751
-489801
-489994
-490163
-490301
-490762
-490706
-490743
-490843
-491069
-491183
-491379
-491503
-491582
-491720
-491926
-492129
-492272
-492402
-492565
-492743
-493181
-493125
-493209
-493366
-493616
-493704
-493883
-493982
-494208
-494393
-494551
-494744
-494860
-495041
-495198
-495370
-495639
-495806
-495931
-496117
-496308
-496444
-496685
-496800
-497024
-497124
-497310
-497489
-497700
-497892
-498020
-498141
-498316
-498590
-498738
-498818
-499038
-499124
-499370
-499576
-499748
-499883
-500096
-500347
-500471
-500717
-500877
-501012
-501204
-501419
-501550
-501709
-501897
-502058
-502272
-502500
-502588
-502765
-502904
-503011
-503277
-503391
-503594
-503734
-503817
-503967
-504153
-504373
-504432
-504630
-504760
-504925
-505028
-505258
-505361
-505473
-505574
-505661
-505777
-505954
-506170
-506261
-506335
-506450
-506575
-506662
-506769
-506909
-507044
-507119
-507458
-507407
-507464
-507620
-507682
-507762
-507843
-507981
-508642
-508453
-508438
-508533
-508603
-508663
-508837
-508896
-509017
-509072
-509298
-509364
-509508
-509590
-509702
-509748
-509749
-509879
-510102
-510290
-510420
-510521
-510529
-510608
-510774
-510875
-511051
-511068
-511224
-511326
-511469
-511598
-511755
-511824
-511875
-512065
-512100
-512306
-512365
-512452
-512606
-512719
-512871
-512933
-513323
-513249
-513232
-513248
-513184
-513242
-513163
-513123
-513010
-512825
-512591
-512364
-512003
-511551
-511009
-510495
-509827
-509303
-508522
-507776
-506920
-506057
-505137
-504218
-503127
-502178
-501131
-499953
-498942
-497798
-496663
-495621
-494594
-493564
-492557
-491509
-490568
-489484
-488518
-487612
-486688
-485775
-484998
-484071
-483324
-482639
-481790
-481173
-480392
-479756
-479083
-478488
-477899
-477337
-476879
-476350
-475842
-475385
-474987
-474518
-474019
-473657
-473257
-472958
-472626
-472286
-471967
-471701
-471411
-471219
-470938
-470747
-470551
-470435
-470269
-470120
-469963
-469870
-469713
-469615
-469543
-469434
-469310
-469317
-469220
-469254
-469241
-469243
-469216
-469308
-469272
-469267
-469365
-469338
-469451
-469505
-469605
-469650
-469787
-469872
-470022
-470153
-470271
-470484
-470557
-470648
-470901
-471056
-471237
-471341
-471551
-471693
-471953
-472150
-472392
-472590
-472829
-473067
-473336
-473584
-473784
-474057
-474334
-474530
-474798
-475099
-475305
-475584
-475970
-476240
-476448
-476733
-477034
-477342
-477589
-477898
-478280
-478506
-478723
-479100
-479330
-479584
-479840
-480077
-480349
-480590
-480900
-481060
-481319
-481667
-481798
-482021
-482165
-482434
-482624
-482814
-482946
-483134
-483359
-483451
-483619
-483710
-483881
-483958
-484085
-484246
-484392
-484397
-484544
-484623
-484789
-484750
-484901
-484930
-485099
-485098
-485069
-485115
-485223
-485243
-485298
-485359
-485437
-485429
-485433
-485463
-485477
-485467
-485539
-485487
-485623
-485650
-485636
-485590
-485608
-485729
-485694
-485681
-485724
-485744
-485810
-485894
-485901
-485928
-485991
-486051
-486086
-486084
-486110
-486151
-486174
-486300
-486368
-486338
-486660
-486645
-486629
-486614
-486759
-487084
-486922
-487016
-487008
-487144
-487284
-487332
-487356
-487551
-487595
-487731
-487866
-487911
-488101
-488149
-488266
-488363
-488411
-488552
-488705
-488860
-488978
-489104
-489176
-489294
-489430
-489637
-489751
-489851
-490028
-490199
-490300
-490407
-490522
-490692
-490917
-490880
-491192
-491281
-491505
-491647
-491769
-491952
-492072
-492240
-492502
-492594
-492723
-492895
-493119
-493300
-493415
-493589
-493726
-493929
-494106
-494200
-494442
-494643
-494768
-494966
-495202
-495319
-495522
-495643
-495891
-496055
-496223
-496383
-496595
-496753
-496957
-497189
-497261
-497399
-497598
-497809
-497975
-498133
-498297
-498481
-498656
-498797
-498918
-499079
-499220
-499796
-499770
-499885
-499970
-500225
-500378
-500555
-500741
-500831
-501014
-501089
-501355
-502286
-502399
-502504
-502678
-502852
-503060
-503176
-503341
-503542
-503616
-503819
-503962
-504108
-504131
-504368
-504525
-504685
-504855
-504942
-505076
-505220
-505357
-505348
-505582
-505722
-505781
-505903
-506036
-506227
-506247
-506351
-506447
-506595
-506736
-506812
-506983
-507085
-507210
-507252
-507366
-507478
-507541
-507626
-507759
-507924
-508111
-508107
-508285
-508398
-508454
-508590
-508675
-508701
-508865
-509016
-509129
-509197
-509261
-509353
-509520
-509620
-509763
-509875
-509993
-510062
-510109
-510281
-510459
-510552
-510612
-511026
-510933
-510909
-511036
-511186
-511321
-511407
-511523
-511595
-511687
-511824
-511937
-512048
-512099
-512191
-512281
-512362
-512404
-512461
-512403
-512340
-512261
-512178
-511984
-511736
-511490
-511113
-510627
-510230
-509600
-508965
-508292
-507626
-506796
-506044
-505157
-504242
-503266
-502256
-501193
-500183
-499037
-497944
-496856
-495747
-494721
-493638
-492561
-491489
-490499
-489483
-488475
-487505
-486622
-485702
-484834
-483923
-483096
-482275
-481526
-480772
-480063
-479397
-478707
-478055
-477436
-476840
-476205
-475660
-475204
-474719
-474176
-473664
-473273
-472850
-472491
-472106
-471786
-471510
-471129
-470813
-470472
-470209
-469974
-469728
-469509
-469290
-469135
-469032
-468851
-468665
-468598
-468474
-468325
-468270
-468210
-468202
-468094
-468117
-468097
-468026
-468047
-468075
-467973
-468025
-468096
-468192
-468175
-468214
-468377
-468497
-468507
-468581
-468680
-468717
-468990
-469164
-469257
-469364
-469510
-469723
-469856
-469988
-470209
-470375
-470567
-470783
-470966
-471209
-471368
-471699
-471941
-472140
-472342
-472655
-472867
-473168
-473507
-473676
-473968
-474258
-474634
-474870
-475509
-475523
-475747
-476048
-476263
-476569
-476874
-477137
-477451
-477675
-477937
-478176
-478409
-478720
-478997
-479212
-479238
-479617
-479865
-480165
-480354
-480586
-480843
-481021
-481087
-481380
-481591
-481733
-481923
-482088
-482204
-482393
-482488
-482493
-482707
-482851
-482966
-483027
-483086
-483230
-483399
-483383
-483457
-483450
-483603
-483625
-483695
-483836
-483785
-483872
-484167
-483998
-483927
-483932
-483928
-483975
-483982
-484004
-484007
-484059
-484076
-484483
-484189
-484156
-484167
-484176
-484187
-484119
-484225
-484188
-484218
-484186
-484274
-484315
-484312
-484341
-484401
-484443
-484397
-484842
-484629
-484602
-484945
-484804
-484784
-484838
-484831
-484885
-485028
-485108
-485060
-485075
-485216
-485312
-485447
-485471
-485525
-485704
-485747
-485801
-485968
-486066
-486162
-486219
-486320
-486572
-486696
-486778
-486892
-486993
-487109
-487602
-487320
-487529
-487624
-487780
-487873
-487997
-488311
-488407
-488898
-488766
-488810
-489029
-489138
-489366
-489476
-489619
-489693
-489902
-489981
-490227
-490275
-490512
-490617
-490808
-490950
-491124
-491293
-491439
-491551
-491736
-491903
-492022
-492234
-492399
-492584
-492732
-492873
-493080
-493345
-493468
-493515
-493692
-493947
-494108
-494263
-494411
-494608
-494789
-494954
-495190
-495252
-495415
-495592
-496183
-496069
-496138
-496216
-496450
-496638
-496854
-497017
-497112
-497300
-497563
-497656
-497801
-498446
-498640
-498791
-498944
-499123
-499265
-499442
-499632
-499794
-499942
-500118
-500334
-500477
-500676
-500763
-500980
-501139
-501255
-501391
-501557
-501700
-501888
-501959
-502106
-502316
-502445
-502535
-502700
-502811
-503023
-503147
-503236
-503397
-503534
-503696
-503770
-503898
-504010
-504097
-504238
-504357
-504435
-504572
-504698
-504769
-504870
-505035
-505166
-505283
-505403
-505507
-505630
-505812
-505908
-506025
-506112
-506186
-506330
-506283
-506460
-506549
-506641
-506752
-506937
-507017
-507109
-507214
-507311
-507370
-507480
-507596
-507709
-507829
-507888
-507958
-508091
-508231
-508361
-508347
-508543
-508590
-508703
-508868
-508931
-509016
-509180
-509225
-509325
-509395
-509538
-509643
-509820
-509929
-510024
-510156
-510149
-510258
-510318
-510306
-510265
-510257
-510178
-509995
-509778
-509578
-509299
-509303
-508561
-507993
-507507
-506888
-506126
-505438
-504615
-503827
-503032
-502120
-501110
-500150
-499116
-498082
-496964
-495842
-494783
-493693
-492560
-491602
-490493
-489455
-488406
-487433
-486444
-485517
-484607
-483693
-482861
-481886
-481080
-480265
-479495
-478708
-478005
-477303
-476644
-476050
-475448
-474718
-474205
-473596
-473141
-472600
-472148
-471630
-471186
-470726
-470335
-469978
-469640
-469338
-468980
-468632
-468345
-468016
-467791
-467547
-467382
-467115
-466920
-466727
-466508
-466392
-466582
-466108
-466051
-465971
-465817
-465745
-465774
-465703
-465592
-465557
-465533
-465590
-465630
-465620
-465604
-465621
-465643
-465745
-465829
-465963
-466034
-466065
-466176
-466320
-466447
-466500
-466603
-466797
-466978
-467139
-467277
-467444
-467663
-467780
-467981
-468141
-468369
-468528
-468713
-468947
-469198
-469477
-469594
-469862
-470141
-470372
-470695
-470955
-471629
-471532
-471718
-471951
-472299
-472642
-472785
-473154
-473365
-473701
-473977
-474231
-474485
-474759
-475042
-475320
-475607
-475834
-476099
-476346
-476507
-476727
-477002
-477169
-477438
-477616
-477832
-477965
-478205
-478385
-478552
-478749
-479217
-479046
-479217
-479336
-479459
-479609
-479741
-479842
-479946
-479954
-480068
-480245
-480283
-480300
-480352
-480434
-480482
-480387
-480540
-480596
-480609
-480696
-480684
-480763
-480749
-480800
-480788
-480804
-480828
-480795
-480885
-480842
-480826
-480874
-480913
-480904
-480902
-480843
-480917
-480880
-480946
-481325
-480962
-481369
-481148
-481081
-481053
-480941
-481113
-481124
-481128
-481154
-481223
-481294
-481223
-481412
-481445
-481430
-481543
-481672
-481677
-481725
-481810
-481833
-481941
-482022
-482083
-482103
-482240
-482319
-482385
-482484
-482474
-482670
-482741
-482864
-482977
-483063
-483230
-483299
-483437
-483497
-483692
-483739
-483918
-484031
-484209
-484280
-484410
-484590
-484685
-484791
-484939
-485065
-485186
-485344
-485562
-485663
-485823
-485756
-486084
-486258
-486361
-486529
-486670
-486871
-486997
-487149
-487211
-487420
-487581
-487665
-487885
-487989
-488168
-488334
-488489
-488646
-489223
-489123
-489080
-489259
-489426
-489640
-489768
-489952
-490138
-490262
-490431
-490616
-490827
-490953
-491099
-491329
-491449
-491587
-491767
-491948
-492008
-492294
-492437
-492565
-492757
-492913
-493062
-493204
-493386
-493580
-493811
-493980
-494031
-494158
-494357
-494596
-494776
-494914
-495040
-495162
-495361
-495519
-495684
-495848
-495985
-496162
-496328
-496520
-496659
-496765
-496918
-497111
-497185
-497411
-497397
-497658
-497761
-497958
-498152
-498265
-498368
-498513
-498566
-498786
-498885
-499085
-499228
-499327
-499473
-499498
-499620
-499780
-499882
-499983
-500173
-500257
-500398
-500441
-500574
-500694
-500736
-500897
-501041
-501104
-501242
-501275
-501390
-501511
-501640
-501696
-501809
-501917
-502068
-502157
-502193
-502308
-502448
-502522
-502560
-502707
-502702
-502842
-502940
-503121
-503150
-503200
-503339
-503423
-503523
-503628
-503787
-503800
-503981
-504404
-504245
-504280
-504305
-504411
-504512
-504653
-504688
-504830
-504930
-505046
-505192
-505244
-505343
-505368
-505541
-505637
-505722
-505768
-505976
-506035
-506066
-506160
-506186
-506249
-506257
-506184
-506041
-506034
-505889
-505617
-505378
-505082
-504759
-504362
-503848
-503296
-502687
-501929
-501239
-500441
-499605
-498699
-497802
-496867
-495854
-494803
-493686
-492651
-491522
-490479
-489329
-488254
-487188
-486144
-485122
-484166
-483348
-482068
-481073
-480201
-479367
-478498
-477603
-476719
-475894
-475177
-474385
-473623
-473035
-472249
-471591
-470985
-470382
-469771
-469289
-468718
-468213
-467803
-467322
-466816
-466396
-466039
-465712
-465299
-464873
-464543
-464281
-463942
-463663
-463420
-463212
-462586
-462593
-462519
-462355
-462221
-462064
-461873
-461714
-461576
-461453
-461481
-461433
-461306
-461267
-461127
-461071
-461073
-461051
-461030
-461049
-461085
-461121
-461175
-461174
-461257
-461318
-461314
-461404
-461560
-461748
-461738
-461852
-462121
-462174
-462270
-462494
-462587
-462754
-462976
-463051
-463307
-463482
-463625
-463842
-464022
-464229
-464450
-464618
-464894
-465124
-465428
-465687
-465981
-466229
-466452
-466749
-467002
-467239
-467504
-467761
-468025
-468359
-468558
-468796
-469063
-469463
-469575
-469839
-470038
-470340
-470521
-470808
-471001
-471224
-471441
-471675
-471835
-472029
-472252
-472451
-472592
-472821
-472939
-473091
-473309
-473437
-473595
-473698
-473784
-473919
-474000
-474154
-474261
-474241
-474408
-474483
-474602
-474629
-474744
-474793
-474795
-474914
-474994
-474992
-475005
-475048
-475076
-475130
-475117
-475126
-475135
-475157
-475154
-475151
-475156
-475146
-475161
-475167
-475137
-475176
-475215
-475219
-475180
-475208
-475214
-475204
-475233
-475269
-475271
-475282
-475299
-475370
-475364
-475142
-475361
-475435
-475427
-475543
-475605
-475669
-475654
-475804
-475834
-475877
-475913
-476013
-475993
-476100
-476183
-476310
-476342
-476471
-476512
-476544
-476728
-476736
-477187
-477086
-477069
-477178
-477534
-477317
-477357
-477350
-477675
-477737
-477910
-478074
-478118
-478298
-478398
-478630
-478608
-478818
-478929
-478911
-479155
-479311
-479437
-479610
-479753
-479860
-480073
-480220
-480280
-480412
-480609
-480720
-480875
-481014
-481131
-481303
-481435
-481651
-481754
-481948
-482101
-482243
-482423
-482571
-482703
-482848
-482997
-483155
-483360
-483537
-483728
-483824
-483947
-484206
-484331
-484525
-484690
-484924
-485082
-485204
-485348
-485581
-485748
-485864
-486231
-486059
-486355
-486490
-486734
-486930
-487100
-487259
-487452
-487584
-487733
-487905
-488049
-488165
-488398
-488492
-488663
-488854
-488967
-489135
-489247
-489434
-489719
-489771
-489984
-490161
-490305
-490457
-490537
-490655
-490808
-491225
-491317
-491473
-491642
-491812
-491911
-492042
-492219
-492339
-492460
-492622
-492727
-492871
-493044
-493143
-493247
-493387
-493507
-493601
-493640
-493796
-493912
-493913
-494137
-494292
-494403
-494523
-494569
-494629
-494798
-494908
-494967
-495129
-495212
-495296
-495429
-495458
-495631
-495653
-495704
-495808
-495917
-496008
-496146
-496138
-496287
-496331
-496380
-496539
-496615
-496675
-496765
-496884
-496932
-496982
-497011
-497151
-497250
-497283
-497415
-497492
-497569
-497601
-497739
-498068
-498044
-498031
-498141
-498311
-498426
-498490
-498554
-498732
-498800
-498832
-498861
-499013
-499123
-499209
-499190
-499328
-499462
-499638
-499675
-499801
-499881
-500042
-500128
-500129
-500205
-500230
-500331
-500243
-500161
-500147
-499989
-499701
-499524
-499233
-498803
-498368
-497952
-497423
-496735
-496154
-495349
-494634
-493842
-492970
-492063
-491064
-490044
-489076
-488074
-486925
-485823
-484772
-483678
-482648
-481492
-480403
-479486
-478518
-477487
-476460
-475403
-474530
-473542
-472588
-471793
-470987
-470180
-469395
-468560
-467826
-467112
-466439
-465799
-465167
-464532
-463953
-463419
-462872
-462310
-461833
-461320
-460884
-460420
-460030
-459634
-459227
-458880
-458547
-458143
-457804
-457539
-457311
-457029
-456805
-456552
-456355
-456068
-455885
-455740
-455627
-455456
-455384
-455272
-455172
-455060
-454956
-454901
-454895
-454806
-454794
-454657
-454654
-454712
-454757
-454678
-454732
-454756
-454715
-454837
-454901
-454925
-455071
-455151
-455169
-455223
-455415
-455462
-455612
-455750
-455931
-455998
-456192
-456319
-456430
-456657
-456831
-457027
-457223
-457415
-457561
-457842
-458061
-458315
-458483
-458732
-458969
-459210
-459502
-459725
-459964
-460205
-460514
-460763
-460979
-461233
-461552
-461760
-461948
-462296
-462528
-462792
-463065
-463324
-463529
-463845
-464102
-464229
-464401
-464770
-464924
-465160
-465393
-465491
-465647
-465940
-466070
-466174
-466426
-466514
-466683
-466820
-466905
-467007
-467138
-467197
-467297
-467395
-467531
-467645
-467726
-467768
-467845
-468044
-467980
-467974
-467940
-467978
-467960
-468099
-468039
-468180
-468116
-468088
-468155
-468129
-468152
-468190
-468119
-468147
-468175
-468134
-468265
-468251
-468231
-468287
-468275
-468292
-468306
-468229
-468294
-468355
-468314
-468390
-468377
-468477
-468450
-468480
-468520
-468519
-468578
-468574
-468647
-468696
-468712
-468760
-468753
-468794
-468847
-469021
-469000
-469045
-469127
-469504
-469378
-469326
-469392
-469570
-469577
-469658
-469726
-469865
-469973
-470026
-470103
-470204
-470353
-470506
-470566
-470677
-470763
-470900
-471012
-471190
-471257
-471324
-471493
-471664
-471780
-471893
-472025
-472168
-472282
-472474
-472543
-472739
-472824
-472935
-473028
-473203
-473426
-473501
-473649
-473919
-474032
-474128
-474228
-474356
-474543
-474700
-474881
-475021
-475154
-475328
-475416
-475665
-475832
-475945
-476063
-476296
-476465
-476562
-476706
-476945
-477090
-477274
-477450
-477581
-477717
-477872
-478042
-478149
-478374
-478606
-478777
-478905
-479080
-479232
-479456
-479610
-479784
-479851
-480147
-480273
-480374
-480660
-480768
-480924
-481027
-481225
-481402
-481582
-481668
-481818
-482017
-482177
-482330
-482434
-482675
-482649
-482869
-483001
-483252
-483349
-483544
-483698
-483835
-483986
-484071
-484209
-484391
-484517
-484660
-484828
-484980
-485150
-485209
-485330
-485464
-485630
-485764
-485915
-486040
-486156
-486209
-486292
-486385
-486598
-486670
-486833
-487024
-487130
-487171
-487220
-487353
-487482
-487589
-487687
-487752
-487898
-488038
-488107
-488153
-488234
-488332
-488480
-488629
-488717
-488793
-488847
-488829
-488943
-489108
-489117
-489241
-489281
-489456
-489535
-489568
-489702
-489745
-489898
-489953
-490042
-490185
-490287
-490425
-490504
-490577
-490625
-490748
-490841
-491014
-491102
-491145
-491253
-491417
-491427
-491527
-491661
-491832
-491936
-492056
-492103
-492199
-492375
-492390
-492499
-492636
-492692
-492861
-492967
-493106
-493197
-493236
-493381
-493530
-493556
-493676
-493731
-493779
-493874
-493885
-493851
-493795
-493756
-493572
-493414
-493178
-492865
-492555
-492137
-491627
-491039
-490401
-489729
-488987
-488200
-487377
-486531
-485649
-484720
-483661
-482640
-481653
-480545
-479486
-478405
-477352
-476189
-475097
-474098
-473148
-472110
-471050
-470090
-469163
-468146
-467266
-466355
-465512
-464692
-463835
-463108
-462340
-461645
-460887
-460210
-459672
-458956
-458412
-457826
-457263
-456743
-456206
-455672
-455186
-454717
-454317
-453854
-453432
-453015
-452670
-452389
-451978
-451712
-451443
-451103
-450881
-450688
-450402
-450188
-449999
-449855
-449653
-449450
-449351
-449228
-449120
-448892
-448834
-448788
-448680
-448609
-448620
-448522
-448559
-448470
-448456
-448448
-448406
-448444
-448712
-448848
-448888
-449011
-448989
-449105
-449182
-449265
-449351
-449552
-449668
-449840
-449932
-450096
-450185
-450418
-450501
-450656
-450945
-451145
-451355
-451532
-451817
-452039
-452177
-452499
-452737
-452999
-453176
-453399
-453768
-453988
-454280
-454550
-454824
-455051
-455323
-455519
-455752
-456023
-456262
-456517
-456794
-456990
-457201
-457388
-457679
-457887
-458214
-458371
-458501
-458691
-458844
-459110
-459197
-459469
-459545
-459761
-459846
-460040
-460164
-460195
-460321
-460479
-460571
-460736
-460674
-460784
-460855
-460895
-460923
-461059
-461112
-461180
-461210
-461229
-461227
-461211
-461285
-461262
-461254
-461234
-461222
-461356
-461357
-461381
-461356
-461287
-461313
-461305
-461262
-461348
-461395
-461291
-461322
-461311
-461337
-461329
-461381
-461322
-461338
-461446
-461425
-461428
-461492
-461450
-461540
-461519
-461569
-461639
-461651
-461686
-461754
-461789
-461857
-461882
-461929
-461893
-461988
-462154
-462185
-462194
-462319
-462434
-462432
-462501
-462578
-462623
-462786
-462826
-462893
-462986
-463137
-463221
-463283
-463439
-463508
-463644
-463696
-463862
-463948
-464034
-464125
-464244
-464360
-464505
-464695
-464800
-464843
-465043
-465171
-465302
-465442
-465550
-465656
-465878
-465955
-466103
-466236
-466428
-466498
-466644
-466803
-466968
-467152
-467314
-467434
-467606
-467735
-467819
-468017
-468168
-468337
-468469
-468581
-468752
-468911
-469057
-469169
-469321
-469547
-469680
-469803
-469999
-470140
-470274
-470436
-470625
-470717
-470871
-470969
-471207
-471358
-471500
-471660
-471875
-471993
-472174
-472324
-472439
-472536
-472659
-472876
-473015
-473203
-473416
-473538
-473697
-473881
-473954
-474136
-474260
-474443
-474607
-474723
-474914
-475086
-475311
-475345
-475529
-475590
-475800
-475979
-476107
-476204
-476413
-476521
-476651
-476773
-476933
-477036
-477465
-477442
-477460
-477618
-477742
-477820
-477982
-478088
-478270
-478387
-478477
-478564
-478703
-478768
-478803
-478956
-479134
-479316
-479365
-479463
-479528
-479631
-479700
-479766
-479854
-479990
-480104
-480225
-480269
-480307
-480447
-480498
-480583
-480646
-480682
-480834
-480907
-480950
-481426
-481233
-481213
-481269
-481303
-481361
-481428
-481550
-481582
-481641
-481726
-481883
-481852
-481949
-482120
-482121
-482260
-482268
-482348
-482449
-482530
-482668
-482785
-482872
-482938
-482930
-483032
-483101
-483186
-483296
-483333
-483386
-483577
-483642
-483721
-483835
-483941
-483977
-484065
-484220
-484265
-484442
-484336
-484546
-484705
-484845
-484882
-484970
-485107
-484961
-485105
-485149
-485128
-485091
-485073
-484938
-484821
-484722
-484416
-484132
-483800
-483461
-482982
-482388
-481679
-481180
-480440
-479746
-478947
-478044
-477147
-476138
-475145
-474186
-473215
-472098
-471107
-469993
-468869
-467876
-466861
-465786
-464885
-463867
-462892
-461775
-460928
-460080
-459200
-458253
-457431
-456649
-455827
-455099
-454361
-453721
-452970
-452285
-451679
-451068
-450432
-449921
-449330
-448877
-448394
-447857
-447457
-446962
-446620
-446249
-445831
-445477
-445141
-444883
-444502
-444248
-443997
-443652
-443428
-443221
-442969
-442760
-442555
-442316
-442323
-442165
-441982
-441881
-441796
-441729
-441633
-441505
-441426
-441427
-441406
-441304
-441347
-441293
-441297
-441292
-441261
-441359
-441428
-441427
-441408
-441494
-441569
-441714
-441728
-441732
-441902
-441923
-442099
-442262
-442317
-442457
-442520
-442667
-442810
-442928
-443120
-443249
-443514
-443567
-443778
-443927
-444214
-444449
-444711
-444865
-445100
-445302
-445598
-445819
-446013
-446335
-446660
-446847
-447105
-447426
-447619
-447878
-448214
-448481
-448702
-448993
-449222
-449461
-449696
-449958
-450138
-450377
-450550
-450754
-450937
-451135
-451402
-451512
-451748
-451859
-452053
-452229
-452382
-452472
-452675
-452753
-452951
-452998
-453107
-453190
-453272
-453356
-453403
-453456
-453463
-453515
-453638
-453660
-453670
-453717
-453709
-453782
-453719
-453717
-453787
-453775
-453754
-453822
-453857
-453816
-453794
-453781
-453820
-453691
-453651
-453773
-453778
-453797
-453751
-453775
-453838
-453815
-453798
-453755
-453817
-453787
-453785
-453792
-453850
-453824
-453813
-453756
-453859
-453909
-453969
-453995
-453988
-454033
-454112
-454136
-454284
-454266
-454325
-454391
-454428
-454503
-454513
-454658
-454603
-454644
-454821
-454913
-454982
-455035
-455132
-455220
-455396
-455459
-455577
-455613
-455744
-455854
-456024
-456122
-456268
-456325
-456374
-456509
-456570
-456740
-456904
-456984
-457161
-457300
-457408
-457507
-457576
-457764
-457879
-458023
-458202
-458298
-458447
-458576
-458756
-458862
-459011
-459147
-459306
-459487
-459558
-459725
-459890
-460052
-460171
-460382
-460508
-460630
-460726
-460847
-461099
-461225
-461252
-461515
-461684
-461906
-462052
-462175
-462283
-462469
-462690
-462633
-462888
-463175
-463278
-463393
-463813
-463766
-463871
-463998
-464169
-464361
-464482
-464735
-464852
-465001
-465185
-465320
-465425
-465573
-465818
-465973
-466063
-466250
-466412
-466564
-466731
-466866
-467040
-467256
-467322
-467450
-467679
-467865
-467999
-468168
-468316
-468421
-468589
-468764
-468861
-469036
-469163
-469263
-469411
-469606
-469733
-469784
-469939
-470108
-470186
-470371
-470515
-470631
-470747
-470850
-471006
-471104
-471236
-471297
-471392
-471597
-471670
-471769
-471882
-472003
-472070
-472194
-472305
-472377
-472542
-472577
-472659
-472810
-472940
-473024
-473137
-473162
-473305
-473361
-473358
-473473
-473645
-473633
-473712
-473812
-473968
-474054
-474144
-474168
-474284
-474364
-474552
-474621
-474960
-474925
-474799
-474945
-475093
-475212
-475302
-475422
-475546
-475557
-475585
-475711
-475859
-475909
-475917
-476018
-476176
-476286
-476352
-476455
-476555
-476608
-476719
-476797
-476966
-477094
-477196
-477238
-477380
-477491
-477638
-477525
-477745
-477864
-477882
-477872
-477874
-477950
-477931
-477846
-477746
-477610
-477388
-477164
-476821
-476446
-475965
-475507
-475051
-474357
-473712
-473013
-472194
-471349
-470536
-469579
-468560
-467664
-466652
-465586
-464516
-463523
-462488
-461476
-460421
-459344
-458361
-457428
-456378
-455434
-454485
-453527
-452675
-451703
-450844
-449978
-449133
-448369
-447614
-446872
-446150
-445459
-444805
-441707
-441144
-440632
-440173
-439626
-439189
-438716
-438227
-437848
-437514
-437093
-436763
-436384
-436043
-435690
-435460
-435221
-434955
-434816
-434425
-434243
-433834
-433726
-433616
-433388
-433261
-433087
-432992
-433115
-433146
-432853
-432608
-432440
-432404
-432411
-432293
-432156
-432150
-432135
-432077
-432075
-432139
-432176
-432198
-432188
-432159
-432244
-432326
-432367
-432326
-432390
-432414
-432518
-432585
-432657
-432853
-432980
-433056
-433115
-433231
-433404
-433482
-433620
-433829
-433992
-434124
-434229
-434441
-434618
-434781
-434977
-435201
-435421
-435715
-435849
-436066
-436313
-436548
-436825
-436995
-437202
-437422
-437666
-437865
-438157
-438445
-438649
-438923
-439128
-439368
-439647
-439866
-440072
-440272
-440457
-440667
-440912
-441062
-441255
-441415
-441608
-441799
-441966
-442118
-442282
-442405
-442512
-442636
-442836
-442922
-443091
-443161
-443288
-443365
-443446
-443541
-443597
-443677
-443742
-443790
-443882
-444269
-444516
-444071
-444002
-444115
-444217
-444269
-444246
-444224
-444269
-444365
-444381
-444362
-444382
-444486
-444209
-444461
-444498
-444563
-444544
-444612
-444621
-444673
-444663
-444709
-444680
-444777
-444855
-444919
-444873
-445010
-444967
-444966
-445053
-445061
-445213
-445185
-445226
-445342
-445361
-445429
-445507
-445567
-445640
-445709
-445823
-445884
-446013
-446051
-446136
-446224
-446322
-446362
-446485
-446600
-446709
-446816
-446912
-447043
-447208
-447335
-447361
-447436
-447558
-447685
-447857
-448063
-448161
-448254
-448379
-448523
-448714
-448738
-448940
-449019
-449193
-449377
-449545
-449641
-449756
-449882
-450045
-450200
-450310
-450576
-450652
-450852
-450931
-451084
-451331
-451486
-451659
-451859
-451902
-452093
-452320
-452548
-452719
-452827
-452954
-453069
-453284
-453470
-453646
-453926
-453970
-454026
-454179
-454388
-454560
-454752
-454831
-455054
-455302
-455472
-455647
-455777
-455984
-456111
-456263
-456398
-456617
-456722
-456845
-457058
-457225
-457442
-457588
-457707
-457909
-458129
-458267
-458407
-458543
-458747
-458910
-459061
-459229
-459277
-459507
-459675
-459806
-459983
-460151
-460338
-460591
-460689
-460816
-460907
-461072
-461293
-461459
-461511
-461729
-461857
-462054
-462218
-462297
-462465
-462640
-462559
-462793
-462930
-463031
-463264
-463432
-463564
-463609
-463729
-463861
-463846
-464084
-464282
-464335
-464435
-464581
-464700
-464812
-464970
-464985
-464964
-465177
-465245
-465383
-465500
-465590
-465712
-465730
-465864
-465931
-466087
-466162
-466292
-466295
-466413
-466519
-466625
-466682
-466808
-466936
-466957
-467075
-467220
-467248
-467308
-467394
-467472
-467602
-467693
-467707
-467936
-467977
-468045
-468175
-468342
-468431
-468401
-468493
-468653
-468783
-468802
-469014
-469085
-469518
-469373
-469449
-469534
-469677
-469742
-469795
-469898
-470026
-470116
-470213
-470339
-470405
-470581
-470518
-470710
-470925
-471046
-471112
-471209
-471263
-471359
-471297
-471285
-471302
-471264
-471155
-471033
-470829
-470643
-470284
-469881
-469811
-469089
-468515
-467957
-467252
-466500
-465700
-464909
-464020
-463028
-462171
-461084
-460176
-459131
-458027
-456992
-455967
-454990
-453956
-452868
-451801
-450835
-449779
-448863
-447952
-447016
-446109
-445196
-444315
-443526
-442789
-441935
-441139
-440423
-439708
-438945
-438250
-437671
-437105
-436472
-435836
-435277
-434815
-434280
-433741
-433258
-432826
-432437
-431998
-431620
-431107
-430750
-430369
-430061
-429782
-429487
-429302
-428937
-428688
-428443
-428176
-427925
-427682
-427601
-427378
-427207
-427011
-426937
-426770
-426669
-426548
-426347
-426368
-426221
-426111
-426131
-426092
-426016
-425987
-425961
-425943
-425902
-425843
-425901
-425954
-425909
-425948
-426017
-425980
-426105
-426149
-426211
-426244
-426292
-426450
-426530
-426585
-426617
-426787
-426886
-427043
-427222
-427313
-427412
