PPG
-1054589
-1054892
-1055079
-1055208
-1055366
-1055429
-1055626
-1055496
-1055961
-1056151
-1056364
-1056527
-1056585
-1056721
-1056786
-1056906
-1057042
-1057204
-1057370
-1057608
-1057831
-1057919
-1058028
-1058207
-1058461
-1058347
-1058575
-1058741
-1059074
-1059298
-1059393
-1059601
-1059712
-1060089
-1060267
-1060578
-1060844
-1061019
-1061290
-1061607
-1061979
-1062316
-1062511
-1062671
-1062913
-1063400
-1063703
-1063941
-1064263
-1064544
-1064735
-1064941
-1065157
-1065218
-1065182
-1065427
-1065357
-1065648
-1065679
-1065854
-1066025
-1066199
-1066229
-1066283
-1066492
-1066699
-1066911
-1066955
-1067106
-1067179
-1067478
-1067482
-1067677
-1067756
-1067990
-1068065
-1068245
-1068412
-1068481
-1068656
-1068733
-1068636
-1068746
-1068941
-1069076
-1069181
-1069370
-1069467
-1069710
-1069773
-1070083
-1070240
-1070290
-1070569
-1070827
-1071113
-1071253
-1071371
-1071428
-1071703
-1071911
-1071927
-1072142
-1072382
-1072452
-1072535
-1072623
-1072807
-1072919
-1072928
-1073040
-1073242
-1073279
-1073476
-1073629
-1073680
-1073900
-1073989
-1074044
-1074070
-1074077
-1074114
-1074241
-1074321
-1074404
-1074705
-1074749
-1074852
-1074944
-1075054
-1075282
-1075322
-1075383
-1075532
-1075729
-1075763
-1075683
-1075847
-1075933
-1076134
-1076172
-1076310
-1076072
-1076480
-1076584
-1076833
-1076975
-1077232
-1077299
-1077560
-1077740
-1078019
-1078111
-1078382
-1078509
-1078698
-1078884
-1079053
-1079110
-1079399
-1079445
-1079574
-1079779
-1079839
-1080031
-1080164
-1080392
-1080383
-1080482
-1080469
-1080499
-1080610
-1080734
-1080802
-1080862
-1081070
-1081203
-1081282
-1081234
-1081394
-1081433
-1081375
-1081570
-1081670
-1081723
-1081792
-1081971
-1082150
-1082243
-1082377
-1082501
-1082417
-1082339
-1082336
-1082572
-1082570
-1082596
-1082746
-1082761
-1082690
-1082804
-1082929
-1082794
-1082889
-1082981
-1083165
-1083233
-1083219
-1083320
-1083463
-1083562
-1083662
-1083920
-1083973
-1084162
-1084281
-1084535
-1084581
-1084813
-1084957
-1085209
-1085516
-1085625
-1085704
-1085983
-1086039
-1086294
-1086448
-1086480
-1086509
-1086609
-1086620
-1086678
-1086733
-1086670
-1086781
-1086797
-1086841
-1086892
-1086866
-1086959
-1087008
-1087092
-1086985
-1087174
-1087101
-1087212
-1087190
-1087127
-1087159
-1087337
-1087428
-1087388
-1087536
-1087600
-1087566
-1087624
-1087729
-1087576
-1087673
-1087687
-1087817
-1087725
-1087824
-1087884
-1088113
-1088114
-1088238
-1088277
-1088443
-1088376
-1088564
-1088631
-1088804
-1088870
-1088922
-1089093
-1089211
-1089514
-1089491
-1089581
-1089702
-1089892
-1090007
-1090063
-1090248
-1090228
-1090407
-1090660
-1090712
-1090744
-1090814
-1090948
-1091183
-1091262
-1091325
-1091437
-1091468
-1091405
-1091415
-1091498
-1091346
-1091380
-1091378
-1091389
-1091454
-1091423
-1091404
-1091476
-1091499
-1091458
-1091503
-1091588
-1091602
-1091610
-1092343
-1091898
-1091926
-1091901
-1092042
-1092077
-1092200
-1092380
-1092714
-1092716
-1092892
-1092972
-1093182
-1093081
-1093235
-1093356
-1093502
-1093677
-1093702
-1093712
-1093646
-1093692
-1093775
-1093804
-1093877
-1093949
-1094045
-1093982
-1093960
-1093915
-1093994
-1094024
-1094030
-1094134
-1094185
-1094451
-1094496
-1094508
-1094484
-1094518
-1094388
-1094475
-1094479
-1094584
-1094705
-1094825
-1094832
-1095017
-1095176
-1095054
-1095153
-1095175
-1095264
-1095173
-1095267
-1095485
-1095471
-1095766
-1095712
-1095728
-1095755
-1095662
-1095850
-1095792
-1095888
-1096077
-1096013
-1096043
-1096109
-1096142
-1096258
-1096266
-1096303
-1096513
-1096591
-1096559
-1096596
-1096702
-1096684
-1096765
-1096801
-1096837
-1097019
-1097058
-1097133
-1097222
-1097287
-1097385
-1097367
-1097522
-1097515
-1097534
-1097594
-1097682
-1097799
-1097672
-1097775
-1097942
-1097908
-1097914
-1097954
-1097933
-1098031
-1098145
-1098264
-1098347
-1098169
-1098212
-1098398
-1098497
-1098512
-1098478
-1098512
-1098642
-1098605
-1098719
-1098838
-1098878
-1098785
-1098931
-1098966
-1099032
-1099034
-1099170
-1099239
-1099178
-1099350
-1099269
-1099362
-1099353
-1099443
-1099508
-1099443
-1099578
-1099678
-1099567
-1099632
-1099727
-1099838
-1099837
-1099811
-1099835
-1099973
-1099993
-1100219
-1100279
-1100263
-1100170
-1100230
-1100374
-1100365
-1100472
-1100569
-1100446
-1100591
-1100498
-1100652
-1100681
-1100635
-1100532
-1100559
-1100310
-1100456
-1100421
-1100392
-1100478
-1100367
-1100327
-1100303
-1099939
-1100014
-1100012
-1100071
-1099987
-1100072
-1099867
-1099835
-1099910
-1099819
-1099696
-1099776
-1099655
-1099665
-1099553
-1099695
-1099544
-1099535
-1099529
-1099361
-1099323
-1099393
-1099331
-1099306
-1099374
-1099313
-1099280
-1099120
-1098881
-1098381
-1098318
-1098055
-1097799
-1097723
-1097647
-1097696
-1097536
-1097178
-1097323
-1097262
-1097368
-1097376
-1097361
-1097298
-1097382
-1097248
-1097266
-1097375
-1097313
-1097289
-1097368
-1097430
-1097452
-1097572
-1097568
-1097576
-1097606
-1097532
-1097688
-1097777
-1097826
-1097838
-1097698
-1097763
-1097832
-1097772
-1097770
-1097617
-1097739
-1097799
-1097723
-1097796
-1097740
-1097884
-1097881
-1097790
-1097861
-1097991
-1097861
-1097913
-1097845
-1097961
-1098033
-1097894
-1098030
-1098062
-1098064
-1098128
-1098298
-1098269
-1098436
-1098406
-1098456
-1098633
-1098814
-1098836
-1099001
-1099104
-1098992
-1099098
-1099163
-1099351
-1099337
-1099521
-1099583
-1099640
-1099583
-1099763
-1099619
-1099644
-1099699
-1099849
-1099851
-1099910
-1099905
-1099912
-1100000
-1099943
-1100025
-1099987
-1100023
-1100081
-1100060
-1100096
-1100250
-1100205
-1100294
-1100300
-1100437
-1100407
-1100364
-1100521
-1100457
-1100525
-1100590
-1100555
-1100604
-1100715
-1100891
-1100824
-1100813
-1100835
-1100941
-1100938
-1100966
-1101103
-1101170
-1101237
-1101299
-1101403
-1102282
-1101657
-1101438
-1101406
-1101591
-1101733
-1101742
-1101648
-1101711
-1101602
-1101747
-1101757
-1101759
-1101799
-1101960
-1102018
-1101948
-1102080
-1102166
-1101979
-1102095
-1102119
-1102227
-1102365
-1102444
-1102409
-1102408
-1102488
-1102573
-1102534
-1102567
-1102703
-1102803
-1102681
-1102793
-1102740
-1102729
-1102852
-1102881
-1102817
-1102776
-1102839
-1102813
-1102984
-1102945
-1103065
-1103217
-1103115
-1103050
-1103124
-1103250
-1103333
-1103400
-1103486
-1103595
-1103694
-1103674
-1103803
-1103808
-1104548
-1104091
-1103865
-1103750
-1103882
-1103928
-1103972
-1103921
-1103837
-1103983
-1104047
-1104095
-1104109
-1104033
-1104008
-1104136
-1104192
-1104212
-1104118
-1104218
-1104344
-1104365
-1104459
-1104559
-1104617
-1104644
-1104681
-1104665
-1104728
-1104998
-1104921
-1105125
-1105155
-1105147
-1105242
-1105233
-1105288
-1105284
-1105343
-1105467
-1105600
-1105475
-1105542
-1105538
-1105559
-1105694
-1105674
-1105588
-1105728
-1105777
-1105794
-1105844
-1105884
-1105903
-1105918
-1105817
-1105855
-1105822
-1105927
-1105986
-1106054
-1106149
-1106184
-1106262
-1106157
-1106094
-1106083
-1106096
-1106256
-1106357
-1106383
-1106563
-1106449
-1106481
-1106602
-1106517
-1106549
-1106266
-1106448
-1106626
-1106627
-1106690
-1106906
-1106908
-1106971
-1106933
-1107878
-1107328
-1107077
-1106539
-1107104
-1107139
-1107165
-1107288
-1106972
-1107249
-1107379
-1107300
-1107422
-1107354
-1107411
-1107471
-1107527
-1107458
-1107296
-1107597
-1107639
-1107636
-1107837
-1107852
-1107597
-1107795
-1107818
-1107827
-1107941
-1108034
-1108061
-1108025
-1108112
-1108263
-1108370
-1108404
-1108290
-1108302
-1108280
-1108362
-1108462
-1108393
-1108560
-1108491
-1108538
-1108579
-1108534
-1108619
-1108691
-1108718
-1108764
-1108661
-1108630
-1108756
-1108817
-1108783
-1108743
-1108836
-1108906
-1108881
-1108880
-1109277
-1109204
-1109355
-1109468
-1109516
-1109433
-1109547
-1109560
-1109509
-1109740
-1109601
-1109639
-1109739
-1109733
-1109962
-1109901
-1109887
-1109886
-1109981
-1110113
-1110184
-1110135
-1110143
-1110215
-1110099
-1110201
-1110249
-1110301
-1110171
-1110301
-1110191
-1110222
-1110403
-1110309
-1110340
-1110406
-1110319
-1110320
-1110328
-1110432
-1110361
-1110417
-1110486
-1110349
-1110422
-1110473
-1110355
-1110501
-1110499
-1110427
-1110293
-1110333
-1110444
-1110519
-1110492
-1110966
-1110606
-1110604
-1110557
-1110551
-1110508
-1110518
-1110523
-1110396
-1110495
-1110344
-1110215
-1110168
-1110060
-1110042
-1109942
-1109798
-1109852
-1109682
-1109615
-1109647
-1109524
-1109452
-1109246
-1109149
-1109040
-1108913
-1108729
-1108829
-1108698
-1108614
-1108557
-1108441
-1108426
-1108440
-1108271
-1108288
-1108117
-1108090
-1107971
-1108012
-1107929
-1107842
-1107808
-1107646
-1107514
-1107619
-1107449
-1107534
-1107415
-1107318
-1107320
-1107313
-1107256
-1107016
-1107022
-1106882
-1107026
-1106987
-1106990
-1107058
-1106922
-1106909
-1106767
-1106808
-1106786
-1106755
-1106733
-1106589
-1106732
-1106688
-1106597
-1106510
-1106479
-1106474
-1106388
-1106413
-1106332
-1106446
-1106395
-1106418
-1106373
-1106274
-1106310
-1106327
-1106302
-1106258
-1106214
-1106166
-1106164
-1106148
-1106168
-1106213
-1106170
-1106214
-1106063
-1106046
-1106069
-1106162
-1106080
-1106005
-1106129
-1105929
-1105881
-1105993
-1105842
-1105896
-1105923
-1105903
-1105988
-1105845
-1105827
-1105841
-1105756
-1105716
-1105789
-1105798
-1105711
-1105769
-1105797
-1105793
-1105868
-1106073
-1106029
-1105698
-1105928
-1106088
-1106125
-1106298
-1106299
-1106301
-1106394
-1106569
-1106508
-1106644
-1106777
-1106752
-1106823
-1106940
-1107059
-1107077
-1107106
-1107227
-1107170
-1107316
-1107472
-1107443
-1107507
-1107582
-1107583
-1107597
-1107511
-1107690
-1107413
-1107630
-1107530
-1107656
-1107663
-1107637
-1107640
-1107557
-1107631
-1107707
-1107626
-1107685
-1107584
-1107766
-1107917
-1107869
-1107996
-1107995
-1108083
-1108100
-1108133
-1108148
-1108144
-1108175
-1108149
-1108132
-1108198
-1108302
-1108307
-1108376
-1108407
-1108409
-1108368
-1108400
-1108104
-1108374
-1108557
-1108487
-1108559
-1109378
-1108834
-1108619
-1108687
-1108571
-1108616
-1108733
-1108741
-1108825
-1108866
-1108953
-1109040
-1108874
-1108931
-1109151
-1109194
-1109294
-1109437
-1109473
-1109596
-1109491
-1109936
-1110039
-1109973
-1110227
-1110181
-1110217
-1110127
-1110240
-1110265
-1110310
-1110188
-1110283
-1110267
-1110268
-1110277
-1110534
-1110418
-1110636
-1110635
-1110629
-1110713
-1110806
-1110895
-1110981
-1111007
-1111131
-1111208
-1111282
-1111341
-1111277
-1111302
-1111365
-1111357
-1111477
-1111429
-1111424
-1111503
-1111520
-1111573
-1111492
-1111617
-1111545
-1111470
-1111540
-1111568
-1111528
-1111606
-1111454
-1111582
-1111488
-1111455
-1111496
-1111442
-1111437
-1111735
-1111666
-1111690
-1111784
-1111870
-1111916
-1111956
-1112083
-1112053
-1112160
-1112365
-1112457
-1112482
-1112380
-1112367
-1112564
-1112498
-1112483
-1112581
-1112671
-1112656
-1112581
-1112586
-1112587
-1112718
-1112870
-1112793
-1112830
-1112879
-1112838
-1112795
-1112708
-1112699
-1112930
-1112905
-1113010
-1112973
-1112942
-1112984
-1113007
-1113069
-1113052
-1113238
-1113210
-1113192
-1113369
-1113439
-1113386
-1113328
-1113326
-1113356
-1113364
-1113493
-1113398
-1113458
-1113586
-1113697
-1113623
-1113734
-1113636
-1113840
-1113648
-1113762
-1113840
-1113809
-1113786
-1113938
-1113822
-1113844
-1113899
-1113997
-1114038
-1114145
-1114147
-1114120
-1114322
-1114276
-1114377
-1114413
-1114342
-1114407
-1114420
-1114474
-1114502
-1114593
-1114499
-1114612
-1114562
-1114552
-1114679
-1114634
-1114690
-1114636
-1114643
-1114737
-1114787
-1114503
-1114791
-1114809
-1114631
-1114768
-1114512
-1114860
-1115009
-1115103
-1115070
-1115188
-1115175
-1115120
-1115151
-1115314
-1115213
-1115194
-1115352
-1115496
-1115490
-1115395
-1115110
-1115474
-1115618
-1115606
-1115488
-1115571
-1115546
-1115661
-1115603
-1115595
-1115635
-1115610
-1115638
-1115708
-1115602
-1115631
-1115685
-1115806
-1115902
-1115948
-1115955
-1115938
-1115912
-1115899
-1115948
-1115997
-1115987
-1116048
-1116197
-1116165
-1116158
-1116342
-1116365
-1116456
-1116482
-1116499
-1116420
-1116578
-1116577
-1116638
-1116616
-1116746
-1116843
-1116785
-1116851
-1116954
-1117070
-1117035
-1117023
-1117208
-1117164
-1117130
-1117158
-1117246
-1117053
-1117107
-1117067
-1116984
-1117145
-1117060
-1116940
-1117059
-1117028
-1116947
-1116835
-1116793
-1116615
-1116572
-1116482
-1116530
-1116529
-1116387
-1116319
-1116173
-1115974
-1115880
-1115785
-1115662
-1115637
-1115447
-1115367
-1115446
-1115313
-1115249
-1115112
-1115054
-1114734
-1114761
-1114677
-1114713
-1114712
-1114552
-1114444
-1114410
-1114275
-1114085
-1113955
-1113954
-1113932
-1113820
-1113743
-1113536
-1113595
-1113579
-1113272
-1113288
-1113329
-1113343
-1113197
-1113189
-1113075
-1112988
-1112828
-1112913
-1112816
-1112846
-1112750
-1112724
-1112620
-1112492
-1112560
-1112442
-1112476
-1112277
-1112212
-1112157
-1112246
-1112278
-1112155
-1112009
-1111906
-1111816
-1111862
-1111822
-1111770
-1111848
-1111785
-1111721
-1111676
-1111662
-1111688
-1111615
-1111428
-1111344
-1111394
-1111536
-1111548
-1111414
-1111372
-1111283
-1111329
-1111230
-1111318
-1111301
-1111261
-1111250
-1111207
-1111113
-1111056
-1111033
-1111078
-1111026
-1111005
-1110965
-1110890
-1110954
-1110889
-1110958
-1110903
-1111007
-1110942
-1110914
-1110873
-1111055
-1111018
-1111009
-1111042
-1111115
-1111202
-1111201
-1111230
-1111320
-1111337
-1111519
-1111516
-1111553
-1111716
-1111665
-1111823
-1111609
-1111788
-1111924
-1111943
-1111858
-1111887
-1111872
-1111898
-1111983
-1112035
-1111935
-1111897
-1111797
-1111841
-1111887
-1111890
-1111906
-1112012
-1111946
-1111935
-1112077
-1112051
-1112038
-1112041
-1112093
-1112167
-1112195
-1112236
-1112355
-1112334
-1112476
-1112524
-1112514
-1112597
-1112669
-1112842
-1112898
-1112833
-1112970
-1112954
-1113009
-1113030
-1112997
-1113061
-1113094
-1113124
-1113252
-1113184
-1113262
-1113298
-1113166
-1113230
-1113211
-1113195
-1113219
-1113186
-1113221
-1113053
-1113051
-1113134
-1113057
-1113061
-1113110
-1113160
-1113123
-1113263
-1113149
-1113206
-1113264
-1113303
-1113321
-1113301
-1113454
-1113511
-1114263
-1113928
-1113777
-1113697
-1113740
-1113778
-1113769
-1113806
-1113766
-1113903
-1113963
-1114121
-1114090
-1114174
-1113982
-1114083
-1113982
-1114097
-1113991
-1114196
-1114132
-1114158
-1114276
-1114263
-1114289
-1114309
-1114302
-1114381
-1114270
-1114374
-1114284
-1114372
-1114400
-1114410
-1114526
-1114435
-1114442
-1114425
-1114587
-1114647
-1114629
-1114627
-1114681
-1114619
-1114685
-1114722
-1114639
-1114733
-1114790
-1114926
-1114951
-1114926
-1114946
-1114927
-1115086
-1115064
-1115102
-1115195
-1115283
-1115192
-1115184
-1115241
-1115308
-1115311
-1115295
-1115379
-1115337
-1115371
-1115343
-1115277
-1115432
-1115490
-1115412
-1115446
-1115547
-1115549
-1115484
-1115497
-1115468
-1115548
-1115641
-1115572
-1115676
-1115736
-1115717
-1115754
-1115676
-1115733
-1115790
-1115901
-1115870
-1115850
-1115941
-1115946
-1115926
-1115980
-1116031
-1116029
-1116043
-1115922
-1116158
-1116202
-1116272
-1116245
-1116318
-1116179
-1116153
-1116307
-1116287
-1116394
-1116352
-1116411
-1116484
-1116557
-1116565
-1116532
-1116652
-1116580
-1116609
-1116740
-1116738
-1116702
-1116888
-1116887
-1116852
-1116921
-1116872
-1116921
-1116783
-1116814
-1116971
-1117007
-1117014
-1116885
-1117047
-1116979
-1116925
-1117040
-1117071
-1117144
-1116919
-1117077
-1117010
-1117219
-1117210
-1117232
-1117289
-1117157
-1117305
-1117340
-1117497
-1117448
-1117537
-1117521
-1117621
-1117631
-1117521
-1117673
-1117707
-1117580
-1117691
-1117715
-1117771
-1117804
-1117753
-1117730
-1117847
-1117900
-1117884
-1117923
-1117824
-1117971
-1117919
-1117957
-1117915
-1118797
-1118227
-1118174
-1118191
-1118154
-1118242
-1118322
-1118161
-1118264
-1118215
-1118375
-1118398
-1118330
-1118318
-1118327
-1118417
-1118391
-1118456
-1118567
-1118583
-1118602
-1118504
-1118589
-1118503
-1118552
-1118539
-1118652
-1118569
-1118663
-1118578
-1118790
-1118788
-1118692
-1118847
-1118831
-1118789
-1118877
-1118873
-1118984
-1119068
-1119051
-1119002
-1119083
-1119147
-1119013
-1119072
-1119073
-1119159
-1119220
-1119306
-1119331
-1119378
-1119345
-1119445
-1119433
-1119465
-1119345
-1119467
-1119465
-1119444
-1119582
-1119553
-1119592
-1119561
-1119603
-1119622
-1119529
-1119580
-1119594
-1119625
-1119724
-1119808
-1119715
-1119757
-1119785
-1119767
-1119931
-1119994
-1120011
-1119963
-1119886
-1119938
-1120025
-1120116
-1120105
-1120010
-1120641
-1120243
-1120359
-1120090
-1119973
-1120069
-1120010
-1120018
-1119993
-1120030
-1119917
-1119923
-1119838
-1119658
-1119684
-1119741
-1119581
-1119552
-1119523
-1119552
-1119467
-1119370
-1119406
-1119265
-1119130
-1119143
-1119225
-1118996
-1118950
-1118952
-1118741
-1118656
-1118711
-1118604
-1118591
-1118444
-1118233
-1118298
-1118223
-1118190
-1118013
-1117816
-1117769
-1117676
-1117625
-1117543
-1117466
-1117450
-1117425
-1117303
-1117197
-1117088
-1116966
-1116889
-1116809
-1116617
-1116715
-1116600
-1116549
-1116529
-1116573
-1116286
-1116383
-1116126
-1115999
-1116160
-1116170
-1116042
-1115973
-1115863
-1115945
-1115901
-1115815
-1115737
-1115692
-1115766
-1115789
-1115759
-1115688
-1115650
-1115533
-1115455
-1115470
-1115364
-1115452
-1115527
-1115318
-1115383
-1115266
-1115249
-1115093
-1114836
-1114951
-1114977
-1115141
-1115004
-1115103
-1115104
-1115161
-1115019
-1114974
-1114939
-1115054
-1115026
-1115061
-1114987
-1114968
-1114954
-1114642
-1114634
-1114735
-1114619
-1114769
-1114915
-1115145
-1115352
-1115826
-1115958
-1116017
-1116803
-1116918
-1117016
-1116964
-1117032
-1116981
-1117060
-1116994
-1117017
-1117045
-1116966
-1117187
-1117220
-1117172
-1117043
-1117048
-1117186
-1116787
-1117105
-1117253
-1117240
-1117297
-1117368
-1117438
-1117365
-1117435
-1117476
-1117360
-1117501
-1117573
-1117579
-1117632
-1117601
-1117785
-1117880
-1117830
-1117837
-1117974
-1117834
-1118010
-1118005
-1118083
-1118146
-1118185
-1118171
-1118215
-1118122
-1118167
-1118122
-1118203
-1118170
-1118277
-1118220
-1118180
-1118357
-1118358
-1118387
-1118287
-1118402
-1118499
-1118414
-1118431
-1118463
-1118383
-1118509
-1118399
-1118099
-1118346
-1118305
-1118287
-1118324
-1118323
-1118446
-1118400
-1118386
-1118549
-1118555
-1118673
-1118691
-1118772
-1118728
-1118864
-1118939
-1118879
-1118915
-1118908
-1118936
-1118926
-1119112
-1119155
-1119257
-1119180
-1119262
-1119257
-1119377
-1119344
-1119301
-1119355
-1119511
-1119565
-1119564
-1119655
-1119534
-1119599
-1119547
-1119541
-1119549
-1119611
-1119686
-1119730
-1119634
-1119789
-1119744
-1119647
-1119743
-1119664
-1119811
-1119771
-1119867
-1119880
-1119818
-1119884
-1119926
-1119646
-1119860
-1120844
-1120136
-1119948
-1119990
-1119867
-1120013
-1119968
-1120096
-1120094
-1120044
-1120038
-1120104
-1120147
-1120189
-1120910
-1120531
-1120473
-1120110
-1120332
-1120409
-1120514
-1120289
-1120386
-1120414
-1120678
-1120611
-1120636
-1120495
-1120528
-1120560
-1120711
-1120380
-1120700
-1120712
-1120928
-1120916
-1120962
-1120864
-1120904
-1121084
-1120926
-1121013
-1120992
-1120946
-1121036
-1121011
-1121143
-1121089
-1121118
-1121057
-1121111
-1121104
-1121105
-1121125
-1121293
-1121248
-1121355
-1121267
-1121469
-1121370
-1121454
-1121364
-1121463
-1121604
-1121442
-1121501
-1121514
-1121629
-1121571
-1121589
-1121538
-1121615
-1121512
-1121558
-1121674
-1121642
-1121728
-1121639
-1121645
-1121681
-1121730
-1121658
-1121646
-1121761
-1121853
-1122673
-1122070
-1121901
-1121834
-1121864
-1121871
-1121863
-1121917
-1122008
-1122017
-1122096
-1122166
-1122237
-1122104
-1122194
-1122247
-1122211
-1122187
-1122200
-1122318
-1122303
-1122352
-1122331
-1122334
-1122355
-1122303
-1122350
-1122276
-1122334
-1122484
-1122505
-1122638
-1122563
-1122587
-1122647
-1122727
-1122704
-1122755
-1122860
-1122774
-1122681
-1122822
-1122795
-1122736
-1122680
-1122758
-1122969
-1122811
-1122983
-1122908
-1122850
-1122859
-1122885
-1122995
-1122858
-1122901
-1122948
-1122898
-1122994
-1122957
-1122914
-1122928
-1122941
-1123010
-1122902
-1122839
-1122938
-1122969
-1122866
-1122953
-1122784
-1122842
-1122828
-1122810
-1122649
-1122637
-1122504
-1122476
-1122391
-1122292
-1122084
-1122091
-1121954
-1121883
-1121860
-1121786
-1121754
-1121740
-1121601
-1121491
-1121417
-1121331
-1121205
-1121179
-1120974
-1120888
-1120737
-1120719
-1120739
-1120553
-1120350
-1120249
-1120102
-1120157
-1120140
-1119912
-1119889
-1119751
-1119721
-1119694
-1119582
-1119625
-1119545
-1119408
-1119249
-1119161
-1119059
-1119080
-1119039
-1118984
-1118999
-1118965
-1118938
-1118456
-1118759
-1118639
-1118679
-1118682
-1118584
-1118543
-1118385
-1118356
-1118320
-1118255
-1118109
-1118022
-1117870
-1117852
-1117717
-1117635
-1117594
-1117568
-1117556
-1117305
-1117339
-1117275
-1117324
-1117390
-1117367
-1117297
-1117413
-1117397
-1117310
-1117315
-1117253
-1116801
-1117175
-1117113
-1117257
-1117362
-1117315
-1117222
-1117205
-1117243
-1117160
-1117150
-1117123
-1117163
-1117148
-1117242
-1117140
-1117153
-1117068
-1117131
-1117069
-1116994
-1117093
-1117087
-1117031
-1117103
-1117111
-1116917
-1116950
-1117038
-1116897
-1116799
-1116974
-1116915
-1117051
-1117073
-1117006
-1117158
-1117206
-1117198
-1117256
-1117182
-1117233
-1117435
-1117486
-1117508
-1117580
-1117565
-1117757
-1117726
-1117775
-1117875
-1117755
-1117772
-1117960
-1118028
-1118009
-1117803
-1118114
-1118075
-1118054
-1118122
-1118117
-1118095
-1118003
-1117907
-1117810
-1117845
-1117840
-1117825
-1117789
-1117812
-1117784
-1117862
-1117758
-1117752
-1117964
-1117990
-1118025
-1118033
-1118186
-1118098
-1118217
-1118274
-1118355
-1118349
-1118527
-1118544
-1118611
-1118792
-1118710
-1118765
-1118613
-1118642
-1118692
-1118584
-1118657
-1118695
-1118705
-1118640
-1118619
-1118564
-1118690
-1118562
-1118587
-1118624
-1118610
-1118702
-1118674
-1118742
-1118631
-1118719
-1118640
-1118734
-1118881
-1118945
-1118915
-1119017
-1118892
-1119065
-1119055
-1118998
-1119090
-1119219
-1119246
-1119268
-1119296
-1119509
-1119359
-1119450
-1119421
-1119440
-1119461
-1119349
-1119397
-1119463
-1119409
-1119432
-1119507
-1119523
-1119443
-1119396
-1119348
-1119459
-1119472
-1119405
-1119502
-1119381
-1119580
-1119712
-1119758
-1119781
-1119829
-1119813
-1119889
-1120003
-1120065
-1120090
-1120063
-1119958
-1119995
-1120025
-1119875
-1119906
-1119987
-1120042
-1120127
-1120170
-1120287
-1120364
-1120194
-1120138
-1120281
-1120148
-1120207
-1120236
-1120382
-1120301
-1120232
-1120245
-1120343
-1120415
-1120355
-1120341
-1120351
-1120449
-1120503
-1120465
-1120351
-1120378
-1120371
-1120511
-1120462
-1120489
-1120519
-1120604
-1120677
-1120621
-1120617
-1120709
-1120686
-1120666
-1120850
-1120946
-1120920
-1120821
-1120985
-1120918
-1120979
-1120970
-1120989
-1121093
-1120963
-1121033
-1121103
-1121197
-1121157
-1121280
-1121303
-1121262
-1121314
-1121456
-1121384
-1121446
-1121359
-1121372
-1121366
-1121456
-1121392
-1121416
-1121249
-1121456
-1121426
-1121334
-1121416
-1121365
-1121337
-1121399
-1121493
-1121401
-1121347
-1121334
-1121409
-1121578
-1121644
-1121760
-1121731
-1121624
-1121750
-1121739
-1121722
-1121873
-1121810
-1121876
-1121988
-1121934
-1121979
-1122121
-1122058
-1122073
-1122044
-1122057
-1122128
-1122061
-1122052
-1122045
-1122078
-1122219
-1122079
-1122089
-1122128
-1122247
-1122111
-1122225
-1122271
-1122236
-1122344
-1122252
-1122223
-1122379
-1122320
-1122278
-1122372
-1122437
-1122436
-1122548
-1122470
-1122521
-1122386
-1122475
-1122561
-1122618
-1122703
-1122638
-1122672
-1122695
-1122743
-1122696
-1122782
-1122719
-1122682
-1122815
-1122951
-1122842
-1122943
-1122908
-1123017
-1122959
-1123046
-1123150
-1123168
-1123212
-1123231
-1123258
-1123405
-1123439
-1123436
-1123433
-1123317
-1123454
-1123582
-1123565
-1123528
-1123580
-1123631
-1123602
-1123686
-1123590
-1123562
-1123473
-1123625
-1123499
-1123663
-1123592
-1123441
-1123510
-1123337
-1123401
-1123205
-1123173
-1123250
-1123075
-1122996
-1122957
-1122935
-1122853
-1122831
-1122818
-1122727
-1122735
-1122684
-1122746
-1122593
-1122518
-1122632
-1122625
-1122541
-1122468
-1122422
-1122361
-1122243
-1122295
-1122226
-1122110
-1122203
-1122166
-1121953
-1121810
-1121754
-1121808
-1121850
-1121613
-1121669
-1121656
-1121436
-1121493
-1121268
-1121082
-1120978
-1120894
-1120994
-1120955
-1120877
-1120751
-1120699
-1120626
-1120475
-1120463
-1120324
-1120242
-1120182
-1120043
-1119905
-1119943
-1119812
-1119777
-1119734
-1119717
-1119619
-1119368
-1119385
-1119263
-1119169
-1119241
-1119238
-1119157
-1119033
-1118998
-1119064
-1119007
-1118993
-1118950
-1118624
-1118888
-1118824
-1118840
-1118760
-1118816
-1118814
-1118792
-1118672
-1118691
-1118763
-1118778
-1118638
-1118771
-1118576
-1118623
-1118689
-1118652
-1118515
-1118523
-1118511
-1118561
-1118488
-1118495
-1118364
-1118277
-1118341
-1118276
-1118208
-1118250
-1118159
-1117949
-1118077
-1118144
-1118020
-1118000
-1118024
-1118013
-1118041
-1118109
-1118090
-1117982
-1117905
-1118048
-1118006
-1118064
-1117950
-1118046
-1118067
-1118094
-1118108
-1118243
-1118108
-1118306
-1118122
-1118261
-1118378
-1118323
-1118327
-1118412
-1119339
-1118780
-1118591
-1118655
-1118626
-1118637
-1118614
-1118757
-1118801
-1118800
-1118867
-1118775
-1118969
-1119016
-1119005
-1118897
-1119086
-1119031
-1119051
-1119071
-1119198
-1119216
-1119285
-1119147
-1119241
-1119280
-1119189
-1119982
-1119541
-1119467
-1119456
-1119564
-1119490
-1119484
-1119473
-1119880
-1119610
-1119707
-1119681
-1119746
-1119796
-1119846
-1119764
-1119677
-1119800
-1119738
-1119828
-1119754
-1119912
-1119935
-1119847
-1119982
-1119889
-1120011
-1119864
-1119953
-1119894
-1120040
-1119996
-1119992
-1119868
-1120092
-1120204
-1120077
-1120139
-1120074
-1120128
-1120140
-1120282
-1120304
-1120325
-1120276
-1120326
-1120316
-1120272
-1120457
-1120439
-1120448
-1120415
-1120539
-1120559
-1120602
-1120477
-1120429
-1120576
-1120577
-1120574
-1120560
-1120514
-1120645
-1120655
-1120706
-1120616
-1120575
-1120547
-1120688
-1120782
-1120773
-1120717
-1120725
-1120821
-1120797
-1120779
-1120945
-1120980
-1120898
-1120921
-1121087
-1121226
-1121185
-1121191
-1121105
-1121313
-1121122
-1121176
-1121246
-1121225
-1121243
-1121353
-1121360
-1121535
-1121302
-1120269
-1120318
-1120430
-1120415
-1119764
-1119302
-1118968
-1118831
-1118915
-1118626
-1118400
-1118417
-1118391
-1118194
-1118106
-1117995
-1117867
-1117666
-1117582
-1117218
-1117031
-1116818
-1116602
-1116463
-1116333
-1116065
-1115913
-1115671
-1115519
-1115059
-1114800
-1114410
-1114125
-1113834
-1113370
-1112975
-1112722
-1112448
-1112276
-1112012
-1111544
-1111301
-1111059
-1110833
-1110790
-1110728
-1110587
-1110474
-1110469
-1110431
-1110566
-1110515
-1110626
-1110435
-1110422
-1110598
-1110539
-1110453
-1110284
-1110271
-1110345
-1110291
-1110390
-1110262
-1110371
-1110304
-1110218
-1110319
-1110354
-1110450
-1110374
-1110192
-1110075
-1109984
-1109900
-1109917
-1109873
-1109783
-1109543
-1109579
-1109409
-1109322
-1109177
-1109212
-1109090
-1109067
-1109020
-1109077
-1109127
-1108966
-1109015
-1109045
-1108940
-1108903
-1108923
-1109145
-1109434
-1109055
-1109365
-1109598
-1109874
-1110077
-1110312
-1110457
-1110490
-1110679
-1111009
-1111339
-1111458
-1111838
-1112295
-1112776
-1113026
-1113572
-1113980
-1114348
-1114647
-1115726
-1115569
-1115604
-1115682
-1115744
-1115922
-1116050
-1116182
-1116403
-1116510
-1116650
-1116612
-1116796
-1116816
-1116896
-1116852
-1117013
-1116935
-1116900
-1117006
-1117125
-1117181
-1117111
-1117061
-1117094
-1117160
-1117235
-1117174
-1117344
-1117313
-1117485
-1117528
-1117659
-1117734
-1117749
-1118043
-1118133
-1118225
-1118460
-1118594
-1118698
-1118727
-1118604
-1118658
-1118751
-1118919
-1119019
-1119168
-1119186
-1119245
-1119130
-1119319
-1119387
-1119406
-1119439
-1119379
-1119588
-1119444
-1119429
-1119547
-1119579
-1119422
-1119349
-1119375
-1119322
-1119258
-1119339
-1120020
-1119523
-1119531
-1119353
-1119280
-1119389
-1119381
-1119242
-1119220
-1119186
-1119223
-1119250
-1119276
-1119184
-1119197
-1119323
-1119237
-1119084
-1119254
-1119046
-1118994
-1118952
-1118769
-1118758
-1118613
-1118483
-1118442
-1118474
-1118469
-1118457
-1118250
-1118238
-1118171
-1117888
-1117853
-1117740
-1117621
-1117630
-1117675
-1117679
-1117596
-1117497
-1117518
-1117412
-1117317
-1117136
-1117071
-1116998
-1116983
-1116941
-1116901
-1116914
-1116798
-1116743
-1116666
-1116652
-1116656
-1116593
-1116444
-1116341
-1116304
-1116290
-1116237
-1116245
-1116021
-1115960
-1116031
-1116058
-1116082
-1115953
-1115898
-1115874
-1115913
-1115975
-1116061
-1115969
-1115919
-1115923
-1116058
-1116172
-1116075
-1116139
-1115976
-1116090
-1115960
-1116001
-1115924
-1115987
-1116008
-1116052
-1115940
-1115827
-1115704
-1115773
-1115734
-1115615
-1115458
-1115530
-1115462
-1115403
-1115315
-1115447
-1115339
-1115276
-1115387
-1115263
-1115260
-1115263
-1115386
-1115057
-1115139
-1115377
-1115309
-1115233
-1115256
-1115352
-1115308
-1115069
-1115358
-1115464
-1115563
-1115489
-1115457
-1115486
-1115516
-1115708
-1115556
-1115593
-1115752
-1115819
-1115878
-1115843
-1116011
-1116066
-1116064
-1116155
-1116173
-1116250
-1116349
-1116353
-1116888
-1116657
-1117184
-1116731
-1116709
-1116642
-1116809
-1116715
-1116673
-1116721
-1116726
-1116784
-1116731
-1116760
-1116902
-1116922
-1116808
-1116825
-1116754
-1116752
-1116764
-1116771
-1116729
-1116742
-1116759
-1116721
-1116777
-1116814
-1116798
-1116890
-1116954
-1117034
-1117109
-1117002
-1117021
-1116958
-1116863
-1117103
-1117121
-1117340
-1117207
-1117289
-1117461
-1117457
-1117373
-1117399
-1117435
-1117459
-1117481
-1117500
-1117525
-1117663
-1117631
-1117591
-1117711
-1117805
-1117696
-1117635
-1117617
-1117646
-1117675
-1117720
-1117699
-1117749
-1117759
-1117883
-1117884
-1117905
-1117889
-1117963
-1118118
-1118083
-1118095
-1118051
-1118058
-1118089
-1118093
-1117982
-1118165
-1118154
-1118295
-1118164
-1117986
-1118084
-1117958
-1117935
-1117898
-1117891
-1117911
-1117928
-1117982
-1118405
-1118068
-1117978
-1117887
-1117907
-1117845
-1117764
-1117898
-1118022
-1118083
-1118123
-1118039
-1118096
-1118158
-1118231
-1118228
-1118325
-1118322
-1118353
-1118504
-1118381
-1118475
-1118561
-1118557
-1118467
-1118397
-1118560
-1118453
-1118537
-1118571
-1118483
-1118336
-1118356
-1118425
-1118422
-1118515
-1118461
-1118386
-1118432
-1118452
-1118477
-1118470
-1118466
-1118460
-1118396
-1118383
-1118407
-1118392
-1118526
-1118563
-1118532
-1118547
-1118522
-1118451
-1118665
-1118615
-1118558
-1118555
-1118560
-1118506
-1118550
-1118417
-1118527
-1118429
-1118485
-1118467
-1118440
-1118487
-1118439
-1118552
-1118587
-1118400
-1118397
-1118371
-1118419
-1118551
-1118585
-1118472
-1118578
-1118577
-1118556
-1118609
-1118636
-1118619
-1118756
-1118716
-1118711
-1118760
-1118668
-1118758
-1118793
-1118708
-1118803
-1118687
-1118592
-1118755
-1118857
-1118772
-1118862
-1118815
-1118702
-1118748
-1118654
-1118557
-1118576
-1118662
-1118594
-1118659
-1118710
-1118750
-1118673
-1118815
-1118850
-1118723
-1118822
-1118741
-1118759
-1118903
-1119000
-1118983
-1118988
-1119040
-1119036
-1118948
-1118859
-1119036
-1119158
-1118996
-1119020
-1119116
-1118997
-1119010
-1119107
-1119079
-1118976
-1119102
-1119139
-1119250
-1119304
-1119272
-1119219
-1119200
-1119177
-1119188
-1119044
-1119101
-1119256
-1119312
-1119207
-1119272
-1119355
-1119189
-1119320
-1119276
-1119344
-1119378
-1119555
-1119538
-1119533
-1119513
-1119523
-1120531
-1120010
-1119921
-1119872
-1119817
-1119835
-1119854
-1119747
-1119744
-1119826
-1119745
-1119703
-1119825
-1119818
-1119935
-1119728
-1119841
-1119761
-1119804
-1119892
-1119683
-1119774
-1119731
-1119723
-1119804
-1120098
-1119905
-1119739
-1119718
-1119782
-1119676
-1119781
-1119720
-1119731
-1119666
-1119531
-1119402
-1119344
-1119135
-1119181
-1118820
-1118725
-1118555
-1118549
-1118567
-1117793
-1117759
-1117621
-1117631
-1117531
-1117494
-1117543
-1117393
-1117409
-1117364
-1117314
-1117321
-1117087
-1117119
-1117070
-1116890
-1116930
-1116786
-1116648
-1116615
-1116476
-1116510
-1116386
-1116307
-1116180
-1116181
-1116049
-1116121
-1116036
-1115938
-1115842
-1115967
-1115899
-1115793
-1115775
-1115746
-1115625
-1115650
-1115483
-1115493
-1115568
-1115580
-1115439
-1115458
-1115359
-1115396
-1115371
-1115319
-1115310
-1115384
-1115361
-1115234
-1115382
-1115311
-1115252
-1115134
-1115245
-1115052
-1115003
-1115034
-1115032
-1114971
-1115018
-1115049
-1114576
-1114919
-1114914
-1114906
-1114874
-1114855
-1114790
-1114886
-1114768
-1114643
-1114651
-1114684
-1114744
-1114761
-1114751
-1114809
-1114764
-1114957
-1114979
-1114918
-1114914
-1115065
-1115089
-1115139
-1115156
-1115219
-1115274
-1115197
-1115153
-1115249
-1115271
-1115376
-1115296
-1115390
-1115405
-1115464
-1115507
-1115499
-1115504
-1115502
-1115577
-1115503
-1115583
-1115553
-1115521
-1115626
-1115764
-1115839
-1115720
-1115744
-1115814
-1115751
-1115721
-1115754
-1115887
-1115816
-1115901
-1115969
-1116002
-1115842
-1115953
-1115945
-1115848
-1115944
-1115921
-1115893
-1115854
-1115908
-1115931
-1115858
-1115774
-1115777
-1115859
-1115823
-1115935
-1116075
-1115987
-1116084
-1116134
-1116041
-1116161
-1116171
-1116251
-1116211
-1116257
-1116308
-1116309
-1116331
-1116426
-1116385
-1116395
-1116392
-1116129
-1116368
-1116474
-1116566
-1116776
-1116694
-1116749
-1116628
-1116610
-1116770
-1116646
-1116699
-1116731
-1116715
-1116668
-1116712
-1116625
-1116294
-1116524
-1116507
-1116646
-1116684
-1116577
-1116709
-1116554
-1116593
-1116564
-1116648
-1116796
-1116814
-1116795
-1117742
-1117103
-1117062
-1117067
-1117034
-1117238
-1117133
-1117116
-1117143
-1117292
-1117311
-1117438
-1117429
-1117486
-1117443
-1117376
-1117315
-1117404
-1117382
-1117502
-1117472
-1117628
-1117622
-1117523
-1117413
-1117434
-1117414
-1117461
-1117438
-1117453
-1117588
-1117523
-1117520
-1117663
-1117597
-1117665
-1117723
-1117563
-1117532
-1117631
-1117622
-1117792
-1117935
-1117864
-1117818
-1117795
-1117883
-1117950
-1117818
-1117995
-1118055
-1117947
-1118043
-1117980
-1117937
-1117980
-1117857
-1117924
-1118072
-1118075
-1118040
-1118135
-1117949
-1118090
-1118156
-1118217
-1118102
-1118221
-1118282
-1118007
-1118247
-1118336
-1118348
-1118237
-1118420
-1118388
-1118359
-1118342
-1118470
-1118623
-1118455
-1118570
-1118564
-1118214
-1118459
-1118585
-1118682
-1118579
-1118607
-1118596
-1118666
-1118801
-1118848
-1118932
-1118963
-1118840
-1118808
-1118771
-1118808
-1118876
-1118936
-1118559
-1118917
-1118918
-1119085
-1119005
-1119137
-1119181
-1119047
-1119020
-1119102
-1119073
-1119119
-1119069
-1119072
-1119149
-1119232
-1119219
-1119102
-1119073
-1119053
-1119123
-1119150
-1119096
-1119067
-1119005
-1119074
-1119237
-1119320
-1119215
-1119263
-1119273
-1119209
-1119309
-1119480
-1119277
-1119127
-1119291
-1119394
-1119588
-1119608
-1119679
-1119693
-1119689
-1119655
-1119599
-1119662
-1119681
-1119833
-1119843
-1119948
-1120010
-1119983
-1119915
-1119906
-1119961
-1119938
-1119786
-1119882
-1119965
-1119867
-1119861
-1120014
-1119967
-1119863
-1119787
-1119664
-1119956
-1119999
-1120097
-1120175
-1120086
-1120127
-1120113
-1120266
-1120320
-1120275
-1120276
-1120366
-1120453
-1120458
-1120444
-1120562
-1120395
-1120509
-1120507
-1120516
-1120552
-1120655
-1120702
-1120526
-1120628
-1120505
-1120440
-1120511
-1120397
-1120324
-1120265
-1120240
-1120179
-1120211
-1120059
-1120037
-1119710
-1120002
-1119861
-1119772
-1119809
-1119788
-1119842
-1119695
-1119712
-1119651
-1119552
-1119549
-1119495
-1119506
-1119426
-1119443
-1119272
-1119359
-1119133
-1119158
-1118949
-1118980
-1118863
-1118404
-1118551
-1118626
-1118571
-1118569
-1118452
-1118280
-1118142
-1118212
-1118150
-1118067
-1117905
-1117991
-1118000
-1117959
-1117739
-1117794
-1117623
-1117553
-1117485
-1117613
-1117451
-1117472
-1117378
-1117363
-1117235
-1117167
-1117225
-1117082
-1117134
-1117043
-1116890
-1116855
-1116796
-1116678
-1116758
-1116738
-1116695
-1116626
-1116587
-1116425
-1116523
-1116402
-1116414
-1116378
-1116470
-1116400
-1116251
-1116308
-1116424
-1116396
-1116272
-1116249
-1116148
-1116248
-1116181
-1116120
-1116031
-1116032
-1115994
-1116066
-1116117
-1116168
-1116151
-1116098
-1116068
-1116058
-1115941
-1115973
-1116511
-1116093
-1116046
-1115965
-1115904
-1115865
-1115902
-1115824
-1115911
-1115773
-1115412
-1115633
-1115773
-1115895
-1115800
-1115804
-1115858
-1116028
-1116025
-1116046
-1115957
-1116067
-1116191
-1116163
-1116208
-1116410
-1116399
-1116346
-1116407
-1116417
-1116498
-1116447
-1116582
-1116732
-1116646
-1116813
-1116731
-1116501
-1116616
-1116833
-1116798
-1116834
-1116897
-1117050
-1117126
-1117148
-1117120
-1117052
-1117148
-1117094
-1117032
-1116830
-1117028
-1117038
-1117219
-1117158
-1117193
-1117263
-1117273
-1117364
-1117348
-1117416
-1117485
-1117435
-1117415
-1117463
-1117455
-1117513
-1117536
-1117551
-1117636
-1117724
-1117635
-1117654
-1117647
-1117671
-1117770
-1117707
-1117681
-1117803
-1117754
-1117802
-1117740
-1117884
-1117945
-1117971
-1117927
-1117885
-1117996
-1117939
-1117896
-1117967
-1118067
-1118942
-1118229
-1117759
-1117810
-1117833
-1117888
-1117979
-1117953
-1118066
-1118022
-1117973
-1118205
-1118081
-1118185
-1118146
-1118325
-1118340
-1118317
-1118262
-1118378
-1118289
-1118501
-1118413
-1118559
-1118539
-1118502
-1118543
-1118488
-1118613
-1118621
-1118647
-1119615
-1118990
-1118686
-1118720
-1118734
-1118779
-1118769
-1118749
-1118899
-1118779
-1118741
-1118867
-1118765
-1118952
-1118977
-1118928
-1118912
-1119109
-1119205
-1119255
-1119346
-1119252
-1119226
-1119235
-1119278
-1119348
-1119274
-1119499
-1119501
-1119458
-1119457
-1119583
-1119544
-1119516
-1119582
-1119478
-1119437
-1119523
-1119470
-1119487
-1119762
-1119601
-1119661
-1119715
-1119711
-1119610
-1119599
-1119609
-1119753
-1119852
-1119773
-1119769
-1119734
-1119798
-1119824
-1119908
-1119852
-1119870
-1119912
-1120001
-1120103
-1120002
-1119929
-1120000
-1120133
-1119972
-1120112
-1120060
-1120194
-1120211
-1120318
-1120235
-1120197
-1120257
-1120221
-1120267
-1120257
-1120330
-1120396
-1120462
-1120437
-1120478
-1120419
-1120530
-1120403
-1120366
-1120367
-1120457
-1120545
-1120498
-1120694
-1120717
-1120653
-1120668
-1120742
-1120781
-1120740
-1120845
-1120968
-1120973
-1121017
-1121114
-1120965
-1120941
-1121087
-1120976
-1120933
-1120944
-1120947
-1121167
-1121237
-1121339
-1121215
-1121232
-1121206
-1121188
-1121237
-1121359
-1121269
-1121288
-1121335
-1121389
-1121399
-1121432
-1121457
-1121339
-1121356
-1121344
-1121371
-1121430
-1121595
-1121616
-1121494
-1121508
-1121462
-1121623
-1121665
-1121707
-1121668
-1121801
-1121794
-1121850
-1121842
-1121802
-1121816
-1121870
-1121917
-1121975
-1121933
-1122027
-1121974
-1121978
-1122090
-1122220
-1122041
-1122010
-1121996
-1122078
-1122215
-1122100
-1122245
-1122324
-1122191
-1122269
-1122323
-1122160
-1122169
-1122205
-1122266
-1122380
-1122443
-1122474
-1122469
-1122413
-1122457
-1122405
-1122507
-1122422
-1122530
-1122691
-1122621
-1122654
-1122712
-1122585
-1122631
-1122578
-1122516
-1122475
-1122459
-1122630
-1122618
-1122632
-1122588
-1122491
-1122361
-1122337
-1122321
-1122487
-1122334
-1122331
-1122329
-1122228
-1122121
-1122068
-1122018
-1122040
-1121958
-1121865
-1121854
-1121739
-1121726
-1121758
-1121678
-1121514
-1121297
-1121172
-1121036
-1121115
-1121089
-1121014
-1120915
-1121430
-1120945
-1120734
-1120647
-1120468
-1120400
-1120179
-1120134
-1120056
-1120067
-1120060
-1119876
-1119714
-1119802
-1119676
-1119481
-1119619
-1119590
-1119478
-1119381
-1119366
-1119200
-1119307
-1119284
-1119067
-1118979
-1118992
-1118912
-1119011
-1119034
-1118880
-1118788
-1118743
-1118646
-1118636
-1118407
-1118602
-1118596
-1118467
-1118575
-1118452
-1118488
-1118442
-1118304
-1118253
-1118169
-1118226
-1118228
-1117871
-1118068
-1118097
-1117925
-1118046
-1117949
-1117893
-1117853
-1117921
-1117808
-1117824
-1117861
-1117812
-1117909
-1117781
-1117867
-1117852
-1117745
-1117839
-1117727
-1117705
-1117822
-1117726
-1117827
-1117758
-1117799
-1117616
-1117767
-1117680
-1117708
-1117773
-1117794
-1117834
-1117773
-1118202
-1117957
-1117888
-1117561
-1117828
-1117942
-1117884
-1117891
-1118075
-1117984
-1117970
-1117821
-1117911
-1118088
-1118095
-1118159
-1118201
-1118299
-1118324
-1118363
-1118424
-1118451
-1118465
-1118471
-1118553
-1118556
-1118642
-1118739
-1118773
-1118775
-1118741
-1118798
-1118896
-1119466
-1119167
-1118968
-1118985
-1119073
-1119051
-1119100
-1119031
-1119135
-1119215
-1119193
-1119222
-1119246
-1119207
-1119358
-1119220
-1119191
-1119114
-1119249
-1119183
-1119163
-1119154
-1119141
-1120039
-1119568
-1119393
-1119282
-1119318
-1119357
-1119320
-1119347
-1119346
-1119341
-1119388
-1119526
-1119517
-1119593
-1119437
-1119529
-1119483
-1119450
-1119458
-1119650
-1119526
-1119610
-1119689
-1119680
-1119699
-1119515
-1119539
-1119564
-1119686
-1119748
-1119859
-1119706
-1119916
-1119841
-1119730
-1119812
-1119974
-1119950
-1120075
-1120031
-1119948
-1120133
-1120167
-1120231
-1120030
-1120132
-1120296
-1120285
-1120358
-1120311
-1120604
-1120571
-1120446
-1120461
-1120116
-1120507
-1120546
-1120521
-1120505
-1120562
-1120477
-1120589
-1120327
-1120417
-1120452
-1120563
-1120622
-1120528
-1120549
-1120688
-1120736
-1120275
-1120464
-1120619
-1120847
-1120503
-1120761
-1120869
-1120666
-1120872
-1121002
-1121138
-1121064
-1121277
-1121307
-1121011
-1121036
-1121112
-1121187
-1121254
-1121265
-1121406
-1121321
-1121252
-1121171
-1121256
-1121405
-1121325
-1121355
-1121462
-1121371
-1121403
-1121248
-1121306
-1121344
-1121348
-1121435
-1121419
-1121494
-1121589
-1121588
-1121681
-1121683
-1121736
-1121772
-1121681
-1121596
-1121731
-1121658
-1121716
-1121685
-1121885
-1121902
-1121990
-1121944
-1121908
-1121822
-1121899
-1122006
-1122001
-1122051
-1122089
-1122132
-1122086
-1122036
-1122106
-1122051
-1122171
-1122253
-1122207
-1122186
-1122125
-1122160
-1122258
-1122189
-1122191
-1122318
-1122090
-1121927
-1122041
-1122189
-1122176
-1122219
-1122254
-1122113
-1122191
-1122316
-1122190
-1122279
-1122388
-1122289
-1122351
-1122252
-1122172
-1122254
-1122278
-1122305
-1122271
-1122337
-1122503
-1122361
-1122499
-1122578
-1122516
-1122571
-1122527
-1122535
-1122645
-1122681
-1122740
-1122771
-1122892
-1122903
-1122966
-1122935
-1122844
-1122862
-1122857
-1122885
-1123111
-1123114
-1123044
-1123116
-1122972
-1123019
-1123186
-1123094
-1123209
-1123214
-1123224
-1123218
-1123330
-1123367
-1123208
-1123196
-1123070
-1122834
-1123104
-1123136
-1123282
-1123188
-1123276
-1123242
-1123315
-1123397
-1123378
-1123329
-1123238
-1123303
-1123290
-1123372
-1123286
-1123304
-1123432
-1123281
-1123208
-1123115
-1123170
-1123179
-1123078
-1122992
-1122914
-1122820
-1122775
-1122641
-1122683
-1122568
-1122657
-1122534
-1122559
-1122519
-1122297
-1122317
-1122240
-1122154
-1121990
-1121914
-1121922
-1121832
-1121797
-1122793
-1122005
-1121727
-1121535
-1121338
-1121271
-1120940
-1121144
-1121108
-1120951
-1120956
-1120786
-1120744
-1120712
-1120593
-1120477
-1120502
-1120385
-1120384
-1120345
-1120154
-1120143
-1120166
-1119920
-1119989
-1119914
-1119830
-1119870
-1119875
-1119738
-1119654
-1119560
-1119582
-1119568
-1119373
-1119409
-1119432
-1119415
-1119307
-1119297
-1119177
-1119255
-1119163
-1119176
-1119011
-1118952
-1118998
-1119067
-1118891
-1118897
-1118883
-1118690
-1118711
-1118496
-1118655
-1118669
-1118596
-1118598
-1118516
-1118529
-1118401
-1118524
-1118494
-1118390
-1118262
-1118330
-1118383
-1118379
-1118409
-1118316
-1118268
-1118310
-1118304
-1118132
-1118278
-1118271
-1118311
-1119380
-1118466
-1118333
-1118194
-1118170
-1118151
-1118047
-1118199
-1118195
-1118167
-1118198
-1118257
-1118169
-1118227
-1117982
-1118262
-1118200
-1118250
-1118204
-1118250
-1118334
-1118448
-1118442
-1118444
-1118470
-1118666
-1118549
-1118530
-1118629
-1118694
-1118868
-1118792
-1118911
-1119032
-1119075
-1119110
-1119116
-1119120
-1119092
-1119259
-1119258
-1119283
-1119209
-1119276
-1119424
-1119300
-1119356
-1119423
-1119395
-1119432
-1119395
-1119430
-1119617
-1119140
-1119496
-1119458
-1119540
-1119614
-1119556
-1119569
-1119582
-1119645
-1119646
-1119685
-1119687
-1119714
-1119750
-1119799
-1119817
-1119854
-1119974
-1119874
-1119854
-1120017
-1119996
-1120090
-1120056
-1120004
-1120037
-1120012
-1120071
-1120030
-1120112
-1120061
-1120234
-1120233
-1120162
-1120157
-1120131
-1120149
-1120232
-1120289
-1120330
-1120370
-1120360
-1120415
-1120340
-1120272
-1120437
-1120374
-1120474
-1120532
-1120560
-1120596
-1120666
-1120602
-1120665
-1120742
-1120842
-1120876
-1120888
-1121087
-1121035
-1121095
-1121126
-1121224
-1121239
-1121225
-1121131
-1121247
-1121256
-1121233
-1121336
-1121396
-1121318
-1121427
-1121350
-1121313
-1121432
-1121462
-1121494
-1121515
-1121573
-1121519
-1121643
-1121584
-1121577
-1121674
-1121688
-1121676
-1121829
-1121851
-1121717
-1121641
-1121831
-1121699
-1121852
-1121714
-1121785
-1121759
-1121823
-1121860
-1121959
-1121894
-1121911
-1121893
-1121919
-1122001
-1121933
-1122023
-1122030
-1122669
-1122270
-1122225
-1122310
-1122318
-1122229
-1122292
-1122456
-1122348
-1122418
-1122326
-1122458
-1122615
-1122529
-1122494
-1122369
-1122572
-1122610
-1122573
-1122650
-1122739
-1122742
-1122555
-1122742
-1122715
-1122658
-1122709
-1122724
-1122789
-1122956
-1122904
-1122812
-1123595
-1123228
-1123093
-1123118
-1123119
-1123008
-1123089
-1123005
-1123047
-1123126
-1123073
-1123048
-1123136
-1122968
-1122881
-1122988
-1122934
-1123030
-1122913
-1122928
-1123032
-1122788
-1122581
-1122652
-1122555
-1122469
-1122395
-1123038
-1122567
-1122222
-1122044
-1122090
-1121957
-1121798
-1121753
-1121565
-1121498
-1122416
-1121710
-1121562
-1121420
-1121280
-1121198
-1121154
-1121096
-1120972
-1121150
-1121027
-1120944
-1120974
-1120967
-1121162
-1120974
-1120953
-1120869
-1120805
-1120910
-1120831
-1120912
-1120740
-1120798
-1120706
-1120807
-1120661
-1120670
-1120706
-1120805
-1120777
-1120594
-1120737
-1120665
-1120602
-1120651
-1120479
-1120393
-1120316
-1120404
-1120396
-1120379
-1120382
-1120232
-1120303
-1120082
-1120014
-1119989
-1119893
-1120283
-1119898
-1119516
-1119577
-1119413
-1119228
-1119157
-1119037
-1118591
-1118461
-1118384
-1118054
-1117829
-1117465
-1117134
-1116950
-1116656
-1116262
-1115446
-1115177
-1114836
-1114531
-1114340
-1114080
-1113858
-1113643
-1113552
-1113571
-1113120
-1113166
-1112497
-1112210
-1111076
-1111002
-1110939
-1110827
-1110840
-1110740
-1110608
-1110526
-1110536
-1110346
-1110373
-1110230
-1110027
-1110071
-1109898
-1109876
-1109730
-1109804
-1109579
-1109574
-1109501
-1109312
-1109194
-1109006
-1108938
-1108892
-1108795
-1108584
-1108518
-1108514
-1108329
-1107849
-1107974
-1107996
-1107886
-1107761
-1107767
-1107681
-1107669
-1107554
-1107410
-1107323
-1107366
-1107295
-1107276
-1107247
-1107139
-1107234
-1107171
-1107035
-1106924
-1106892
-1106730
-1106677
-1106271
-1106431
-1106649
-1107003
-1106539
-1106396
-1106281
-1106081
-1105937
-1105934
-1105861
-1105733
-1105537
-1105472
-1105238
-1105202
-1104851
-1104877
-1104705
-1104723
-1104638
-1104466
-1104302
-1104206
-1104104
-1104051
-1103794
-1103792
-1103598
-1103437
-1103335
-1103409
-1103325
-1103445
-1103267
-1103348
-1103318
-1103284
-1103371
-1103508
-1103392
-1103398
-1103411
-1103364
-1103378
-1103394
-1103577
-1103469
-1103657
-1103620
-1103867
-1103876
-1103856
-1103980
-1103743
-1104072
-1104171
-1104263
-1104297
-1104514
-1104487
-1104265
-1104657
-1104696
-1104721
-1104860
-1104836
-1104878
-1104851
-1104937
-1104738
-1104714
-1104655
-1104599
-1104664
-1104597
-1104648
-1104764
-1104828
-1104857
-1104880
-1104853
-1104942
-1105107
-1105080
-1105018
-1105114
-1105062
-1105087
-1105170
-1105206
-1105136
-1105098
-1105178
-1105145
-1105014
-1105129
-1105149
-1105192
-1105202
-1105169
-1105238
-1105286
-1105191
-1105251
-1105211
-1105407
-1105467
-1105513
-1105498
-1105537
-1105617
-1105675
-1105712
-1105669
-1105849
-1105937
-1105886
-1106030
-1105932
-1106022
-1105739
-1105796
-1105970
-1105958
-1105849
-1105847
-1105843
-1105925
-1105993
-1105789
-1105839
-1105766
-1105679
-1105601
-1105420
-1105399
-1105419
-1106201
-1105564
-1105380
-1104991
-1104802
-1105104
-1105087
-1105022
-1104822
-1104850
-1104621
-1104793
-1104997
-1105156
-1104981
-1104955
-1104962
-1105008
-1104765
-1104879
-1105030
-1105079
-1104972
-1104991
-1105027
-1104876
-1105733
-1105337
-1106072
-1105414
-1105440
-1105328
-1105308
-1105294
-1105371
-1105413
-1105557
-1105584
-1105729
-1105701
-1105902
-1106006
-1106059
-1106278
-1106384
-1106374
-1106470
-1106531
-1106633
-1107231
-1106970
-1106829
-1106902
-1106974
-1107047
-1106924
-1107035
-1106998
-1106774
-1106712
-1107011
-1106677
-1106995
-1106617
-1106770
-1106782
-1106551
-1106702
-1106692
-1106568
-1106582
-1106630
-1106592
-1106687
-1106578
-1106512
-1106573
-1106593
-1106636
-1106813
-1106922
-1106918
-1107191
-1107172
-1107362
-1107318
-1107448
-1107556
-1107646
-1107538
-1107606
-1107743
-1107575
-1107772
-1107836
-1107883
-1107923
-1108028
-1108004
-1107977
-1108065
-1108029
-1107965
-1107805
-1107716
-1107751
-1107631
-1107601
-1107444
-1107398
-1107383
-1107177
-1107194
-1106939
-1106825
-1106746
-1106739
-1106566
-1106406
-1106245
-1106223
-1106054
-1106157
-1106048
-1105888
-1105849
-1105757
-1105722
-1105871
-1105647
-1105505
-1105315
-1105267
-1105164
-1105070
-1104854
-1104826
-1104929
-1104811
-1104677
-1104555
-1104507
-1104416
-1104462
-1104372
-1104226
-1104015
-1103856
-1103868
-1103706
-1104587
-1103697
-1103451
-1103208
-1103088
-1102932
-1102866
-1102710
-1102609
-1102391
-1102282
-1102214
-1102060
-1101814
-1101747
-1101748
-1101539
-1101420
-1101304
-1101210
-1101017
-1100925
-1100684
-1100742
-1100484
-1100133
-1099862
-1099841
-1099730
-1099645
-1099496
-1099549
-1099410
-1099416
-1099188
-1099047
-1099013
-1098911
-1098834
-1098889
-1098883
-1098816
-1098804
-1098741
-1098718
-1098296
-1098483
-1098449
-1098455
-1098504
-1098344
-1098270
-1098100
-1098045
-1098018
-1097814
-1097805
-1097684
-1097555
-1097519
-1097308
-1097298
-1097144
-1096935
-1096768
-1096710
-1096724
-1096578
-1096574
-1096498
-1096455
-1096483
-1096348
-1096292
-1096217
-1096283
-1096204
-1096106
-1096177
-1096141
-1096163
-1096028
-1095959
-1095819
-1095931
-1095909
-1095773
-1095761
-1095481
-1095670
-1095627
-1095702
-1095676
-1095558
-1095456
-1095371
-1095335
-1095328
-1095297
-1095459
-1095387
-1095385
-1095350
-1095368
-1095348
-1095378
-1095263
-1095277
-1095236
-1095238
-1095281
-1095235
-1095139
-1095131
-1095188
-1095220
-1095250
-1095239
-1095242
-1095160
-1095221
-1095300
-1095421
-1095315
-1095301
-1095373
-1095317
-1095198
-1095173
-1095171
-1095323
-1095369
-1095259
-1095294
-1095249
-1095256
-1095202
-1095101
-1095085
-1094941
-1095034
-1095043
-1095066
-1094971
-1094891
-1094810
-1094835
-1094765
-1094706
-1094593
-1094535
-1094424
-1094403
-1094516
-1094350
-1094278
-1094253
-1094184
-1094115
-1094071
-1094170
-1094089
-1094153
-1094093
-1093985
-1093907
-1093903
-1093954
-1093980
-1093983
-1093930
-1093800
-1093771
-1093797
-1093785
-1093860
-1093679
-1093785
-1093814
-1093732
-1093737
-1093686
-1093712
-1093640
-1093643
-1093548
-1093529
-1093593
-1093620
-1093484
-1093635
-1093583
-1093651
-1093704
-1093782
-1093653
-1093689
-1093634
-1093752
-1093700
-1093579
-1093822
-1093714
-1093914
-1094007
-1093850
-1093794
-1093952
-1094076
-1093839
-1093806
-1093604
-1093527
-1093521
-1093402
-1093318
-1093236
-1093203
-1093143
-1093163
-1093234
-1093144
-1093135
-1093171
-1092972
-1093162
-1093174
-1093029
-1092925
-1092784
-1092894
-1092916
-1093080
-1093171
-1093212
-1093365
-1093667
-1093755
-1094058
-1094138
-1094222
-1094274
-1094317
-1094380
-1094481
-1094504
-1094374
-1094533
-1094584
-1094530
-1094633
-1094777
-1094703
-1094641
-1094680
-1094863
-1094869
-1094894
-1094946
-1094983
-1095164
-1095244
-1095224
-1095357
-1095303
-1095365
-1095259
-1095205
-1095436
-1095298
-1095247
-1095302
-1095199
-1095181
-1095277
-1095005
-1094927
-1094918
-1094869
-1094924
-1094795
-1094672
-1094525
-1094501
-1094441
-1094264
-1094257
-1094186
-1094033
-1094117
-1094004
-1093797
-1093881
-1093740
-1093622
-1093518
-1093387
-1093410
-1093356
-1093372
-1093373
-1093249
-1093202
-1093272
-1093237
-1093066
-1093183
-1093054
-1093101
-1093037
-1092977
-1093294
-1092891
-1092745
-1092678
-1092446
-1092447
-1092415
-1092252
-1092031
-1092125
-1091910
-1091789
-1091715
-1091446
-1091477
-1091368
-1091313
-1091273
-1091370
-1091230
-1091281
-1091211
-1091242
-1091241
-1091130
-1091174
-1091171
-1091005
-1090910
-1090849
-1090928
-1090824
-1090799
-1090861
-1090835
-1090807
-1090738
-1090567
-1090540
-1090487
-1090278
-1090182
-1090226
-1089539
-1089421
-1089260
-1089140
-1089001
-1088649
-1088244
-1087862
-1087150
-1086992
-1087056
-1087130
-1087013
-1087143
-1087319
-1087435
-1087554
-1087478
-1087531
-1087604
-1087730
-1087663
-1087731
-1087802
-1087788
-1087819
-1087787
-1087751
-1087814
-1087809
-1087812
-1087860
-1087792
-1087805
-1087872
-1087817
-1087832
-1087837
-1087926
-1087901
-1087976
-1088024
-1088073
-1088112
-1088123
-1088219
-1088116
-1088161
-1088225
-1088238
-1088271
-1088216
-1088258
-1088329
-1088301
-1088387
-1088488
-1088408
-1088453
-1088557
-1088691
-1088692
-1088820
-1088652
-1088630
-1088679
-1088690
-1088711
-1088810
-1088837
-1088796
-1088814
-1088858
-1088788
-1088811
-1088822
-1088836
-1088841
-1088798
-1088795
-1088732
-1088643
-1088694
-1088768
-1088712
-1088743
-1088941
-1088816
-1088932
-1089028
-1089126
-1089233
-1089105
-1089163
-1089373
-1089416
-1089509
-1089684
-1090399
-1089998
-1089980
-1089913
-1090026
-1090076
-1090137
-1090016
-1090202
-1090272
-1090314
-1090322
-1090216
-1090295
-1090302
-1090182
-1090114
-1090157
-1090196
-1090256
-1090222
-1090189
-1090082
-1090114
-1089890
-1089726
-1089841
-1089624
-1089553
-1089429
-1089480
-1089560
-1089419
-1089504
-1089340
-1089339
-1089162
-1089141
-1089123
-1089072
-1089036
-1089012
-1089087
-1089019
-1089167
-1089186
-1089121
-1089076
-1089190
-1089181
-1089344
-1089374
-1089397
-1089469
-1089568
-1089626
-1089698
-1089724
-1089775
-1089840
-1089891
-1089953
-1089945
-1090149
-1090216
-1090252
-1090263
-1089819
-1090160
-1090177
-1090248
-1090206
-1090196
-1090274
-1090276
-1090235
-1090589
-1090200
-1090216
-1090288
-1090208
-1090300
-1090293
-1090155
-1090037
-1090005
-1090076
-1090172
-1090214
-1090189
-1090350
-1090377
-1090409
-1090396
-1090418
-1090384
-1090443
-1090555
-1090622
-1090725
-1090752
-1090899
-1090765
-1090867
-1090950
-1090897
-1090857
-1090846
-1090888
-1090916
-1091075
-1091188
-1091186
-1091198
-1091058
-1091918
-1091369
-1091123
-1091191
-1091173
-1091148
-1091183
-1091270
-1091235
-1091175
-1090995
-1091034
-1091062
-1091116
-1091170
-1091239
-1091235
-1091317
-1091352
-1091361
-1091241
-1091230
-1091279
-1091596
-1091636
-1091630
-1091658
-1091581
-1091727
-1091755
-1091764
-1091819
-1091918
-1091937
-1092054
-1092136
-1092158
-1092092
-1092172
-1092190
-1092072
-1092020
-1092167
-1092287
-1092281
-1092430
-1092466
-1092335
-1092241
-1092229
-1092369
-1092334
-1092432
-1092369
-1092372
-1092411
-1092325
-1092436
-1092415
-1092359
-1092058
-1092173
-1092334
-1092415
-1092332
-1092290
-1092364
-1092334
-1092367
-1092315
-1091902
-1092054
-1092253
-1092293
-1092246
-1092255
-1092206
-1092268
-1092128
-1092044
-1092131
-1092162
-1092144
-1092074
-1091909
-1091758
-1091639
-1091617
-1091563
-1091416
-1091305
-1091303
-1091124
-1091030
-1090913
-1090909
-1090717
-1090655
-1090528
-1090342
-1090305
-1090093
-1089989
-1089855
-1089665
-1089618
-1089450
-1089189
-1089174
-1088899
-1088822
-1088695
-1088699
-1088553
-1088456
-1088454
-1088473
-1088186
-1088248
-1088127
-1088001
-1087999
-1087906
-1087934
-1087881
-1087730
-1087766
-1087764
-1087548
-1087628
-1087626
-1087590
-1088184
-1087503
-1087513
-1087496
-1087285
-1087171
-1087063
-1087140
-1087178
-1087082
-1087167
-1087176
-1087132
-1087117
-1087148
-1086963
-1087053
-1086952
-1086753
-1086805
-1086784
-1086745
-1086629
-1086635
-1086561
-1086647
-1086587
-1086522
-1086525
-1086357
-1086362
-1086123
-1086244
-1086331
-1086243
-1086135
-1086225
-1086257
-1086320
-1086349
-1086401
-1086273
-1086203
-1086201
-1086213
-1086243
-1086073
-1086071
-1086149
-1086121
-1086064
-1086130
-1086125
-1085983
-1085913
-1085810
-1085879
-1085874
-1085736
-1085783
-1085834
-1085878
-1085943
-1086004
-1085927
-1085806
-1085836
-1085885
-1086063
-1086046
-1085999
-1085986
-1086008
-1086068
-1085935
-1085950
-1085900
-1086465
-1086052
-1085929
-1085990
-1086009
-1085880
-1085883
-1085888
-1085944
-1085999
-1085979
-1085896
-1085949
-1085691
-1085936
-1085952
-1086018
-1085926
-1085799
-1085798
-1085790
-1085833
-1085930
-1085766
-1085772
-1085640
-1085811
-1085763
-1085625
-1085693
-1085794
-1085817
-1085843
-1085823
-1085830
-1085806
-1085679
-1085733
-1085669
-1085699
-1085526
-1085579
-1085635
-1085470
-1085444
-1085470
-1085337
-1085417
-1085386
-1085381
-1085369
-1085302
-1085263
-1085303
-1085408
-1085291
-1085385
-1085426
-1085392
-1085313
-1085367
-1085445
-1085408
-1085367
-1085385
-1085409
-1085525
-1085541
-1085534
-1085560
-1085760
-1085918
-1085989
-1085978
-1086077
-1086175
-1086232
-1086249
-1086196
-1086267
-1086245
-1086336
-1086362
-1086350
-1086491
-1086517
-1086339
-1086164
-1086186
-1086183
-1086102
-1086021
-1086191
-1086119
-1085959
-1086006
-1085931
-1085784
-1085687
-1085708
-1085531
-1085599
-1085614
-1085433
-1085533
-1085397
-1085308
-1085278
-1085218
-1085064
-1085066
-1085114
-1085131
-1085104
-1085042
-1085126
-1085115
-1084976
-1084943
-1084977
-1084954
-1084890
-1085016
-1085006
-1084892
-1085083
-1084912
-1085002
-1084917
-1085030
-1085012
-1084960
-1085022
-1085064
-1085178
-1085154
-1085204
-1085301
-1085240
-1085178
-1085264
-1085357
-1085317
-1085384
-1085407
-1085376
-1085377
-1085187
-1085335
-1085301
-1085228
-1085114
-1085189
-1085155
-1085177
-1085085
-1084970
-1084950
-1084876
-1084961
-1084825
-1084739
-1084706
-1084761
-1084672
-1084588
-1084561
-1084574
-1084439
-1084498
-1084461
-1084342
-1084381
-1084276
-1084206
-1084221
-1084283
-1084067
-1084180
-1084260
-1084088
-1084129
-1084223
-1084213
-1084067
-1084215
-1084125
-1084233
-1084145
-1084033
-1084144
-1084059
-1084135
-1084072
-1084172
-1084095
-1084223
-1084288
-1084229
-1084230
-1084173
-1084192
-1084154
-1084215
-1084181
-1084166
-1084171
-1084208
-1084058
-1084060
-1084038
-1083972
-1083942
-1083971
-1083782
-1083691
-1083714
-1083758
-1083889
-1083893
-1083803
-1083783
-1083833
-1083924
-1083796
-1083846
-1083892
-1083853
-1083827
-1083885
-1083867
-1083907
-1083922
-1083864
-1083658
-1083649
-1083823
-1083768
-1083781
-1083905
-1083951
-1084107
-1084243
-1084270
-1084315
-1084480
-1084454
-1084619
-1084656
-1084882
-1084855
-1084977
-1085042
-1085056
-1085042
-1085162
-1085192
-1085153
-1085114
-1085241
-1085236
-1085109
-1085170
-1085072
-1085026
-1084951
-1084842
-1084777
-1084739
-1084616
-1084527
-1084458
-1084432
-1084315
-1084136
-1083984
-1083930
-1083779
-1083522
-1083374
-1083300
-1083222
-1083101
-1082929
-1082871
-1082683
-1082545
-1082418
-1082382
-1082316
-1082252
-1082135
-1081936
-1081794
-1081889
-1081679
-1081626
-1081490
-1081547
-1081327
-1081252
-1081182
-1081111
-1080917
-1080910
-1080826
-1080783
-1080697
-1080560
-1080434
-1080380
-1080336
-1080187
-1080042
-1079855
-1079840
-1079745
-1079516
-1079511
-1079343
-1079277
-1079176
-1079073
-1078975
-1078887
-1078705
-1078563
-1078524
-1078478
-1078330
-1078432
-1078302
-1078216
-1078256
-1078074
-1078051
-1078119
-1078216
-1078003
-1077971
-1078064
-1078020
-1077819
-1077865
-1077822
-1077736
-1077614
-1077698
-1077557
-1077561
-1077480
-1077405
-1077344
-1077279
-1077174
-1077064
-1076857
-1076734
-1076644
-1076683
-1076835
-1076581
-1076593
-1076587
-1076495
-1076432
-1076376
-1076300
-1076327
-1076132
-1076129
-1076139
-1076093
-1076104
-1076120
-1076073
-1076009
-1075905
-1075838
-1075987
-1075964
-1075872
-1075830
-1075750
-1075923
-1075872
-1075979
-1075931
-1076014
-1075913
-1075992
-1075964
-1075916
-1075914
-1076051
-1075925
-1075967
-1076061
-1076018
-1076140
-1076098
-1075990
-1075989
-1076004
-1075942
-1075820
-1075732
-1075845
-1075895
-1075853
-1075740
-1075790
-1075691
-1075592
-1075661
-1075554
-1075596
-1075682
-1075617
-1075591
-1075447
-1075544
-1075557
-1075569
-1075522
-1075604
-1075631
-1075743
-1075674
-1075778
-1075762
-1075701
-1075635
-1075703
-1075715
-1075802
-1075679
-1075739
-1075723
-1075641
-1075683
-1075811
-1075757
-1075713
-1075751
-1075750
-1075791
-1075714
-1075813
-1075853
-1075928
-1075844
-1075911
-1075933
-1075797
-1075845
-1075761
-1075794
-1075797
-1075655
-1075677
-1075700
-1075642
-1075586
-1075658
-1075748
-1075665
-1075769
-1075701
-1075751
-1075729
-1075727
-1075742
-1075751
-1075790
-1075680
-1075686
-1075699
-1075750
-1076229
-1075575
-1075586
-1075646
-1075674
-1075778
-1075828
-1075863
-1075830
-1075865
-1075908
-1076007
-1076032
-1075979
-1075965
-1075955
-1075708
-1075817
-1075751
-1075804
-1075722
-1075740
-1075783
-1075773
-1075631
-1075736
-1075733
-1075785
-1075768
-1075833
-1075830
-1075940
-1076040
-1076069
-1076059
-1076133
-1076039
-1076107
-1076143
-1076380
-1076366
-1076345
-1076484
-1076458
-1076539
-1077484
-1076904
-1076755
-1076463
-1076843
-1076891
-1077019
-1077030
-1077139
-1076788
-1076920
-1076924
-1076971
-1076975
-1077117
-1077181
-1077175
-1077164
-1077121
-1077076
-1077095
-1076980
-1076964
-1077119
-1077068
-1076988
-1077057
-1076960
-1076919
-1076831
-1076834
-1076597
-1076765
-1076684
-1076616
-1076679
-1076660
-1076476
-1076535
-1076502
-1076626
-1076612
-1076431
-1076580
-1076287
-1076538
-1076706
-1076948
-1077113
-1077139
-1077212
-1077235
-1077348
-1077358
-1077484
-1077556
-1077543
-1077340
-1077625
-1077409
-1077727
-1077879
-1077885
-1077937
-1077865
-1077864
-1077570
-1077786
-1077713
-1077795
-1077760
-1077812
-1077889
-1077959
-1077819
-1077889
-1077841
-1077714
-1077759
-1077833
-1077710
-1077627
-1077682
-1077710
-1077680
-1077602
-1077493
-1077567
-1077477
-1077173
-1077241
-1077244
-1077234
-1077226
-1077303
-1077382
-1077356
-1077344
-1077092
-1077307
-1077366
-1077609
-1077577
-1077597
-1077739
-1077544
-1077834
-1077862
-1077946
-1078008
-1078049
-1078152
-1078189
-1078250
-1078358
-1078254
-1078315
-1078306
-1078293
-1078359
-1078044
-1078166
-1078333
-1078328
-1078413
-1078449
-1078152
-1078382
-1078266
-1078277
-1078275
-1078221
-1078214
-1078310
-1078394
-1078274
-1078282
-1078370
-1078308
-1078239
-1078389
-1078441
-1078408
-1078577
-1078477
-1078542
-1078477
-1078483
-1078448
-1078515
-1078531
-1078515
-1078466
-1078363
-1078407
-1078295
-1078382
-1078251
-1078295
-1078235
-1078050
-1078177
-1078030
-1078017
-1077862
-1077746
-1077759
-1077685
-1077778
-1078549
-1077455
-1077374
-1077392
-1077340
-1077286
-1077347
-1077178
-1077074
-1076968
-1076885
-1076721
-1076704
-1076705
-1076717
-1076572
-1076491
-1076394
-1076222
-1076046
-1075745
-1075826
-1075804
-1075830
-1075754
-1075752
-1075628
-1075466
-1075314
-1075201
-1075169
-1075203
-1074997
-1074727
-1074855
-1075862
-1075018
-1074910
-1074764
-1074659
-1074463
-1074443
-1074417
-1074360
-1074191
-1074112
-1073919
-1073640
-1073371
-1073205
-1073260
-1072907
-1072156
-1072108
-1071964
-1071877
-1071720
-1071714
-1071680
-1071615
-1071507
-1071385
-1071194
-1071266
-1071224
-1071130
-1071106
-1071214
-1071205
-1071247
-1071084
-1071075
-1071081
-1071210
-1071247
-1071311
-1071195
-1071947
-1071932
-1071963
-1072081
-1071978
-1072009
-1072100
-1071973
-1072050
-1071952
-1071976
-1072058
-1072098
-1072093
-1071943
-1072063
-1072062
-1072013
-1071970
-1072016
-1072119
-1072173
-1072055
-1072061
-1072174
-1072279
-1072162
-1072217
-1072215
-1072319
-1072406
-1072488
-1072439
-1072561
-1072642
-1072726
-1072722
-1072736
-1072874
-1072995
-1073051
-1072996
-1073021
-1072982
-1072969
-1073074
-1073156
-1073064
-1072952
-1073054
-1073007
-1073087
-1073136
-1073107
-1073001
-1073007
-1073108
-1073124
-1073105
-1072887
-1072869
-1072983
-1072930
-1072919
-1072855
-1072880
-1072942
-1072897
-1072975
-1072794
-1072869
-1072934
-1072961
-1072942
-1073107
-1073097
-1073010
-1073024
-1073118
-1073111
-1073016
-1073071
-1073020
-1072996
-1073084
-1073177
-1073166
-1073111
-1073178
-1073225
-1073380
-1073448
-1073457
-1073442
-1073389
-1073342
-1073462
-1073376
-1073297
-1073393
-1073505
-1073380
-1073304
-1073455
-1073356
-1073328
-1073251
-1073409
-1073311
-1073320
-1073236
-1073370
-1073218
-1073306
-1073287
-1073381
-1073378
-1073279
-1073309
-1073220
-1073248
-1073489
-1073339
-1073516
-1073484
-1073487
-1073426
-1073467
-1073496
-1073423
-1073513
-1073373
-1073405
-1073507
-1073575
-1073675
-1073679
-1073830
-1073896
-1073918
-1073900
-1074040
-1074052
-1074068
-1074094
-1074046
-1074074
-1074035
-1074154
-1074093
-1074129
-1074173
-1074265
-1074139
-1074178
-1074192
-1074208
-1074193
-1074161
-1074178
-1074212
-1074342
-1074409
-1074400
-1074536
-1074476
-1074412
-1074423
-1074366
-1074495
-1074625
-1074512
-1074516
-1074590
-1074489
-1074638
-1074709
-1074597
-1074434
-1074605
-1074725
-1074717
-1074585
-1074580
-1074775
-1074721
-1074702
-1074634
-1074688
-1074755
-1074859
-1074950
-1075054
-1075019
-1074984
-1074948
-1074950
-1075000
-1074884
-1075053
-1075102
-1074934
-1074903
-1074952
-1075002
-1075118
-1075081
-1075058
-1075025
-1075135
-1075050
-1075127
-1074985
-1075018
-1075127
-1075023
-1075063
-1074990
-1075134
-1075008
-1074995
-1075153
-1075208
-1075031
-1075043
-1074935
-1074952
-1074877
-1074916
-1075003
-1074935
-1074990
-1075079
-1075065
-1075037
-1075036
-1075115
-1075037
-1075025
-1075125
-1075161
-1075240
-1075119
-1075082
-1075122
-1075125
-1075121
-1075074
-1075194
-1075284
-1075239
-1075171
-1075330
-1075350
-1075390
-1075427
-1075484
-1075427
-1075379
-1075502
-1075514
-1075639
-1075728
-1075706
-1075678
-1075824
-1075864
-1075825
-1075903
-1075855
-1075972
-1075945
-1075940
-1075928
-1075973
-1075816
-1075922
-1075919
-1075804
-1075817
-1075889
-1075816
-1075794
-1075881
-1075879
-1075805
-1075711
-1075723
-1075621
-1075488
-1075461
-1075344
-1075201
-1075246
-1074979
-1074896
-1074771
-1074691
-1074644
-1074558
-1074290
-1074188
-1074062
-1074057
-1073765
-1073699
-1073522
-1073454
-1073199
-1073079
-1072949
-1072895
-1072706
-1072518
-1072480
-1072385
-1072158
-1072162
-1072002
-1072105
-1072111
-1072007
-1071944
-1071975
-1072072
-1072019
-1072089
-1072017
-1072012
-1071937
-1071853
-1071866
-1071803
-1071717
-1071647
-1071691
-1071534
-1071480
-1071518
-1071503
-1071432
-1071234
-1071215
-1071127
-1070966
-1070778
-1070644
-1070557
-1070581
-1070453
-1070359
-1070370
-1070205
-1070161
-1070070
-1070098
-1070033
-1069940
-1069968
-1070059
-1070026
-1070113
-1070070
-1070199
-1070217
-1070104
-1070094
-1070224
-1070045
-1069994
-1070046
-1070104
-1069935
-1069961
-1069955
-1069931
-1069927
-1069908
-1069837
-1069852
-1069776
-1069956
-1069814
-1069833
-1069777
-1069635
-1069747
-1069672
-1069615
-1069718
-1069731
-1069770
-1069683
-1069816
-1069785
-1069709
-1069860
-1069907
-1069810
-1069889
-1069744
-1069813
-1069736
-1069831
-1069934
-1069923
-1069981
-1069942
-1069980
-1070037
-1069981
-1069976
-1069865
-1069911
-1069801
-1069778
-1069810
-1070026
-1070061
-1069958
-1069949
-1070025
-1069991
-1070174
-1070052
-1070063
-1070088
-1070133
-1070226
-1070268
-1070318
-1070366
-1070361
-1070357
-1070410
-1070341
-1070355
-1070413
-1070545
-1070591
-1070694
-1070669
-1070734
-1070744
-1070764
-1070806
-1070847
-1070910
-1070863
-1070870
-1070729
-1070754
-1070840
-1070835
-1070798
-1070870
-1070847
-1070798
-1070765
-1070826
-1070897
-1070903
-1070940
-1070971
-1070897
-1071004
-1070954
-1071024
-1070981
-1071069
-1071193
-1071145
-1071116
-1071184
-1071153
-1071217
-1071324
-1071459
-1071469
-1071587
-1071657
-1071629
-1071717
-1071770
-1071934
-1072030
-1072117
-1072218
-1072277
-1072511
-1072682
-1072706
-1072816
-1072912
-1072921
-1072989
-1073147
-1073140
-1073240
-1073314
-1073344
-1073380
-1073327
-1073248
-1073360
-1073089
-1073277
-1073322
-1073214
-1073203
-1073312
-1073216
-1073214
-1073128
-1073048
-1073043
-1072992
-1073048
-1073044
-1072970
-1072848
-1072881
-1072932
-1072801
-1072884
-1072934
-1073064
-1073004
-1073083
-1072972
-1073166
-1073122
-1073245
-1073387
-1073548
-1073650
-1073681
-1073813
-1073898
-1073972
-1073953
-1073991
-1074081
-1074197
-1074196
-1074325
-1074413
-1074374
-1074365
-1074438
-1074500
-1074450
-1074504
-1074465
-1074467
-1074571
-1074700
-1074777
-1074806
-1074716
-1074701
-1074920
-1074947
-1075006
-1075067
-1074966
-1074959
-1075054
-1075032
-1075125
-1075255
-1075378
-1075275
-1075436
-1075464
-1075554
-1075641
-1075693
-1075663
-1075769
-1075742
-1075765
-1075833
-1076006
-1076106
-1076242
-1076155
-1076305
-1076252
-1076220
-1076132
-1076230
-1076214
-1076201
-1076456
-1076428
-1076415
-1076448
-1076502
-1076446
-1076398
-1076336
-1076388
-1076372
-1076265
-1076353
-1076366
-1076319
-1076246
-1076431
-1076374
-1076317
-1076414
-1076453
-1076536
-1076621
-1076667
-1076644
-1076531
-1076793
-1076740
-1076760
-1076893
-1076911
-1077145
-1077198
-1077122
-1077300
-1077423
-1077514
-1077515
-1077584
-1077517
-1077577
-1077736
-1077890
-1077991
-1077967
-1078011
-1078134
-1078181
-1078185
-1078157
-1078217
-1078122
-1078220
-1078204
-1078238
-1077848
-1078082
-1078241
-1078239
-1078279
-1078268
-1078219
-1078339
-1078299
-1078376
-1078291
-1078390
-1078381
-1078441
-1078487
-1078598
-1078565
-1078641
-1078831
-1078992
-1078969
-1079106
-1079288
-1079227
-1079220
-1079407
-1079446
-1079411
-1079561
-1079573
-1079541
-1079660
-1079695
-1079663
-1079738
-1079802
-1079828
-1079795
-1079904
-1079903
-1079916
-1079836
-1079913
-1079873
-1080002
-1079949
-1079972
-1080708
-1080366
-1080245
-1080199
-1080322
-1080307
-1080296
-1080146
-1080262
-1080326
-1080327
-1080192
-1080237
-1080269
-1080276
-1080200
-1080226
-1080196
-1080228
-1080165
-1080249
-1080357
-1080428
-1080465
-1080397
-1080324
-1080298
-1080192
-1080166
-1080151
-1080114
-1080117
-1080068
-1079961
-1079995
-1079891
-1079756
-1079712
-1080425
-1079698
-1079565
-1079339
-1079319
-1079050
-1078757
-1078671
-1078540
-1078448
-1078104
-1078067
-1077970
-1077521
-1076088
-1076001
-1075828
-1075740
-1075420
-1075131
-1075211
-1075213
-1075121
-1074985
-1075065
-1074948
-1074931
-1074806
-1074788
-1074641
-1074610
-1074636
-1074675
-1074470
-1074571
-1073950
-1073937
-1074056
-1074036
-1074014
-1074109
-1074135
-1074046
-1073994
-1074076
-1073997
-1074058
-1074098
-1074141
-1074090
-1074006
-1074224
-1074144
-1074231
-1074164
-1074052
-1074126
-1074080
-1074052
-1073985
-1073897
-1073907
-1073869
-1073787
-1073722
-1073753
-1073659
-1073788
-1073697
-1073709
-1073631
-1073698
-1073663
-1074369
-1073847
-1073740
-1073582
-1073702
-1073591
-1073676
-1073672
-1073704
-1073937
-1073752
-1073743
-1073858
-1073800
-1073877
-1073936
-1073872
-1073997
-1074150
-1074248
-1074133
-1074277
-1074292
-1074425
-1074416
-1074355
-1074416
-1074540
-1074559
-1074638
-1074548
-1074651
-1074677
-1074691
-1074662
-1074845
-1074757
-1074764
-1074796
-1074867
-1074854
-1074914
-1074811
-1074823
-1074923
-1074963
-1074918
-1074986
-1074980
-1074904
-1074858
-1074695
-1074913
-1074866
-1074734
-1074805
-1074813
-1074801
-1074783
-1074647
-1074548
-1074546
-1074582
-1074454
-1074416
-1074343
-1074257
-1074269
-1074284
-1074162
-1074050
-1074074
-1074116
-1074071
-1074110
-1074152
-1074115
-1073990
-1073962
-1073552
-1073945
-1073851
-1073860
-1073816
-1073902
-1073893
-1073834
-1073901
-1073921
-1073839
-1073815
-1073692
-1073691
-1073658
-1073908
-1073919
-1073953
-1074045
-1074178
-1074217
-1074291
-1074224
-1074267
-1074362
-1074284
-1074507
-1074422
-1074411
-1074495
-1074588
-1074614
-1074545
-1074577
-1074707
-1074614
-1074689
-1074779
-1074655
-1074675
-1074687
-1074761
-1074728
-1074826
-1074659
-1074650
-1074679
-1074630
-1074703
-1074739
-1074662
-1074767
-1074741
-1074726
-1074706
-1074688
-1074616
-1074735
-1074772
-1074745
-1074704
-1074735
-1074666
-1074757
-1074845
-1074768
-1074761
-1074698
-1074685
-1074758
-1074668
-1074781
-1074788
-1074761
-1074747
-1074679
-1074804
-1074668
-1074756
-1074853
-1074803
-1074727
-1074738
-1074809
-1074758
-1074741
-1074754
-1074764
-1074726
-1074673
-1074791
-1074724
-1074705
-1074685
-1074730
-1074756
-1074811
-1074822
-1074905
-1074948
-1074977
-1075111
-1075166
-1075331
-1075479
-1075625
-1075610
-1075664
-1075697
-1075691
-1075869
-1075843
-1075855
-1075767
-1075766
-1075863
-1075903
-1076008
-1076038
-1076031
-1076209
-1076311
-1076243
-1076303
-1076246
-1076219
-1076243
-1076189
-1076203
-1076204
-1076109
-1076181
-1076207
-1076127
-1075999
-1076089
-1076123
-1076109
-1076077
-1076189
-1076145
-1076281
-1076356
-1076351
-1076353
-1076576
-1076617
-1076471
-1076524
-1076547
-1076626
-1076675
-1076749
-1076799
-1076879
-1076866
-1076836
-1076873
-1076866
-1076879
-1076961
-1076941
-1076885
-1076842
-1076938
-1076939
-1076935
-1076812
-1076829
-1076948
-1076897
-1076842
-1076873
-1076917
-1076905
-1076775
-1076974
-1076849
-1076978
-1076965
-1076902
-1077027
-1077061
-1077068
-1077130
-1077073
-1077047
-1077235
-1077177
-1077262
-1077423
-1077245
-1077392
-1077395
-1077499
-1077541
-1077561
-1077560
-1077503
-1077560
-1077565
-1077384
-1077367
-1077334
-1077318
-1077268
-1077206
-1077238
-1077071
-1076911
-1076987
-1076834
-1076722
-1076637
-1076469
-1076272
-1076168
-1076133
-1075980
-1075844
-1075614
-1075432
-1075271
-1075167
-1074925
-1074738
-1074531
-1073959
-1073794
-1073390
-1073057
-1073113
-1072985
-1072934
-1072515
-1072627
-1072565
-1072524
-1072568
-1072478
-1072527
-1072476
-1072294
-1072297
-1072192
-1072207
-1072099
-1071960
-1072064
-1071978
-1071841
-1071791
-1071805
-1071789
-1071795
-1071573
-1071587
-1071713
-1071673
-1071663
-1071453
-1071278
-1071228
-1071136
-1071021
-1070927
-1070812
-1070717
-1070703
-1070570
-1070412
-1070298
-1070103
-1070111
-1070087
-1070153
-1070247
-1070230
-1070269
-1070097
-1070057
-1070025
-1070043
-1070149
-1071135
-1070448
-1070220
-1070274
-1070359
-1070390
-1070239
-1070666
-1070829
-1071015
-1071191
-1071345
-1071445
-1071568
-1071613
-1071792
-1071794
-1071895
-1072135
-1072170
-1072187
-1072378
-1072370
-1072438
-1072463
-1072540
-1072508
-1072655
-1072714
-1072669
-1072740
-1072726
-1072722
-1072683
-1072678
-1072728
-1072770
-1072727
-1072751
-1072723
-1072749
-1072833
-1072774
-1072706
-1072825
-1072959
-1072937
-1073085
-1073146
-1073117
-1073182
-1073246
-1073327
-1073262
-1073277
-1073309
-1073153
-1073492
-1073547
-1073615
-1073714
-1073968
-1073973
-1073949
-1074020
-1074105
-1074244
-1074719
-1074491
-1074598
-1074624
-1074649
-1074705
-1074761
-1074810
-1074951
-1075008
-1074952
-1075109
-1075046
-1075089
-1075169
-1075238
-1075225
-1075221
-1075296
-1075304
-1075317
-1075513
-1075479
-1075652
-1075645
-1075620
-1075816
-1075867
-1075812
-1075732
-1075856
-1075946
-1076023
-1075935
-1075950
-1076002
-1076105
-1076160
-1076278
-1076415
-1076500
-1076603
-1076653
-1076763
-1076741
-1076840
-1077016
-1077091
-1077059
-1077138
-1077241
-1077440
-1077571
-1077690
-1078723
-1078031
-1077760
-1077767
-1077847
-1077950
-1078026
-1077969
-1078133
-1078287
-1078264
-1078217
-1078169
-1078319
-1078091
-1078287
-1078234
-1078218
-1078320
-1078264
-1078243
-1078390
-1078323
-1078396
-1078356
-1078463
-1078584
-1078630
-1078794
-1078776
-1078745
-1078704
-1078893
-1078927
-1078819
-1078939
-1078984
-1079029
-1079069
-1079238
-1079250
-1079228
-1079327
-1079329
-1079418
-1079426
-1079397
-1079501
-1079513
-1079600
-1079539
-1079688
-1079681
-1079749
-1079826
-1079788
-1079792
-1079911
-1080052
-1080014
-1080054
-1080104
-1080180
-1080142
-1080148
-1080233
-1080339
-1080390
-1080353
-1080434
-1080378
-1080490
-1080534
-1080670
-1080657
-1080699
-1080846
-1080731
-1080873
-1080727
-1080870
-1080803
-1080791
-1080812
-1080871
-1080897
-1080835
-1080962
-1080903
-1080954
-1080934
-1080907
-1080967
-1081022
-1081067
-1081065
-1081102
-1081179
-1081220
-1081278
-1081322
-1081441
-1081510
-1081589
-1081572
-1081576
-1081651
-1081641
-1081664
-1081819
-1081792
-1081874
-1081787
-1081861
-1081853
-1082042
-1082033
-1081964
-1082144
-1082113
-1082207
-1082162
-1082160
-1082196
-1082221
-1082183
-1082255
-1082274
-1082169
-1082263
-1082126
-1082114
-1082112
-1082049
-1082098
-1082679
-1082175
-1082142
-1082090
-1081890
-1081941
-1081905
-1082043
-1081920
-1081962
-1081970
-1082135
-1082269
-1082420
-1082587
-1082560
-1082692
-1082749
-1083452
-1083096
-1083112
-1083156
-1083100
-1083174
-1083167
-1083272
-1083431
-1083149
-1083309
-1083396
-1083519
-1083534
-1083479
-1083470
-1083435
-1083564
-1083456
-1083394
-1083487
-1083482
-1083471
-1083340
-1083311
-1083288
-1083293
-1083304
-1083249
-1083356
-1083337
-1083318
-1083417
-1083261
-1083285
-1083220
-1083155
-1083048
-1082951
-1083018
-1082894
-1082962
-1082782
-1082835
-1082738
-1082741
-1082595
-1082670
-1082501
-1082481
-1082424
-1082369
-1082229
-1082232
-1082166
-1082024
-1081643
-1081762
-1081798
-1081731
-1081523
-1081525
-1081441
-1081299
-1081191
-1081204
-1080991
-1080936
-1080813
-1080667
-1080439
-1080372
-1080332
-1080216
-1080151
-1080079
-1080053
-1079819
-1079751
-1079715
-1079504
-1079324
-1079275
-1079081
-1078950
-1078965
-1078935
-1078693
-1078524
-1078467
-1078016
-1078262
-1078207
-1078054
-1077926
-1077948
-1077925
-1077755
-1077679
-1077597
-1077678
-1077657
-1077613
-1077646
-1077685
-1077528
-1077511
-1077379
-1077391
-1077319
-1077324
-1077317
-1077232
-1077293
-1077167
-1076993
-1077048
-1076917
-1076876
-1076842
-1076771
-1076748
-1076723
-1076600
-1076460
-1076327
-1076333
-1076297
-1076017
-1076005
-1075819
-1075869
-1075800
-1075629
-1075596
-1075569
-1075498
-1075446
-1075351
-1075352
-1075185
-1075334
-1075239
-1075236
-1075193
-1075258
-1075215
-1075304
-1075291
-1075320
-1075197
-1075138
-1075170
-1075152
-1075140
-1075122
-1074992
-1075067
-1074960
-1074917
-1074907
-1074840
-1074869
-1074944
-1075103
-1075152
-1075037
-1075161
-1075515
-1075673
-1075786
-1075939
-1076000
-1076019
-1076116
-1076224
-1076215
-1076174
-1076248
-1076170
-1076158
-1076128
-1076231
-1076241
-1076730
-1076330
-1076210
-1076185
-1076154
-1076270
-1076221
-1076263
-1076238
-1076196
-1076314
-1076436
-1076309
-1076385
-1076432
-1076553
-1077681
-1076829
-1076706
-1076697
-1076600
-1076775
-1076786
-1076867
-1076872
-1076876
-1076900
-1076893
-1077055
-1077008
-1077048
-1076939
-1077173
-1077105
-1077129
-1077235
-1077234
-1077277
-1077186
-1077144
-1077128
-1077093
-1077184
-1077238
-1077429
-1077436
-1077413
-1077375
-1077475
-1077415
-1077502
-1077476
-1077494
-1077502
-1077616
-1077505
-1077542
-1077573
-1077458
-1077593
-1077618
-1077235
-1077557
-1077644
-1077625
-1077757
-1077630
-1077745
-1077900
-1077958
-1078066
-1078268
-1078291
-1078379
-1078465
-1078533
-1078414
-1078501
-1078693
-1078695
-1078685
-1078578
-1078657
-1078689
-1078674
-1078900
-1078874
-1078808
-1078797
-1078890
-1078815
-1078710
-1078605
-1078566
-1078586
-1078642
-1078561
-1078441
-1078479
-1078368
-1078421
-1078335
-1078440
-1078377
-1078425
-1078564
-1078525
-1078615
-1078593
-1078777
-1078899
-1078915
-1078990
-1078992
-1078989
-1078982
-1079137
-1079396
-1079363
-1079548
-1079457
-1079564
-1079655
-1079678
-1079818
-1079925
-1079995
-1080108
-1080151
-1080238
-1080312
-1080392
-1080404
-1080424
-1080552
-1080700
-1080815
-1080787
-1080841
-1080960
-1081021
-1081003
-1081115
-1081267
-1081326
-1081381
-1081342
-1081478
-1081487
-1081609
-1081685
-1081794
-1081830
-1081883
-1081842
-1082030
-1082117
-1082044
-1082234
-1082210
-1082223
-1082157
-1082245
-1082216
-1082347
-1082428
-1082333
-1082403
-1082459
-1082369
-1082361
-1082331
-1082560
-1083563
-1082761
-1082771
-1082680
-1082793
-1082881
-1082974
-1083062
-1083144
-1083206
-1083293
-1083171
-1083260
-1083346
-1083502
-1083549
-1083562
-1083670
-1083768
-1083761
-1084784
-1084100
-1084017
-1083973
-1083937
-1084024
-1084092
-1084131
-1084137
-1084205
-1084305
-1084330
-1084343
-1084306
-1084392
-1084448
-1084402
-1084271
-1084256
-1084187
-1084080
-1084029
-1084015
-1084179
-1084125
-1084075
-1084022
-1084089
-1084160
-1084191
-1084240
-1084196
-1084217
-1084478
-1084510
-1084447
-1084497
-1084518
-1084598
-1084655
-1084843
-1084898
-1085012
-1085134
-1085218
-1085246
-1085419
-1085518
-1085599
-1085646
-1085560
-1085675
-1085580
-1085865
-1085853
-1085979
-1085982
-1086066
-1086162
-1086213
-1086258
-1086204
-1086302
-1086361
-1086302
-1086167
-1086207
-1086240
-1086170
-1086292
-1086153
-1086079
-1086096
-1086282
-1086246
-1086174
-1086218
-1086096
-1085936
-1085910
-1085894
-1085796
-1085647
-1085723
-1085711
-1085661
-1085410
-1085298
-1085149
-1085093
-1085012
-1084928
-1084859
-1084931
-1085009
-1084922
-1084792
-1084721
-1084592
-1084548
-1084429
-1084349
-1084297
-1084200
-1084198
-1084176
-1084256
-1084113
-1084246
-1084275
-1084237
-1084142
-1084095
-1084087
-1084077
-1084015
-1083848
-1083998
-1083993
-1083857
-1083950
-1083895
-1083969
-1083976
-1083760
-1083641
-1083657
-1083503
-1083495
-1083461
-1083509
-1083487
-1083549
-1083472
-1083429
-1083358
-1083387
-1083294
-1083322
-1082976
-1083006
-1082971
-1083029
-1082780
-1082892
-1083020
-1083026
-1083059
-1083046
-1082985
-1082756
-1082804
-1082740
-1082905
-1082826
-1082744
-1082678
-1082616
-1082573
-1082502
-1082470
-1082398
-1082356
-1082460
-1082386
-1082363
-1082411
-1082282
-1082310
-1082209
-1082291
-1082103
-1082199
-1082156
-1082035
-1082098
-1082139
-1082063
-1082130
-1081934
-1082024
-1082134
-1082179
-1082106
-1082244
-1082301
-1082345
-1082338
-1082416
-1082319
-1082488
-1082545
-1082509
-1082656
-1082635
-1082634
-1082601
-1082370
-1082420
-1082481
-1082589
-1082586
-1082522
-1082533
-1082547
-1082741
-1082604
-1082680
-1082732
-1082607
-1082760
-1082883
-1082975
-1083009
-1083003
-1082964
-1083093
-1083044
-1083099
-1083028
-1083144
-1083257
-1083223
-1083216
-1083371
-1083360
-1083427
-1083602
-1083674
-1083686
-1083636
-1083670
-1083835
-1083883
-1084039
-1083980
-1083988
-1084021
-1084020
-1084035
-1084131
-1084010
-1084055
-1083994
-1084104
-1084085
-1084041
-1083976
-1084046
-1083975
-1083992
-1084126
-1084166
-1084175
-1084227
-1084144
-1084249
-1084297
-1084313
-1084334
-1084422
-1084298
-1084296
-1084332
-1084346
-1084310
-1084422
-1084329
-1084407
-1084384
-1084296
-1084475
-1084630
-1084631
-1084733
-1084811
-1084879
-1084904
-1084980
-1085116
-1085074
-1085097
-1085270
-1085252
-1085319
-1086164
-1085628
-1085637
-1085572
-1085691
-1085593
-1085750
-1085733
-1085796
-1085803
-1085877
-1085867
-1085946
-1086020
-1086032
-1086067
-1086104
-1086110
-1086011
-1086065
-1086036
-1086124
-1086110
-1086251
-1086268
-1086329
-1086289
-1086414
-1086477
-1086748
-1086771
-1086722
-1086616
-1086722
-1086608
-1086666
-1086546
-1086558
-1086479
-1086366
-1086421
-1086333
-1086450
-1086448
-1086537
-1086488
-1086654
-1086438
-1086710
-1086851
-1086848
-1086976
-1087133
-1087341
-1087402
-1087525
-1087607
-1087722
-1087542
-1087491
-1087606
-1087656
-1087526
-1087502
-1087529
-1087395
-1087353
-1087478
-1087457
-1087393
-1087473
-1087452
-1087549
-1087514
-1087661
-1087783
-1087840
-1087888
-1087854
-1087968
-1087909
-1088017
-1087973
-1088166
-1088443
-1088493
-1088517
-1088523
-1088576
-1088724
-1088631
-1088672
-1088742
-1088807
-1089044
-1088885
-1088772
-1088939
-1088822
-1088844
-1088851
-1088948
-1089054
-1089133
-1089164
-1089293
-1089347
-1089271
-1089384
-1089471
-1089518
-1089604
-1089682
-1089665
-1089597
-1089628
-1089567
-1089547
-1089569
-1089639
-1089543
-1089574
-1089370
-1089540
-1089547
-1089572
-1089625
-1089558
-1089480
-1089504
-1089436
-1089451
-1089327
-1089238
-1089161
-1089844
-1089301
-1089038
-1088917
-1088727
-1088697
-1088466
-1088388
-1088266
-1088022
-1087928
-1087738
-1087441
-1087304
-1086995
-1087003
-1086664
-1086718
-1086696
-1086508
-1086510
-1086433
-1086275
-1086252
-1086186
-1086082
-1086070
-1085891
-1085854
-1085690
-1085630
-1085527
-1085356
-1085294
-1085150
-1085052
-1084942
-1084867
-1084693
-1084580
-1084586
-1084327
-1084382
-1084265
-1084264
-1084110
-1084103
-1084065
-1084061
-1083944
-1083842
-1083946
-1083834
-1083657
-1083628
-1083593
-1083612
-1083556
-1083482
-1083410
-1083311
-1083241
-1083094
-1083071
-1082854
-1082855
-1082840
-1082850
-1082784
-1082720
-1082689
-1082548
-1082482
-1082605
-1082504
-1082473
-1082234
-1082220
-1082228
-1082061
-1082055
-1081925
-1082045
-1081986
-1081959
-1081914
-1081856
-1081833
-1081975
-1081769
-1081732
-1081870
-1081855
-1081911
-1081864
-1081885
-1081886
-1081985
-1081961
-1081894
-1081870
-1081979
-1081922
-1081883
-1081926
-1081988
-1081947
-1082001
-1081980
-1082015
-1082005
-1082142
-1082248
-1082242
-1082244
-1082191
-1082252
-1082382
-1082451
-1082470
-1082352
-1082424
-1082402
-1082613
-1082579
-1082741
-1082859
-1082981
-1083131
-1083163
-1083112
-1083071
-1083167
-1083368
-1083310
-1083434
-1083431
-1083401
-1083425
-1083486
-1083458
-1083469
-1083468
-1083440
-1083566
-1083550
-1083676
-1083679
-1083660
-1083719
-1083651
-1083762
-1083845
-1083878
-1083857
-1083824
-1083978
-1083910
-1083806
-1083961
-1083973
-1084037
-1084068
-1084069
-1084024
-1083909
-1083920
-1083871
-1083982
-1083837
-1084090
-1084054
-1084130
-1084135
-1084174
-1084294
-1084242
-1084217
-1084132
-1084220
-1084297
-1084300
-1084521
-1084574
-1084534
-1084686
-1084748
-1084774
-1084682
-1084595
-1084640
-1084772
-1084939
-1084996
-1084876
-1084934
-1085051
-1085000
-1084976
-1084923
-1085194
-1085169
-1085190
-1085277
-1085382
-1085486
-1085424
-1085463
-1085290
-1085355
-1085248
-1085427
-1085517
-1085509
-1085458
-1085385
-1085456
-1085530
-1085314
-1085257
-1085240
-1085366
-1085297
-1085358
-1085287
-1085437
-1085426
-1085417
-1085502
-1085491
-1085390
-1085392
-1085480
-1085629
-1085818
-1085766
-1085777
-1085767
-1085723
-1085782
-1085921
-1086000
-1085896
-1086033
-1086058
-1086028
-1086065
-1086070
-1086029
-1086099
-1086091
-1086165
-1086226
-1086305
-1085934
-1086037
-1086161
-1086235
-1086153
-1086117
-1086230
-1086125
-1086119
-1086273
-1086195
-1086166
-1086309
-1086339
-1086370
-1086460
-1086503
-1086528
-1086551
-1086532
-1086663
-1086255
-1086443
-1086412
-1086597
-1086557
-1086568
-1086739
-1086870
-1086874
-1086908
-1086717
-1086744
-1086765
-1086770
-1086690
-1086653
-1086648
-1086662
-1086540
-1086665
-1086749
-1086553
-1086486
-1086501
-1086628
-1086649
-1086694
-1086660
-1086676
-1086645
-1086738
-1086694
-1086664
-1086642
-1086668
-1086804
-1086944
-1086900
-1087027
-1087040
-1087160
-1087013
-1087051
-1087146
-1087113
-1087070
-1087270
-1087174
-1087169
-1087188
-1087244
-1087205
-1087177
-1087227
-1087124
-1087236
-1087227
-1087354
-1087378
-1087236
-1087344
-1087371
-1087380
-1087377
-1087351
-1087434
-1087368
-1087468
-1087447
-1087504
-1087606
-1087538
-1087479
-1087554
-1087604
-1087501
-1087582
-1087586
-1087457
-1087493
-1087517
-1087433
-1087467
-1087470
-1087382
-1087380
-1087376
-1087394
-1087506
-1087394
-1087450
-1087507
-1087407
-1087378
-1087476
-1087480
-1087454
-1087479
-1087397
-1087424
-1087322
-1087371
-1087278
-1087198
-1087188
-1087100
-1087202
-1087099
-1087155
-1087147
-1087222
-1087203
-1087100
-1087025
-1086869
-1086824
-1086799
-1086847
-1086734
-1086791
-1086717
-1086645
-1086660
-1086640
-1086508
-1086563
-1086502
-1086551
-1086458
-1086530
-1086435
-1086479
-1086409
-1086379
-1086251
-1086244
-1086308
-1086277
-1086228
-1086186
-1086147
-1086058
-1085991
-1085955
-1085898
-1085995
-1086054
-1086009
-1085901
-1085568
-1085810
-1085752
-1085539
-1085345
-1085357
-1085204
-1085098
-1084973
-1085972
-1085136
-1084702
-1084543
-1084341
-1084216
-1084113
-1084019
-1084121
-1083965
-1083682
-1083597
-1083378
-1083311
-1083144
-1083068
-1082872
-1082773
-1082534
-1082511
-1082367
-1082173
-1081936
-1081881
-1081859
-1081677
-1081535
-1081525
-1081442
-1081358
-1081291
-1081280
-1080985
-1081040
-1081000
-1080761
-1080678
-1080777
-1080687
-1080561
-1080492
-1080534
-1080480
-1080420
-1080305
-1080150
-1080220
-1080161
-1079936
-1080028
-1079992
-1079838
-1079743
-1079644
-1079636
-1079633
-1079488
-1079484
-1079446
-1079467
-1079390
-1079358
-1079266
-1079112
-1079049
-1079017
-1078915
-1078813
-1078851
-1078887
-1078747
-1078886
-1078751
-1078861
-1078823
-1078625
-1078538
-1078544
-1078584
-1078546
-1078598
-1078589
-1078491
-1078574
-1078433
-1078346
-1078099
-1078194
-1078109
-1078124
-1078169
-1078013
-1078147
-1078014
-1078013
-1078090
-1078015
-1077982
-1077783
-1077749
-1077631
-1077543
-1077531
-1077474
-1077343
-1077463
-1077423
-1077448
-1077378
-1077551
-1077492
-1077589
-1077469
-1077465
-1077654
-1077551
-1077602
-1077552
-1077556
-1077713
-1077770
-1077947
-1077928
-1078125
-1078095
-1078169
-1078199
-1078187
-1078156
-1078131
-1078228
-1078386
-1078550
-1078687
-1078798
-1078422
-1078759
-1079054
-1079043
-1079227
-1079260
-1079271
-1079364
-1079395
-1079317
-1079484
-1079542
-1079609
-1079702
-1079953
-1079975
-1080134
-1080165
-1080282
-1080263
-1080182
-1080179
-1080323
-1080441
-1080408
-1080465
-1080436
-1080482
-1080577
-1080475
-1080354
-1080468
-1080436
-1080587
-1080512
-1080661
-1080594
-1080465
-1080358
-1080433
-1080489
-1080350
-1080466
-1080555
-1080519
-1080531
-1080546
-1080586
-1080628
-1080792
-1080834
-1080977
-1081049
-1081138
-1081268
-1081282
-1081298
-1081143
-1081328
-1081453
-1081603
-1081632
-1081577
-1081647
-1081777
-1081806
-1081851
-1081888
-1081978
-1081973
-1081984
-1082080
-1082124
-1081853
-1081960
-1082047
-1082059
-1082123
-1082116
-1082154
-1082072
-1082075
-1082023
-1082173
-1081921
-1082022
-1082149
-1082190
-1082104
-1082075
-1081995
-1081944
-1081877
-1081998
-1081873
-1081971
-1081878
-1081899
-1081758
-1081706
-1081692
-1081673
-1081677
-1081811
-1081797
-1081745
-1081830
-1081792
-1081867
-1081875
-1081743
-1081775
-1081756
-1081890
-1081896
-1081963
-1081871
-1082012
-1081957
-1081970
-1082071
-1082128
-1082159
-1082312
-1082338
-1082326
-1082304
-1082322
-1082458
-1082402
-1082468
-1082556
-1082567
-1082568
-1082561
-1082667
-1082674
-1082668
-1082636
-1082535
-1082569
-1082725
-1082862
-1082868
-1082876
-1082822
-1082928
-1082811
-1082756
-1082753
-1082861
-1082873
-1082824
-1082935
-1082876
-1082920
-1082889
-1082997
-1083036
-1082918
-1082922
-1082934
-1082896
-1082925
-1083043
-1083210
-1083120
-1083034
-1083081
-1083040
-1083236
-1083216
-1083243
-1083212
-1083218
-1083220
-1083266
-1083251
-1083116
-1083166
-1083193
-1083168
-1083106
-1083134
-1083204
-1083073
-1083196
-1083153
-1083157
-1083099
-1083022
-1083084
-1083133
-1083107
-1083048
-1083008
-1083053
-1082888
-1083004
-1082889
-1082866
-1082772
-1082835
-1082946
-1082866
-1082814
-1082804
-1082964
-1082616
-1082747
-1082846
-1082963
-1083057
-1083736
-1083147
-1083165
-1083101
-1083128
-1082974
-1082977
-1083060
-1083120
-1083129
-1082881
-1083026
-1083004
-1082946
-1082918
-1083042
-1082925
-1083037
-1083065
-1083084
-1083078
-1083036
-1082997
-1083009
-1083100
-1083173
-1082829
-1083129
-1083254
-1083400
-1083503
-1083426
-1083338
-1083356
-1083550
-1083537
-1083560
-1083618
-1083750
-1083871
-1083784
-1083853
-1083890
-1083888
-1083859
-1083934
-1084018
-1084065
-1084076
-1084053
-1084334
-1084114
-1084213
-1084243
-1084120
-1084119
-1084163
-1084028
-1084021
-1084153
-1084191
-1084208
-1084225
-1084273
-1084146
-1084083
-1084223
-1084250
-1083942
-1084161
-1084254
-1084226
-1084205
-1084328
-1084301
-1084243
-1084272
-1084224
-1084309
-1084261
-1084243
-1084126
-1084079
-1084104
-1083968
-1083954
-1084863
-1084619
-1083930
-1083690
-1083618
-1083695
-1083546
-1083325
-1083373
-1083349
-1083281
-1083121
-1082982
-1082894
-1082919
-1082968
-1082852
-1082720
-1082624
-1082523
-1082310
-1082261
-1082243
-1082116
-1082092
-1081962
-1081918
-1081703
-1081587
-1081582
-1081499
-1081457
-1081259
-1081160
-1081226
-1081028
-1080922
-1080981
-1080915
-1080831
-1080726
-1080756
-1080629
-1080506
-1080453
-1080531
-1080472
-1080359
-1080188
-1080219
-1080188
-1080033
-1080091
-1080005
-1079916
-1079929
-1079893
-1079843
-1079700
-1079668
-1079572
-1079424
-1079351
-1079354
-1079421
-1079257
-1079171
-1079104
-1079166
-1079035
-1079085
-1078969
-1078961
-1078875
-1078988
-1078864
-1079004
-1078984
-1078949
-1078910
-1078867
-1078773
-1078737
-1078796
-1078684
-1078612
-1078689
-1078568
-1078674
-1078463
-1078482
-1078533
-1078506
-1078447
-1078357
-1078318
-1078403
-1078432
-1078387
-1078234
-1078300
-1078295
-1078416
-1078343
-1078119
-1078287
-1078407
-1078528
-1078590
-1078531
-1078559
-1078516
-1078579
-1078641
-1078378
-1078710
-1078806
-1078909
-1078903
-1078937
-1078936
-1078983
-1079045
-1079002
-1079105
-1079075
-1079135
-1079157
-1079159
-1079122
-1079205
-1079308
-1079414
-1079473
-1079470
-1079431
-1079557
-1079466
-1079516
-1079524
-1079581
-1079692
-1079632
-1079754
-1079882
-1079899
-1079949
-1080061
-1079991
-1079998
-1080113
-1080297
-1080253
-1080340
-1080443
-1080503
-1080581
-1080666
-1080524
-1080570
-1080670
-1080848
-1080887
-1080895
-1080917
-1080947
-1080850
-1080839
-1080947
-1080969
-1080953
-1080838
-1081006
-1080748
-1080855
-1080932
-1080945
-1081001
-1080944
-1080881
-1080787
-1080944
-1080902
-1081023
-1080851
-1080909
-1080877
-1080794
-1080775
-1080752
-1080733
-1080741
-1080846
-1080797
-1080881
-1080954
-1080951
-1080906
-1080921
-1080979
-1080940
-1080985
-1080933
-1081045
-1081068
-1081060
-1081041
-1080996
-1080961
-1080909
-1080983
-1080956
-1080951
-1080926
-1080901
-1080915
-1080963
-1080849
-1080903
-1080881
-1080941
-1081066
-1080953
-1081138
-1081124
-1081155
-1081103
-1081108
-1081835
-1081296
-1081153
-1081320
-1081205
-1081400
-1081438
-1081378
-1081463
-1081434
-1081569
-1081621
-1081586
-1081716
-1081806
-1081823
-1081869
-1081972
-1082082
-1082130
-1082109
-1082009
-1082127
-1082080
-1082270
-1082226
-1081920
-1082327
-1082395
-1082460
-1082436
-1082460
-1082579
-1082534
-1082497
-1082638
-1082754
-1082693
-1082788
-1082756
-1082813
-1082782
-1082710
-1082673
-1082792
-1082783
-1082779
-1082798
-1082783
-1082903
-1082974
-1083011
-1083047
-1082960
-1082967
-1083046
-1082960
-1082660
-1082851
-1082944
-1082833
-1082867
-1082877
-1082795
-1082757
-1082822
-1082664
-1082892
-1082832
-1082783
-1082715
-1082731
-1082624
-1082698
-1082709
-1082658
-1082644
-1082686
-1082616
-1082764
-1082667
-1082715
-1082613
-1082579
-1082726
-1082803
-1082765
-1082795
-1082862
-1082951
-1082810
-1082947
-1082946
-1083036
-1083027
-1082914
-1082889
-1082858
-1082932
-1083076
-1082948
-1083018
-1082893
-1083018
-1082898
-1083084
-1083107
-1082914
-1083068
-1083117
-1083042
-1083112
-1083076
-1083057
-1083156
-1083234
-1083114
-1083207
-1083246
-1083130
-1083185
-1083172
-1083268
-1083353
-1083339
-1083359
-1083419
-1083392
-1083430
-1083476
-1083482
-1083564
-1083584
-1083687
-1083720
-1083758
-1083868
-1083861
-1083842
-1083867
-1083677
-1083732
-1083713
-1083824
-1083853
-1083698
-1083795
-1083717
-1083695
-1083664
-1083582
-1083690
-1083646
-1083700
-1083716
-1083715
-1083947
-1084019
-1084007
-1084161
-1084168
-1084276
-1084173
-1084216
-1084333
-1084509
-1084518
-1084742
-1084822
-1084746
-1084785
-1084794
-1084981
-1085101
-1085028
-1085214
-1085130
-1085076
-1085254
-1085146
-1085110
-1085051
-1085152
-1085220
-1085137
-1084913
-1085067
-1084929
-1084990
-1084920
-1084889
-1084722
-1084778
-1084631
-1084618
-1084374
-1084332
-1084124
-1084163
-1084010
-1083868
-1083738
-1083546
-1083446
-1083278
-1083107
-1083108
-1082979
-1082729
-1082555
-1082532
-1082225
-1082165
-1082055
-1081981
-1081723
-1081669
-1081444
-1081338
-1081197
-1081094
-1080982
-1080894
-1080820
-1080696
-1080489
-1080547
-1080386
-1080272
-1080309
-1080244
-1080146
-1080015
-1079961
-1079883
-1079914
-1079729
-1079675
-1079660
-1079467
-1079508
-1079342
-1079286
-1079284
-1079180
-1079123
-1079074
-1078838
-1078884
-1078729
-1078610
-1078528
-1078329
-1078174
-1078248
-1078047
-1078001
-1077897
-1077786
-1077744
-1077603
-1077600
-1077450
-1077431
-1077272
-1077258
-1077263
-1077165
-1077187
-1077019
-1077159
-1076991
-1076959
-1076972
-1076942
-1076766
-1076835
-1076782
-1076643
-1076541
-1076468
-1076500
-1076345
-1076236
-1076232
-1076200
-1076123
-1076005
-1076006
-1075880
-1075700
-1075725
-1075604
-1075726
-1075629
-1075603
-1075628
-1075715
-1075689
-1075623
-1075532
-1075557
-1075565
-1075599
-1075620
-1075655
-1075556
-1075469
-1075470
-1075428
-1075603
-1075586
-1075519
-1075534
-1075443
-1075420
-1075624
-1075437
-1075535
-1075527
-1075429
-1075501
-1075442
-1075404
-1075370
-1075238
-1075265
-1075189
-1075228
-1075299
-1075213
-1075224
-1075218
-1075268
-1075287
-1075275
-1075325
-1075227
-1075283
-1075203
-1075251
-1075327
-1075278
-1075282
-1075257
-1075402
-1075486
-1075460
-1075436
-1075486
-1075549
-1075556
-1075666
-1075587
-1075487
-1075479
-1075455
-1075576
-1075526
-1075586
-1075658
-1075725
-1075787
-1075773
-1075696
-1075659
-1075809
-1075802
-1075813
-1075832
-1075896
-1075942
-1075996
-1076006
-1076167
-1076041
-1076161
-1076170
-1076162
-1076175
-1076074
-1076141
-1076009
-1076103
-1076048
-1076030
-1076167
-1076148
-1076066
-1076056
-1076043
-1075978
-1076127
-1076022
-1076157
-1076120
-1076173
-1076243
-1076296
-1076351
-1076295
-1076274
-1076253
-1076241
-1076180
-1076272
-1077185
-1076630
-1076296
-1076208
-1076273
-1076395
-1076282
-1076271
-1076402
-1076512
-1076421
-1076365
-1076351
-1076326
-1076397
-1076445
-1076529
-1076531
-1076524
-1076558
-1076513
-1076510
-1076594
-1076734
-1076708
-1076704
-1076841
-1076883
-1076904
-1076896
-1076928
-1076964
-1077007
-1077081
-1077140
-1077320
-1077241
-1077172
-1077292
-1077316
-1077399
-1077264
-1077375
-1077335
-1077438
-1077457
-1077372
-1077501
-1077553
-1077464
-1077488
-1077320
-1077306
-1077269
-1077214
-1077179
-1077134
-1077126
-1077117
-1077057
-1077105
-1076935
-1076899
-1076709
-1076675
-1076798
-1076781
-1076776
-1076893
-1076928
-1076956
-1076935
-1076918
-1076940
-1076927
-1076946
-1076924
-1076528
-1076804
-1076865
-1077088
-1077026
-1077041
-1077189
-1077138
-1077159
-1077367
-1077360
-1077480
-1077511
-1077596
-1077759
-1077909
-1077964
-1078027
-1078034
-1077969
-1078043
-1078182
-1078235
-1078286
-1078420
-1078479
-1078398
-1078429
-1078362
-1078512
-1078543
-1078575
-1078420
-1078561
-1078566
-1078477
-1078474
-1078462
-1078486
-1078591
-1078624
-1078626
-1078638
-1078594
-1078618
-1078481
-1078515
-1078422
-1078415
-1078089
-1078369
-1078336
-1078393
-1078440
-1078321
-1078266
-1078243
-1078245
-1078350
-1078260
-1078397
-1078385
-1078321
-1078311
-1078428
-1078245
-1078369
-1078313
-1078392
-1078365
-1078276
-1078446
-1078459
-1078389
-1078392
-1078427
-1078490
-1078450
-1078482
-1078506
-1078565
-1078567
-1078645
-1078592
-1078687
-1078769
-1078853
-1078702
-1078689
-1078807
-1078759
-1078845
-1078790
-1078760
-1078736
-1078902
-1078841
-1078839
-1078978
-1078955
-1079030
-1078985
-1078968
-1079093
-1079054
-1078989
-1079030
-1079113
-1079129
-1079159
-1079201
-1079362
-1079430
-1079456
-1079459
-1079460
-1079452
-1079512
-1079522
-1079649
-1079763
-1079849
-1079910
-1079906
-1079903
-1079840
-1079757
-1079882
-1079806
-1079766
-1079931
-1079893
-1079817
-1079700
-1079716
-1079624
-1079703
-1079601
-1079572
-1079582
-1079427
-1080014
-1079479
-1079371
-1079255
-1079215
-1079071
-1079012
-1078914
-1078539
-1078496
-1078466
-1078391
-1078466
-1078299
-1078238
-1078081
-1077999
-1077727
-1077748
-1077696
-1077662
-1077553
-1077538
-1077333
-1077219
-1077178
-1077102
-1077040
-1076855
-1076879
-1076656
-1076639
-1076597
-1076409
-1076261
-1076357
-1076219
-1076081
-1076208
-1076057
-1076001
-1076107
-1075905
-1075810
-1075705
-1075657
-1076336
-1075731
-1075644
-1075423
-1075300
-1075306
-1075202
-1075142
-1075024
-1074835
-1074821
-1074737
-1074659
-1074754
-1074806
-1074772
-1074648
-1074507
-1074462
-1074552
-1074560
-1074382
-1074275
-1074296
-1074216
-1074260
-1074162
-1074145
-1074082
-1074012
-1073993
-1074031
-1074111
-1073949
-1073954
-1074056
-1073969
-1073983
-1073846
-1073805
-1073724
-1073710
-1073796
-1073703
-1073455
-1073577
-1073534
-1073514
-1073398
-1073256
-1073333
-1073318
-1073237
-1073153
-1073038
-1073164
-1073221
-1073020
-1073150
-1073034
-1073114
-1073074
-1073055
-1072985
-1072975
-1073054
-1072979
-1073146
-1073044
-1073108
-1073020
-1073123
-1073185
-1073284
-1073299
-1073468
-1073504
-1073397
-1073380
-1073496
-1073517
-1073542
-1073577
-1073678
-1073782
-1073805
-1073862
-1073996
-1074101
-1074069
-1074036
-1074069
-1074127
-1074081
-1074243
-1074248
-1074334
-1074482
-1074470
-1074596
-1074557
-1074654
-1074692
-1074762
-1074894
-1074963
-1074944
-1075030
-1075059
-1075045
-1075036
-1075049
-1074999
-1075123
-1075130
-1075143
-1075177
-1075142
-1075035
-1075103
-1075126
-1075016
-1074929
-1075180
-1075110
-1075222
-1074969
-1075002
-1074944
-1074976
-1075076
-1075111
-1075148
-1075135
-1075183
-1075087
-1075060
-1075171
-1075257
-1075190
-1075197
-1075203
-1075180
-1075236
-1075232
-1075245
-1075251
-1075249
-1075220
-1075323
-1075290
-1075374
-1075449
-1075486
-1075386
-1075367
-1075364
-1075487
-1075592
-1075554
-1075665
-1075641
-1075845
-1075821
-1075947
-1075979
-1076081
-1076077
-1076116
-1076232
-1076117
-1076229
-1075981
-1076422
-1076497
-1076564
-1076756
-1076730
-1076741
-1076829
-1076943
-1077023
-1077095
-1077064
-1077209
-1077252
-1077401
-1077406
-1077447
-1077584
-1077502
-1077674
-1077694
-1077711
-1077610
-1077732
-1077814
-1077743
-1077931
-1077962
-1077967
-1077971
-1077923
-1077915
-1077970
-1078056
-1077940
-1078006
-1078090
-1078078
-1078125
-1078109
-1078137
-1078171
-1078276
-1078315
-1078872
-1078530
-1078361
-1078317
-1078311
-1078303
-1078409
-1078507
-1078402
-1078406
-1078477
-1078572
-1078494
-1078480
-1078609
-1078567
-1078585
-1078565
-1078806
-1078747
-1078590
-1078786
-1078779
-1078920
-1079012
-1079052
-1079145
-1079234
-1079274
-1079228
-1079307
-1079447
-1079523
-1080565
-1079942
-1079842
-1079849
-1080086
-1080034
-1080164
-1080022
-1080216
-1080436
-1080456
-1080655
-1080697
-1080653
-1080812
-1080927
-1080932
-1080996
-1081055
-1081223
-1081299
-1081271
-1081397
-1081424
-1081439
-1081552
-1081726
-1081741
-1081776
-1081806
-1081927
-1082015
-1082113
-1082212
-1082415
-1082518
-1082612
-1082729
-1082804
-1082784
-1082816
-1082986
-1083086
-1083288
-1083326
-1083152
-1083424
-1083557
-1083615
-1083737
-1084005
-1083971
-1084103
-1084225
-1084424
-1084409
-1084481
-1084582
-1084686
-1085035
-1085346
-1085321
-1085696
-1086018
-1086082
-1086183
-1086111
-1086240
-1086352
-1086884
-1086824
-1086996
-1087093
-1087155
-1087157
-1087142
-1087253
-1087278
-1087413
-1087466
-1087485
-1087656
-1087548
-1087704
-1087637
-1087727
-1087485
-1087709
-1087698
-1087606
-1087742
-1087749
-1087757
-1087751
-1087885
-1087962
-1087975
-1087985
-1087856
-1087804
-1087945
-1087793
-1087823
-1087830
-1087906
-1087932
-1088019
-1087790
-1087923
-1087775
-1087839
-1087763
-1087747
-1087788
-1087795
-1087754
-1087662
-1087638
-1087671
-1087622
-1087508
-1087499
-1087378
-1087393
-1087442
-1087398
-1087428
-1087492
-1087384
-1087341
-1087280
-1087189
-1087396
-1087377
-1087264
-1087307
-1087202
-1087195
-1086934
-1087096
-1087183
-1087135
-1087277
-1087261
-1087159
-1087359
-1087341
-1087231
-1087324
-1087080
-1087287
-1087144
-1087192
-1087124
-1087233
-1087193
-1087294
-1087082
-1087026
-1086970
-1086938
-1087063
-1086959
-1086916
-1087020
-1086891
-1086900
-1086841
-1086785
-1086445
-1086619
-1086741
-1086639
-1086728
-1086710
-1086711
-1087047
-1086647
-1086523
-1086412
-1086456
-1086533
-1086440
-1086418
-1086529
-1086456
-1086422
-1086268
-1086417
-1086216
-1086263
-1085792
-1086036
-1086151
-1086169
-1086092
-1086346
-1086286
-1086288
-1086398
-1086357
-1086249
-1086331
-1086529
-1086467
-1086476
-1086448
-1086176
-1086397
-1086598
-1086517
-1086560
-1086660
-1086785
-1086815
-1086739
-1086849
-1086968
-1086826
-1087001
-1087069
-1087019
-1086813
-1087046
-1087134
-1087186
-1087305
-1087329
-1087501
-1087446
-1087459
-1087619
-1087744
-1087790
-1087863
-1087899
-1087994
-1088051
-1088219
-1088239
-1088387
-1088358
-1088452
-1088459
-1088539
-1088461
-1088549
-1088615
-1088604
-1088675
-1088672
-1088819
-1088988
-1088871
-1089016
-1089167
-1089163
-1089186
-1089169
-1089177
-1089264
-1089338
-1089180
-1089366
-1089380
-1089412
-1089359
-1089296
-1089310
-1089366
-1089529
-1089463
-1089547
-1089754
-1089853
-1089942
-1090025
-1090135
-1090205
-1090172
-1090291
-1090387
-1090464
-1090488
-1090617
-1090664
-1090669
-1090648
-1090841
-1090807
-1090785
-1090781
-1090802
-1091108
-1091034
-1090991
-1091002
-1091087
-1090960
-1091020
-1090983
-1090977
-1091055
-1091295
-1091189
-1091280
-1091335
-1091246
-1091206
-1091275
-1091272
-1091298
-1091361
-1091508
-1091552
-1091557
-1091224
-1091527
-1091515
-1091562
-1091646
-1091632
-1091692
-1091817
-1091705
-1091637
-1091731
-1091740
-1091775
-1091747
-1091880
-1092025
-1091989
-1092145
-1092076
-1092062
-1092137
-1092261
-1092175
-1092281
-1092287
-1092291
-1092358
-1092353
-1092460
-1092494
-1092294
-1092359
-1092439
-1092266
-1092244
-1092330
-1092328
-1092368
-1091858
-1092021
-1091962
-1092070
-1092095
-1092031
-1092044
-1091933
-1091940
-1091871
-1091744
-1091731
-1091560
-1091450
-1091340
-1091337
-1091268
-1091135
-1091088
-1091004
-1090871
-1090816
-1090877
-1090728
-1090644
-1090690
-1090759
-1090686
-1090655
-1090714
-1090467
-1090502
-1090488
-1090420
-1090388
-1090370
-1090325
-1090271
-1090152
-1090032
-1090050
-1090082
-1089933
-1089977
-1089719
-1089666
-1089747
-1089744
-1089809
-1089720
-1089580
-1089492
-1089522
-1089464
-1089437
-1089425
-1089578
-1089402
-1089517
-1089538
-1089474
-1089442
-1089592
-1089519
-1089289
-1089267
-1089255
-1089194
-1089141
-1089099
-1088888
-1088957
-1088886
-1088812
-1088668
-1088605
-1088517
-1088328
-1088288
-1088237
-1088214
-1088126
-1087945
-1087761
-1087617
-1087659
-1087618
-1087371
-1087436
-1087268
-1087193
-1087217
-1087060
-1087051
-1087049
-1086877
-1086950
-1086886
-1086905
-1086956
-1086920
-1086855
-1086810
-1086802
-1086791
-1086845
-1086805
-1086654
-1086623
-1086572
-1086565
-1086490
-1086526
-1086613
-1086533
-1086523
-1086596
-1086668
-1086681
-1086735
-1086643
-1086745
-1086834
-1086833
-1086891
-1086895
-1086935
-1086975
-1087049
-1086831
-1087228
-1087058
-1087310
-1087396
-1087483
-1087670
-1087588
-1087732
-1087739
-1087782
-1087858
-1087707
-1087815
-1087726
-1087892
-1087745
-1087793
-1087771
-1087823
-1087920
-1087791
-1087785
-1087843
-1087839
-1087789
-1087667
-1087720
-1087587
-1087551
-1087615
-1087660
-1087632
-1087571
-1087719
-1087718
-1087762
-1087710
-1087637
-1087864
-1087913
-1087923
-1088082
-1088225
-1088363
-1088278
-1088454
-1088522
-1088587
-1088629
-1088515
-1088616
-1088489
-1088454
-1088132
-1088232
-1088417
-1088231
-1088353
-1088246
-1087914
-1088019
-1088059
-1087933
-1087916
-1087924
-1087848
-1087646
-1087728
-1087719
-1087534
-1087541
-1087040
-1087311
-1087338
-1087356
-1087169
-1087235
-1087161
-1087058
-1086840
-1086900
-1086770
-1086618
-1086489
-1086509
-1086584
-1086380
-1086246
-1086165
-1086052
-1086004
-1085937
-1085770
-1085687
-1085595
-1085500
-1085578
-1085269
-1085305
-1085254
-1085228
-1085166
-1085097
-1085065
-1085136
-1085022
-1085056
-1084895
-1084889
-1084797
-1084886
-1084889
-1084775
-1084819
-1084802
-1084838
-1084746
-1084586
-1084589
-1084565
-1084472
-1084375
-1084322
-1084193
-1084158
-1084138
-1084146
-1084191
-1084183
-1084111
-1084027
-1084085
-1083885
-1083968
-1083834
-1083901
-1083786
-1083781
-1083831
-1083700
-1083630
-1083694
-1083645
-1083647
-1083366
-1083703
-1083616
-1083617
-1083714
-1083732
-1083743
-1083717
-1083744
-1083771
-1083917
-1083889
-1083776
-1083810
-1083821
-1083790
-1083789
-1083878
-1083811
-1083915
-1084021
-1083864
-1083890
-1083902
-1083818
-1083867
-1083833
-1083892
-1083909
-1083841
-1083951
-1084020
-1083980
-1084004
-1084025
-1084114
-1084318
-1084392
-1084381
-1084398
-1084509
-1084477
-1084547
-1084675
-1084442
-1084614
-1084551
-1084418
-1084618
-1084749
-1084759
-1084915
-1084898
-1084962
-1085066
-1085027
-1084621
-1084845
-1084945
-1085025
-1084748
-1084942
-1084994
-1084938
-1084895
-1084823
-1084768
-1084891
-1084960
-1084876
-1084692
-1084921
-1084994
-1084989
-1085130
-1085136
-1085949
-1085441
-1085415
-1085451
-1085357
-1085440
-1085525
-1085638
-1085520
-1085602
-1085606
-1085715
-1085815
-1085744
-1085848
-1085970
-1085973
-1085971
-1086068
-1086118
-1085933
-1086005
-1085901
-1085950
-1085918
-1085923
-1085998
-1085858
-1085894
-1086003
-1085998
-1085925
-1085860
-1085949
-1085972
-1085937
-1085787
-1085580
-1085733
-1085759
-1085689
-1085683
-1085556
-1085483
-1085588
-1085620
-1085440
-1085114
-1085346
