PPG
-1050234
-1050360
-1050431
-1050564
-1050807
-1051030
-1050909
-1051008
-1051192
-1051499
-1051788
-1051853
-1052023
-1052057
-1052334
-1052689
-1052706
-1052836
-1053029
-1053159
-1053478
-1053587
-1053819
-1053816
-1053964
-1054336
-1054514
-1054595
-1054735
-1055021
-1055199
-1055487
-1055657
-1055873
-1055972
-1056223
-1056412
-1056300
-1056658
-1057010
-1057296
-1057475
-1057695
-1057791
-1057932
-1058240
-1058503
-1058739
-1058767
-1059135
-1059329
-1059590
-1059715
-1059787
-1060000
-1060424
-1060670
-1060796
-1060743
-1061163
-1061302
-1061597
-1061734
-1061960
-1062238
-1062495
-1062591
-1062676
-1062914
-1063072
-1063246
-1063567
-1063661
-1063846
-1063960
-1064184
-1064424
-1064491
-1064556
-1064777
-1065078
-1065301
-1065272
-1065429
-1065640
-1065898
-1065924
-1065994
-1066062
-1066309
-1066560
-1066559
-1066616
-1066707
-1066821
-1066916
-1067092
-1067153
-1067064
-1067170
-1067202
-1067387
-1067257
-1067186
-1067362
-1067435
-1067344
-1067084
-1067044
-1066943
-1066826
-1066469
-1066273
-1066031
-1065695
-1065160
-1064951
-1064445
-1063995
-1063603
-1063193
-1062538
-1061966
-1061373
-1060707
-1060105
-1059429
-1058769
-1057981
-1057325
-1056598
-1055936
-1055160
-1054430
-1053682
-1053053
-1052300
-1051565
-1050788
-1050174
-1049638
-1048891
-1048115
-1047468
-1046859
-1046515
-1045778
-1045116
-1044526
-1044030
-1043559
-1042947
-1042405
-1041917
-1041594
-1041085
-1040323
-1040040
-1039746
-1039357
-1039063
-1038738
-1038233
-1037776
-1037608
-1037372
-1037120
-1036655
-1036361
-1036156
-1035955
-1035677
-1035392
-1035116
-1034896
-1034831
-1034586
-1034410
-1034082
-1034058
-1034010
-1033872
-1033792
-1033668
-1033656
-1033697
-1033654
-1033605
-1033575
-1034452
-1034134
-1034069
-1033913
-1034022
-1034339
-1034443
-1034707
-1034763
-1034877
-1035186
-1035528
-1035695
-1035847
-1036095
-1036388
-1036788
-1037122
-1037260
-1037509
-1037848
-1038348
-1038529
-1038758
-1039006
-1039411
-1039718
-1040116
-1040400
-1040628
-1041741
-1041624
-1041628
-1041723
-1041952
-1042269
-1042645
-1042962
-1043145
-1043281
-1043689
-1043623
-1044133
-1044298
-1044435
-1044854
-1045073
-1045226
-1045368
-1045653
-1045910
-1046179
-1046241
-1046389
-1046575
-1046686
-1046865
-1047148
-1047144
-1047186
-1047503
-1047727
-1047775
-1047750
-1047956
-1048190
-1048437
-1048466
-1048538
-1048572
-1048810
-1048965
-1049062
-1049132
-1049309
-1049493
-1049741
-1049880
-1050005
-1050036
-1050166
-1050387
-1050431
-1050533
-1050669
-1050959
-1051206
-1051285
-1051389
-1051498
-1051691
-1051897
-1052071
-1052159
-1052214
-1052484
-1052748
-1052715
-1052801
-1052957
-1053175
-1053480
-1053526
-1053578
-1053640
-1054021
-1054254
-1054357
-1054515
-1054591
-1054928
-1055130
-1055098
-1055326
-1055364
-1055503
-1055733
-1055942
-1056016
-1056207
-1056459
-1056615
-1056758
-1056744
-1056843
-1057246
-1057488
-1057619
-1057579
-1057667
-1057810
-1057944
-1058077
-1058237
-1058512
-1058819
-1058917
-1059050
-1059055
-1059285
-1059516
-1059711
-1059874
-1059968
-1060030
-1060289
-1060653
-1060765
-1060920
-1061054
-1061442
-1061589
-1061775
-1061942
-1062073
-1062325
-1062618
-1062629
-1062722
-1062861
-1063888
-1063683
-1063690
-1063731
-1063881
-1064168
-1064447
-1064583
-1064702
-1065000
-1065213
-1065441
-1065802
-1065830
-1066052
-1066370
-1066576
-1066773
-1066969
-1067043
-1067290
-1067639
-1067796
-1067809
-1067972
-1068193
-1068536
-1068728
-1068781
-1068814
-1069042
-1069261
-1069507
-1069551
-1069701
-1069992
-1070047
-1070196
-1070285
-1070339
-1070514
-1070626
-1070755
-1070730
-1070930
-1071043
-1071266
-1071207
-1071061
-1070963
-1071034
-1071027
-1071000
-1070810
-1070684
-1070601
-1070436
-1070113
-1069772
-1069384
-1069149
-1068892
-1068428
-1067832
-1067269
-1066952
-1066466
-1065849
-1065061
-1064513
-1063929
-1063332
-1062605
-1061822
-1061058
-1060468
-1059692
-1058792
-1057944
-1057274
-1056532
-1055996
-1055242
-1054403
-1053531
-1052896
-1052383
-1051602
-1050881
-1050254
-1049621
-1049123
-1048482
-1047690
-1047143
-1046562
-1046179
-1045542
-1045058
-1044495
-1043979
-1043694
-1043261
-1042651
-1042293
-1041883
-1041487
-1041126
-1040775
-1040365
-1040088
-1039716
-1039465
-1039147
-1038762
-1038615
-1038348
-1038156
-1037872
-1037705
-1037593
-1037406
-1037221
-1037016
-1036793
-1036841
-1036788
-1036691
-1036605
-1036434
-1036504
-1036660
-1036702
-1036629
-1036617
-1036776
-1037029
-1037179
-1037176
-1037317
-1037642
-1037826
-1038111
-1038268
-1038496
-1038860
-1039055
-1039161
-1039519
-1039728
-1040021
-1040407
-1040621
-1040839
-1041062
-1041452
-1041885
-1042015
-1042257
-1042504
-1042890
-1043127
-1043320
-1043620
-1043824
-1044214
-1044550
-1044780
-1044865
-1045059
-1045397
-1045653
-1045866
-1046047
-1046159
-1046436
-1046939
-1046957
-1047114
-1047211
-1047530
-1047787
-1047789
-1047863
-1047993
-1048229
-1048443
-1048722
-1048685
-1048760
-1048971
-1049131
-1049316
-1049337
-1049370
-1049493
-1049834
-1049907
-1049937
-1050089
-1050274
-1050344
-1050470
-1050419
-1050494
-1050826
-1051067
-1051088
-1051052
-1051108
-1051242
-1051544
-1051566
-1051564
-1051600
-1051907
-1052111
-1052220
-1052099
-1052318
-1052372
-1052581
-1052705
-1052679
-1052821
-1053043
-1053300
-1053289
-1053331
-1053406
-1053616
-1053850
-1053968
-1053964
-1054098
-1054370
-1054621
-1054718
-1054780
-1054993
-1055230
-1055375
-1055541
-1055509
-1055757
-1056152
-1056267
-1056353
-1056462
-1056610
-1056959
-1057044
-1057142
-1057247
-1057521
-1057654
-1057927
-1058154
-1058193
-1058319
-1058584
-1058826
-1059059
-1059225
-1059395
-1059619
-1059839
-1059962
-1060005
-1060141
-1060465
-1060612
-1060761
-1060895
-1060946
-1061263
-1061561
-1061716
-1061850
-1061834
-1062302
-1062524
-1062684
-1062760
-1062891
-1063256
-1063403
-1063574
-1063661
-1063895
-1064283
-1064355
-1064435
-1064572
-1064720
-1065098
-1065301
-1065327
-1065513
-1065680
-1065837
-1066113
-1066205
-1066342
-1066446
-1066696
-1066988
-1067120
-1067084
-1067216
-1067478
-1067632
-1067864
-1067829
-1067996
-1068251
-1068448
-1068431
-1068556
-1068703
-1068868
-1068967
-1069123
-1069055
-1069224
-1069399
-1069472
-1069538
-1069533
-1069554
-1069661
-1069935
-1069830
-1069759
-1069748
-1069842
-1069950
-1069735
-1069658
-1069522
-1069529
-1069352
-1069029
-1068753
-1068627
-1068390
-1068198
-1067807
-1067144
-1066737
-1066293
-1065896
-1065329
-1064723
-1064034
-1063447
-1062833
-1062097
-1061409
-1060782
-1060146
-1059365
-1058503
-1057702
-1056956
-1056262
-1055629
-1055953
-1054353
-1053396
-1052821
-1052130
-1051261
-1050627
-1049965
-1049227
-1048550
-1047836
-1047215
-1046670
-1046214
-1045744
-1044936
-1044405
-1043758
-1043317
-1042997
-1042343
-1041800
-1041208
-1040943
-1040499
-1040040
-1039481
-1039060
-1038826
-1038454
-1038127
-1037818
-1037357
-1037043
-1036926
-1036539
-1036107
-1035800
-1035591
-1035421
-1035224
-1034834
-1034664
-1034552
-1034428
-1034270
-1033932
-1033975
-1033945
-1033894
-1033632
-1033434
-1033450
-1033649
-1033761
-1033699
-1033571
-1033711
-1033761
-1033949
-1034221
-1034219
-1034443
-1034620
-1034916
-1035036
-1035161
-1035357
-1035642
-1035929
-1036067
-1036231
-1036500
-1036851
-1037325
-1037468
-1037660
-1037953
-1038275
-1038696
-1038932
-1039129
-1039367
-1039659
-1040089
-1040225
-1040456
-1040644
-1041049
-1041196
-1041484
-1041733
-1041982
-1042226
-1042486
-1042784
-1042832
-1043082
-1043317
-1043615
-1043791
-1043588
-1043883
-1044132
-1044402
-1044637
-1044657
-1044755
-1045013
-1045221
-1045334
-1045429
-1045663
-1045841
-1045933
-1045968
-1046101
-1046199
-1046402
-1046535
-1046638
-1046714
-1046780
-1046923
-1047200
-1047239
-1047317
-1047339
-1047540
-1047676
-1047815
-1047923
-1048201
-1048254
-1048352
-1048335
-1048483
-1048742
-1049002
-1048988
-1049107
-1049027
-1049310
-1049426
-1049521
-1049474
-1049805
-1049941
-1050181
-1050277
-1050154
-1050322
-1050648
-1050795
-1050852
-1050841
-1050992
-1051150
-1051316
-1051412
-1051569
-1051741
-1051939
-1052059
-1052229
-1052336
-1052337
-1052532
-1052767
-1052992
-1053071
-1053166
-1053449
-1053648
-1053760
-1053734
-1053903
-1054238
-1054463
-1054491
-1054651
-1054698
-1054971
-1055249
-1055443
-1055308
-1055556
-1055726
-1056081
-1056147
-1056215
-1056319
-1056632
-1056879
-1056970
-1057116
-1057226
-1057419
-1057551
-1057676
-1057733
-1058029
-1058654
-1058536
-1058576
-1058622
-1058732
-1059110
-1059318
-1059408
-1059446
-1059615
-1059773
-1060027
-1060203
-1060304
-1060431
-1060730
-1060897
-1060942
-1060982
-1061072
-1061503
-1061673
-1061880
-1061887
-1062084
-1062285
-1062405
-1062606
-1062760
-1062869
-1063151
-1063283
-1063389
-1063422
-1063636
-1063863
-1064149
-1064298
-1064407
-1064605
-1064732
-1064941
-1065131
-1065248
-1065353
-1065592
-1065823
-1065967
-1065935
-1066119
-1066385
-1066652
-1066789
-1066943
-1066983
-1067408
-1067687
-1067893
-1067808
-1067984
-1068201
-1068482
-1068634
-1068710
-1068965
-1069156
-1069469
-1069614
-1069564
-1069874
-1070166
-1070207
-1070318
-1070511
-1070757
-1070928
-1071282
-1071418
-1071464
-1071505
-1071895
-1072210
-1072228
-1072264
-1072454
-1072685
-1072925
-1073145
-1073195
-1073424
-1073748
-1073885
-1073953
-1074081
-1074252
-1074555
-1074694
-1074844
-1074979
-1075078
-1075362
-1075659
-1075739
-1075726
-1075940
-1076297
-1076447
-1076329
-1076581
-1076906
-1077122
-1077485
-1077504
-1077675
-1077885
-1078100
-1078450
-1078550
-1078601
-1078847
-1078978
-1079298
-1079405
-1079473
-1079728
-1079921
-1080187
-1080308
-1080426
-1080698
-1080793
-1081116
-1081295
-1081428
-1081457
-1081796
-1082078
-1082108
-1082296
-1082450
-1082349
-1082824
-1083113
-1083153
-1083430
-1083727
-1083903
-1084034
-1084058
-1084325
-1084531
-1084993
-1084964
-1085110
-1085218
-1085406
-1085852
-1085925
-1086055
-1086148
-1086460
-1086611
-1086766
-1086876
-1087090
-1087368
-1087624
-1087652
-1087736
-1087995
-1088310
-1088448
-1088543
-1088639
-1088812
-1089204
-1089347
-1089459
-1089600
-1089793
-1089962
-1090185
-1090256
-1090418
-1090658
-1090925
-1091063
-1091156
-1091308
-1091422
-1091772
-1092056
-1091977
-1092127
-1092238
-1092651
-1092824
-1092943
-1093079
-1093268
-1093573
-1093755
-1093821
-1093902
-1094161
-1094362
-1094638
-1094702
-1094863
-1095136
-1095466
-1095665
-1095745
-1095816
-1095910
-1096199
-1096419
-1096450
-1096632
-1096780
-1097002
-1097249
-1097251
-1098116
-1097786
-1097995
-1098241
-1098242
-1098455
-1098608
-1098768
-1098935
-1099053
-1099325
-1099368
-1099618
-1099823
-1099941
-1099963
-1100108
-1100369
-1100620
-1100679
-1100658
-1100919
-1101122
-1101347
-1101469
-1101402
-1101606
-1101870
-1101993
-1102017
-1102046
-1102353
-1102464
-1102681
-1102725
-1102818
-1103068
-1103307
-1103454
-1103580
-1103711
-1103683
-1103886
-1104084
-1104099
-1104088
-1104304
-1104427
-1104742
-1104793
-1104859
-1105028
-1105121
-1105399
-1105441
-1105387
-1105527
-1105891
-1106022
-1106146
-1106039
-1106311
-1106356
-1106557
-1106745
-1106818
-1106933
-1107104
-1107318
-1107487
-1107489
-1107732
-1107938
-1108116
-1108366
-1108395
-1108490
-1108730
-1109002
-1109084
-1109118
-1109245
-1109651
-1109806
-1109862
-1109970
-1110163
-1110505
-1110769
-1110896
-1110905
-1111103
-1111303
-1111462
-1111657
-1111676
-1111970
-1112268
-1112528
-1112524
-1112608
-1112789
-1113009
-1112958
-1113313
-1113399
-1113491
-1113869
-1113974
-1114017
-1114108
-1114300
-1114540
-1114587
-1114681
-1114330
-1114646
-1114707
-1114882
-1114735
-1114569
-1114607
-1114631
-1114371
-1114123
-1113647
-1113368
-1113068
-1112605
-1111925
-1111342
-1110766
-1110099
-1109364
-1108558
-1107458
-1106547
-1105647
-1104662
-1103456
-1102165
-1101098
-1099965
-1098743
-1097539
-1096114
-1094853
-1093653
-1092350
-1090966
-1089566
-1088359
-1087098
-1085814
-1084493
-1083114
-1081913
-1080854
-1079727
-1078572
-1077207
-1076098
-1075186
-1074082
-1072938
-1071890
-1070806
-1069979
-1068920
-1067962
-1066873
-1066095
-1065220
-1064393
-1063283
-1062369
-1061505
-1060792
-1059994
-1059074
-1058382
-1057511
-1056944
-1056368
-1055575
-1054705
-1054178
-1053571
-1053054
-1052369
-1051564
-1051102
-1050660
-1050260
-1049644
-1048938
-1048480
-1048268
-1047686
-1047271
-1046858
-1046572
-1046247
-1045980
-1045620
-1045241
-1045036
-1044606
-1044658
-1044534
-1044346
-1044167
-1044194
-1044183
-1044010
-1043935
-1043946
-1044050
-1044048
-1044109
-1044024
-1044178
-1044396
-1044434
-1044571
-1044511
-1044713
-1044963
-1045044
-1045175
-1045235
-1045534
-1045851
-1046007
-1046247
-1046257
-1046518
-1046713
-1046929
-1047214
-1047205
-1047416
-1047831
-1047888
-1048035
-1048132
-1048390
-1048634
-1048844
-1049023
-1049191
-1049296
-1049572
-1049678
-1049702
-1049806
-1050039
-1050323
-1050512
-1050519
-1050634
-1050755
-1050927
-1051047
-1051027
-1051078
-1051221
-1051487
-1051627
-1051658
-1051817
-1051998
-1052137
-1052290
-1052165
-1052383
-1052374
-1052689
-1052658
-1052629
-1052803
-1053069
-1053218
-1053157
-1053223
-1053276
-1053404
-1053674
-1053613
-1053680
-1053952
-1053991
-1054145
-1054292
-1054351
-1054452
-1054559
-1054800
-1054835
-1054865
-1054889
-1055116
-1055291
-1055387
-1055447
-1055596
-1055455
-1055818
-1055940
-1055943
-1056197
-1056296
-1056601
-1056569
-1056613
-1056738
-1057080
-1057264
-1057219
-1057285
-1057409
-1057550
-1057816
-1057834
-1057886
-1058139
-1058303
-1058485
-1058537
-1058684
-1058835
-1059099
-1059306
-1059319
-1059327
-1059537
-1059845
-1060096
-1060229
-1060271
-1060447
-1060500
-1060805
-1060883
-1061029
-1061181
-1061362
-1061716
-1061820
-1061792
-1062101
-1062415
-1062505
-1062782
-1062764
-1063037
-1063338
-1063550
-1063594
-1063621
-1063972
-1064134
-1064278
-1064472
-1064584
-1064830
-1065012
-1065287
-1065386
-1065489
-1065612
-1065881
-1066221
-1066345
-1066363
-1066635
-1066803
-1066907
-1067193
-1067186
-1067414
-1067814
-1068190
-1068210
-1068293
-1068438
-1068724
-1068900
-1068870
-1068967
-1069227
-1069511
-1069631
-1069759
-1069695
-1069798
-1070213
-1070225
-1070189
-1070291
-1070622
-1070829
-1071034
-1070918
-1070940
-1071042
-1071220
-1071414
-1071378
-1071456
-1071607
-1071771
-1072026
-1071897
-1071822
-1071940
-1072148
-1072387
-1072224
-1072234
-1072258
-1072494
-1072492
-1072352
-1072242
-1072344
-1072442
-1072446
-1072191
-1072036
-1072020
-1071942
-1071735
-1071390
-1070882
-1070874
-1070634
-1070430
-1069999
-1069383
-1069030
-1068675
-1068295
-1067744
-1066987
-1066564
-1065987
-1065338
-1064727
-1064058
-1063423
-1062704
-1062227
-1061416
-1060395
-1059916
-1059286
-1058736
-1057895
-1057190
-1056403
-1055873
-1055220
-1054514
-1053728
-1053196
-1052548
-1052066
-1051435
-1050580
-1050150
-1049560
-1049198
-1048449
-1047925
-1047532
-1047118
-1046516
-1045941
-1045446
-1045113
-1044727
-1044375
-1043806
-1043343
-1043071
-1042683
-1042421
-1042055
-1041586
-1041373
-1042076
-1041107
-1040561
-1040138
-1040005
-1039940
-1039676
-1039381
-1038996
-1038865
-1038828
-1038799
-1038465
-1038319
-1038290
-1038267
-1038315
-1038157
-1038009
-1038206
-1038300
-1038294
-1038199
-1038253
-1038424
-1038570
-1038726
-1038775
-1038831
-1039067
-1039352
-1039606
-1039808
-1040368
-1040236
-1040617
-1040767
-1040813
-1041133
-1041422
-1041799
-1041994
-1042335
-1042452
-1042670
-1043079
-1043351
-1043483
-1044259
-1044221
-1044435
-1044570
-1044771
-1044914
-1045270
-1045417
-1045703
-1045870
-1045927
-1046289
-1046660
-1046926
-1047024
-1047112
-1047323
-1047723
-1048057
-1048062
-1048021
-1048362
-1048587
-1048872
-1048867
-1049000
-1049093
-1049273
-1049478
-1049587
-1049641
-1049839
-1050058
-1050185
-1050274
-1050390
-1051255
-1051070
-1051011
-1050949
-1051079
-1051126
-1051332
-1051466
-1051648
-1051545
-1051715
-1052033
-1052194
-1052244
-1052405
-1052490
-1052693
-1052743
-1052719
-1052650
-1053161
-1053225
-1053297
-1053259
-1053554
-1053669
-1053916
-1054001
-1053927
-1054187
-1054458
-1054531
-1054544
-1054566
-1054738
-1054881
-1055146
-1055235
-1055163
-1055292
-1055691
-1055912
-1055755
-1056298
-1056475
-1056627
-1056731
-1057035
-1057033
-1057092
-1057255
-1057378
-1057735
-1057840
-1058042
-1058171
-1058312
-1058491
-1058629
-1058730
-1058942
-1059049
-1059399
-1059577
-1059667
-1059798
-1059982
-1060251
-1060544
-1060564
-1060684
-1060893
-1061075
-1061417
-1061465
-1061600
-1061823
-1062145
-1062734
-1062445
-1062570
-1062859
-1063115
-1063399
-1063361
-1063601
-1063819
-1064045
-1064034
-1064253
-1064499
-1064753
-1065030
-1065805
-1065532
-1065429
-1065643
-1065992
-1066138
-1066415
-1066361
-1066703
-1066967
-1067177
-1067152
-1067355
-1067500
-1067818
-1067972
-1068095
-1068193
-1068337
-1068550
-1068478
-1068730
-1068760
-1069092
-1069183
-1069414
-1069445
-1069495
-1069627
-1069768
-1069955
-1070094
-1070003
-1070085
-1070265
-1070474
-1070989
-1070495
-1070366
-1070452
-1070485
-1070457
-1069467
-1069958
-1070017
-1069980
-1069660
-1069342
-1069057
-1068791
-1068597
-1068120
-1067678
-1067277
-1066835
-1066309
-1065217
-1064764
-1064147
-1063535
-1062928
-1062049
-1061114
-1060517
-1059866
-1059094
-1058054
-1057169
-1056444
-1055666
-1054885
-1053969
-1053015
-1052256
-1051565
-1050798
-1049827
-1049056
-1048397
-1047744
-1047057
-1046205
-1045340
-1045446
-1044415
-1043621
-1042923
-1042002
-1041386
-1040906
-1040368
-1039780
-1038993
-1038647
-1038157
-1037642
-1037055
-1036554
-1036069
-1035769
-1035425
-1034826
-1034264
-1034655
-1033731
-1033391
-1032978
-1032410
-1031976
-1031792
-1031506
-1031193
-1030729
-1030558
-1030262
-1030123
-1029853
-1029588
-1029431
-1029224
-1029074
-1028910
-1028513
-1028466
-1028562
-1028464
-1028268
-1028132
-1028115
-1028222
-1028299
-1028520
-1028483
-1028604
-1028826
-1029079
-1029166
-1029307
-1029351
-1029743
-1030105
-1030328
-1030385
-1030571
-1030817
-1031122
-1031486
-1031720
-1031750
-1031935
-1032474
-1032754
-1032930
-1033127
-1033351
-1033625
-1033992
-1034231
-1034363
-1034599
-1034957
-1035228
-1035483
-1035654
-1035949
-1036202
-1036356
-1036646
-1036778
-1037004
-1037167
-1037414
-1037632
-1037732
-1037871
-1038127
-1038416
-1038382
-1038484
-1038724
-1039008
-1039115
-1039294
-1039286
-1039605
-1039711
-1039967
-1040107
-1039996
-1040174
-1040462
-1040588
-1040546
-1040582
-1041458
-1041283
-1041254
-1041292
-1041293
-1041483
-1041758
-1041826
-1041822
-1041840
-1042053
-1042072
-1042365
-1042393
-1042530
-1042697
-1042902
-1043011
-1043102
-1043201
-1043241
-1043511
-1043709
-1043771
-1043737
-1043970
-1044264
-1044373
-1044471
-1044476
-1044617
-1044792
-1044976
-1045103
-1045138
-1045255
-1045531
-1045636
-1045688
-1045781
-1046085
-1046245
-1046398
-1046509
-1046563
-1046843
-1047076
-1047233
-1047378
-1047537
-1047705
-1047991
-1047895
-1048127
-1048231
-1048473
-1048888
-1049017
-1049046
-1049306
-1049539
-1049744
-1049966
-1050078
-1050215
-1050557
-1050805
-1050913
-1051139
-1051377
-1051603
-1051870
-1052026
-1052102
-1052194
-1052398
-1052680
-1052954
-1053035
-1053168
-1053586
-1053725
-1054007
-1054065
-1054155
-1054550
-1054862
-1054929
-1054997
-1055205
-1055505
-1055831
-1056110
-1056129
-1056231
-1056371
-1056790
-1056994
-1057065
-1057156
-1057374
-1057646
-1057916
-1058065
-1058191
-1058355
-1058583
-1058876
-1058954
-1059008
-1059321
-1059566
-1059662
-1059713
-1059766
-1059978
-1060259
-1060474
-1060605
-1060515
-1060759
-1060919
-1061038
-1061078
-1061175
-1061434
-1061538
-1061561
-1061703
-1061738
-1061857
-1062035
-1062142
-1062038
-1061930
-1062062
-1062218
-1062081
-1062004
-1061902
-1061790
-1061671
-1061631
-1061386
-1060936
-1060614
-1060537
-1060183
-1059844
-1059265
-1058836
-1058341
-1058022
-1057416
-1056762
-1056090
-1055573
-1054966
-1053875
-1053204
-1052632
-1052575
-1051555
-1050649
-1049873
-1049046
-1048287
-1047647
-1046735
-1045935
-1045289
-1045185
-1043979
-1042992
-1042250
-1041576
-1040932
-1040341
-1039611
-1038842
-1038254
-1037656
-1037034
-1036584
-1035766
-1035307
-1034808
-1034239
-1033706
-1033156
-1032591
-1032302
-1031738
-1031306
-1030877
-1030504
-1030081
-1029850
-1029409
-1029029
-1028631
-1028223
-1028050
-1027697
-1027220
-1026959
-1026744
-1026454
-1026100
-1025759
-1025575
-1025425
-1025348
-1025083
-1025278
-1024734
-1024661
-1024460
-1024342
-1024180
-1024054
-1024217
-1024720
-1024235
-1024016
-1023941
-1023915
-1024106
-1024151
-1024268
-1024334
-1024563
-1024868
-1024938
-1024997
-1025120
-1025383
-1025727
-1025806
-1025874
-1026265
-1026490
-1026736
-1028129
-1027599
-1027529
-1027919
-1028221
-1028379
-1028532
-1029042
-1029300
-1029649
-1029876
-1029937
-1030346
-1030568
-1030851
-1031513
-1031440
-1031543
-1031899
-1032130
-1032215
-1032436
-1032761
-1032976
-1033214
-1033417
-1033617
-1033890
-1034177
-1034371
-1034544
-1034648
-1034836
-1035007
-1034866
-1035223
-1035481
-1035730
-1035894
-1036044
-1036096
-1036206
-1036390
-1036676
-1036799
-1036974
-1036957
-1037060
-1037302
-1037512
-1037675
-1037768
-1037991
-1038159
-1038139
-1038356
-1038458
-1038551
-1038817
-1038924
-1039104
-1039070
-1039251
-1039468
-1039595
-1039579
-1039648
-1040016
-1040134
-1040229
-1040356
-1040455
-1040575
-1040734
-1040877
-1041105
-1041115
-1041376
-1041573
-1041546
-1041794
-1041721
-1042016
-1042183
-1042337
-1042574
-1042583
-1042889
-1042958
-1043184
-1043220
-1043356
-1043527
-1043741
-1044038
-1044144
-1044167
-1044332
-1044628
-1044864
-1045055
-1045127
-1045275
-1045689
-1045748
-1045888
-1046558
-1046320
-1046415
-1046784
-1046861
-1047326
-1047692
-1047532
-1048603
-1048103
-1047919
-1048227
-1048473
-1048794
-1048975
-1049006
-1049178
-1049517
-1049783
-1049965
-1050066
-1050307
-1050840
-1050924
-1050819
-1051017
-1051262
-1051283
-1051683
-1052016
-1052033
-1052347
-1052442
-1052748
-1053628
-1053200
-1053304
-1053466
-1053690
-1053942
-1053943
-1054110
-1054332
-1054723
-1054714
-1054895
-1055140
-1056158
-1055858
-1055895
-1055776
-1055947
-1056285
-1056433
-1056627
-1056720
-1057012
-1057096
-1057236
-1057467
-1057527
-1057611
-1057926
-1058219
-1058552
-1058324
-1058295
-1058518
-1058734
-1058511
-1058699
-1058844
-1059237
-1059298
-1059413
-1059363
-1059557
-1059670
-1059779
-1059765
-1059687
-1059770
-1060019
-1059978
-1059815
-1059714
-1059789
-1059843
-1059496
-1059434
-1058809
-1058866
-1058689
-1058525
-1058144
-1057707
-1057277
-1056908
-1056576
-1055999
-1055202
-1054776
-1054013
-1053556
-1052894
-1052029
-1051413
-1050839
-1050091
-1049242
-1048367
-1047676
-1046841
-1046303
-1045441
-1044669
-1043818
-1043236
-1042386
-1041558
-1040684
-1040119
-1039571
-1038944
-1038178
-1037368
-1036789
-1036215
-1035575
-1034986
-1034265
-1033375
-1033221
-1032592
-1032150
-1031477
-1030855
-1030665
-1030097
-1029593
-1029091
-1028785
-1028510
-1028119
-1027643
-1027106
-1026761
-1026549
-1026005
-1025743
-1025426
-1025091
-1024952
-1024650
-1024246
-1023926
-1023700
-1023610
-1023370
-1023108
-1022893
-1022773
-1022727
-1023655
-1022591
-1022191
-1022007
-1022044
-1022122
-1021994
-1021824
-1021919
-1022177
-1022182
-1022265
-1022165
-1022288
-1022575
-1022727
-1022799
-1022863
-1023072
-1023409
-1023657
-1023737
-1023983
-1024116
-1024518
-1024685
-1024908
-1025171
-1025509
-1025717
-1026172
-1026396
-1026594
-1026918
-1027213
-1027392
-1027723
-1027959
-1028314
-1028614
-1028960
-1029022
-1029221
-1029609
-1029850
-1030194
-1030242
-1030502
-1030691
-1031150
-1031279
-1031451
-1031758
-1031960
-1032255
-1032378
-1032492
-1033260
-1032948
-1033267
-1033387
-1033417
-1033528
-1033761
-1033723
-1034170
-1034322
-1034317
-1034563
-1034773
-1034749
-1034939
-1035115
-1035389
-1035564
-1035646
-1035754
-1035500
-1035901
-1036157
-1036317
-1036388
-1036436
-1036651
-1036766
-1037083
-1037119
-1037131
-1037249
-1037475
-1037715
-1037781
-1038052
-1038323
-1038494
-1038718
-1038749
-1038979
-1039025
-1039192
-1039467
-1039691
-1039785
-1039948
-1039964
-1040339
-1040545
-1040667
-1040840
-1040970
-1041137
-1041256
-1041359
-1041499
-1041646
-1041989
-1042178
-1042275
-1042351
-1042502
-1042928
-1043118
-1043205
-1043472
-1043736
-1045069
-1045241
-1045605
-1045855
-1045910
-1045995
-1046210
-1046464
-1046777
-1046842
-1046990
-1047222
-1047539
-1047809
-1047891
-1048159
-1048357
-1048644
-1048817
-1048954
-1049030
-1049373
-1049668
-1049830
-1049902
-1050112
-1050348
-1050557
-1050913
-1051010
-1051122
-1051316
-1051719
-1051974
-1052013
-1052117
-1052293
-1052702
-1052970
-1053047
-1053217
-1053428
-1053740
-1053957
-1054124
-1054253
-1054390
-1054653
-1054874
-1054983
-1055119
-1055223
-1055586
-1055794
-1055516
-1055833
-1056220
-1056405
-1056578
-1056702
-1056810
-1056872
-1057094
-1057321
-1057377
-1057383
-1057534
-1057689
-1057844
-1057956
-1058003
-1058057
-1058274
-1058361
-1058231
-1058441
-1058214
-1059291
-1059086
-1058993
-1058881
-1058941
-1059063
-1059031
-1059019
-1058844
-1058817
-1058698
-1058631
-1058575
-1058221
-1058150
-1057932
-1057837
-1057412
-1056999
-1056741
-1056443
-1056119
-1055520
-1054893
-1054399
-1053860
-1053333
-1051926
-1051506
-1050811
-1050272
-1049572
-1048763
-1048051
-1047489
-1046831
-1046043
-1045307
-1044593
-1043889
-1043343
-1042527
-1041747
-1041158
-1040754
-1040124
-1039453
-1038733
-1038133
-1037572
-1037119
-1036413
-1035766
-1035369
-1034919
-1034586
-1033981
-1033517
-1033108
-1032780
-1032243
-1031890
-1031509
-1031079
-1030832
-1030400
-1030092
-1029612
-1029416
-1029198
-1028891
-1028688
-1028326
-1027979
-1027814
-1027801
-1027496
-1027139
-1027016
-1026866
-1026856
-1026606
-1026380
-1026111
-1026264
-1026390
-1026242
-1026204
-1026186
-1026387
-1026482
-1026441
-1026354
-1026518
-1026804
-1026945
-1026932
-1027044
-1027256
-1027560
-1027648
-1027710
-1028008
-1028218
-1028480
-1028737
-1028979
-1029214
-1029423
-1029843
-1030116
-1030260
-1030575
-1030908
-1031231
-1031531
-1031723
-1031909
-1032255
-1032632
-1032890
-1033139
-1033396
-1033589
-1033920
-1034165
-1034474
-1034632
-1034818
-1035054
-1035430
-1035525
-1035715
-1035994
-1036249
-1036491
-1036691
-1036749
-1036905
-1037220
-1037438
-1037534
-1037707
-1037895
-1038089
-1038266
-1038390
-1038552
-1038634
-1038865
-1039093
-1039083
-1039214
-1039349
-1039501
-1039667
-1039755
-1039663
-1040086
-1040440
-1040442
-1040450
-1040654
-1040890
-1040997
-1041018
-1041149
-1041529
-1041549
-1041513
-1041785
-1042021
-1042079
-1042248
-1042171
-1042262
-1042537
-1042814
-1042868
-1042941
-1043030
-1043171
-1043440
-1043519
-1043566
-1043681
-1043969
-1044101
-1044108
-1044302
-1044430
-1044577
-1044802
-1044929
-1044901
-1045109
-1045215
-1045529
-1045637
-1045681
-1045871
-1046177
-1046219
-1046387
-1046422
-1046632
-1046861
-1046986
-1047104
-1047330
-1047383
-1047727
-1047896
-1048091
-1048025
-1048260
-1048466
-1048773
-1048817
-1048940
-1049248
-1049497
-1049619
-1049754
-1049921
-1050096
-1050267
-1050631
-1050716
-1050761
-1050862
-1051237
-1051593
-1051562
-1051721
-1051964
-1052221
-1052481
-1052643
-1052681
-1052767
-1053159
-1053399
-1053581
-1053740
-1053767
-1054013
-1054300
-1054565
-1054609
-1054812
-1055165
-1055249
-1055469
-1055607
-1055815
-1056112
-1056234
-1056130
-1056354
-1056557
-1056909
-1057165
-1057176
-1057296
-1057513
-1057801
-1058033
-1057991
-1058152
-1058326
-1058521
-1058749
-1058767
-1058705
-1058995
-1059115
-1059382
-1059372
-1059406
-1059564
-1059782
-1059883
-1059885
-1059864
-1060153
-1060424
-1060553
-1060580
-1060528
-1060516
-1060779
-1060822
-1060764
-1060768
-1060676
-1060734
-1060866
-1060739
-1060664
-1060519
-1060415
-1060388
-1060203
-1059811
-1059574
-1059321
-1059141
-1058833
-1058433
-1057986
-1057504
-1057079
-1056193
-1055711
-1055225
-1054742
-1054203
-1053452
-1052726
-1052138
-1051175
-1050903
-1050108
-1049412
-1048719
-1048014
-1047330
-1046535
-1045875
-1045221
-1044523
-1043945
-1043210
-1042371
-1041805
-1041167
-1040648
-1040016
-1039247
-1038655
-1038191
-1037619
-1037179
-1036503
-1035906
-1035596
-1035098
-1034539
-1034014
-1033569
-1033273
-1032853
-1032430
-1031661
-1031457
-1031416
-1031054
-1030596
-1030146
-1030040
-1029842
-1029565
-1029179
-1028834
-1028657
-1028675
-1028368
-1028161
-1027703
-1027617
-1027533
-1027438
-1027316
-1027085
-1027112
-1027015
-1026993
-1026972
-1026827
-1026909
-1026935
-1027154
-1027129
-1027014
-1027040
-1027358
-1027471
-1027602
-1027655
-1027894
-1028051
-1028260
-1028053
-1028108
-1028653
-1029061
-1029361
-1029559
-1029767
-1030000
-1030260
-1030597
-1030722
-1030856
-1031070
-1031541
-1031707
-1031915
-1032206
-1032471
-1032793
-1033101
-1033278
-1033432
-1033660
-1034012
-1034353
-1034382
-1034614
-1034815
-1034963
-1035281
-1035596
-1035674
-1035913
-1036253
-1036368
-1036464
-1036632
-1036795
-1037013
-1037003
-1037190
-1037280
-1037541
-1037694
-1037887
-1037873
-1038137
-1038257
-1038477
-1038602
-1038673
-1038813
-1038928
-1039165
-1039087
-1039112
-1039244
-1039479
-1039655
-1039708
-1039772
-1039915
-1040050
-1040165
-1040217
-1040252
-1040418
-1040327
-1040605
-1040779
-1040770
-1040902
-1041092
-1041312
-1041474
-1041356
-1041489
-1041776
-1041877
-1042008
-1042009
-1042209
-1042384
-1042542
-1042545
-1042717
-1042814
-1043007
-1043163
-1043269
-1043308
-1043384
-1043590
-1043810
-1043877
-1044062
-1044103
-1044427
-1044557
-1044739
-1044644
-1044738
-1044985
-1045288
-1045386
-1045403
-1045638
-1045783
-1046275
-1046312
-1046404
-1046440
-1046685
-1046962
-1047190
-1047177
-1047321
-1047685
-1047840
-1047998
-1048040
-1048201
-1048263
-1048625
-1048822
-1048768
-1049143
-1049451
-1049715
-1049759
-1049860
-1050180
-1050368
-1050675
-1050692
-1050849
-1051076
-1051280
-1051565
-1051668
-1051654
-1051804
-1052214
-1052492
-1052522
-1052664
-1052884
-1053071
-1053444
-1053449
-1053585
-1053790
-1054001
-1054322
-1054266
-1054501
-1054730
-1055052
-1055197
-1055270
-1055324
-1055492
-1055815
-1056126
-1056208
-1056383
-1056538
-1056864
-1057025
-1057148
-1057098
-1057158
-1057450
-1057629
-1057761
-1057901
-1057862
-1058074
-1058356
-1058282
-1058465
-1058458
-1058594
-1058813
-1058787
-1058862
-1058993
-1059124
-1059316
-1059340
-1059115
-1059210
-1059312
-1059210
-1059125
-1059020
-1059040
-1058899
-1058780
-1058542
-1058156
-1057933
-1057827
-1057588
-1057153
-1056784
-1056434
-1056010
-1055661
-1055139
-1054484
-1053868
-1053279
-1052817
-1052051
-1051334
-1050626
-1049948
-1049361
-1048566
-1047769
-1047109
-1046386
-1045632
-1044790
-1043961
-1043188
-1042674
-1041980
-1041317
-1040539
-1039490
-1039172
-1038650
-1037847
-1037139
-1036558
-1035959
-1035504
-1034827
-1034063
-1033558
-1033114
-1032778
-1032093
-1031510
-1031177
-1030785
-1030297
-1029815
-1029352
-1028826
-1028420
-1028198
-1027762
-1027324
-1027150
-1026696
-1026389
-1026003
-1025603
-1025276
-1025050
-1024996
-1024639
-1024245
-1024093
-1023912
-1023841
-1023465
-1023147
-1023019
-1023023
-1022934
-1022723
-1022651
-1022568
-1022410
-1022505
-1022487
-1022335
-1022259
-1022402
-1022565
-1022558
-1022611
-1022659
-1022887
-1022992
-1023201
-1023244
-1023446
-1023659
-1023617
-1024025
-1023977
-1024429
-1024715
-1025164
-1025281
-1025292
-1025587
-1026005
-1026413
-1026519
-1026761
-1027023
-1027335
-1027693
-1027824
-1027943
-1028174
-1028567
-1028911
-1029114
-1029197
-1029449
-1029786
-1030151
-1030274
-1030455
-1030562
-1030868
-1031203
-1031470
-1031636
-1031571
-1031817
-1032159
-1032272
-1032407
-1032562
-1032677
-1032961
-1033018
-1033215
-1033368
-1033584
-1033706
-1033766
-1033839
-1033863
-1034139
-1034425
-1034550
-1034482
-1034562
-1034750
-1035035
-1035121
-1035176
-1035203
-1035415
-1035704
-1035668
-1035768
-1035712
-1036084
-1036206
-1036402
-1036376
-1036488
-1036740
-1036717
-1036875
-1036834
-1036997
-1037238
-1037316
-1037453
-1037479
-1037542
-1037692
-1037854
-1037953
-1038066
-1038232
-1038341
-1038570
-1038568
-1038756
-1038734
-1038908
-1039215
-1039240
-1039432
-1039447
-1039627
-1039974
-1040117
-1040116
-1040288
-1040457
-1040714
-1040741
-1040782
-1040939
-1041237
-1041447
-1041575
-1041488
-1041747
-1041951
-1042165
-1042221
-1042396
-1042589
-1042937
-1043048
-1043270
-1043380
-1043465
-1043649
-1043816
-1044045
-1044244
-1044367
-1044547
-1044801
-1044916
-1045006
-1045123
-1045415
-1045656
-1045912
-1046045
-1045923
-1046421
-1046778
-1046870
-1046879
-1047077
-1047442
-1047617
-1047708
-1047795
-1048156
-1048430
-1048693
-1048761
-1048844
-1049061
-1049151
-1049525
-1049800
-1049819
-1049953
-1050165
-1050442
-1050624
-1050698
-1050933
-1051171
-1051433
-1051565
-1051771
-1051803
-1052073
-1052423
-1052497
-1052542
-1052668
-1052681
-1053713
-1053390
-1053265
-1053331
-1053601
-1053829
-1053922
-1053866
-1054061
-1054110
-1054434
-1054383
-1054492
-1054469
-1054684
-1054852
-1054924
-1054909
-1054850
-1055083
-1055232
-1055234
-1055100
-1055090
-1054976
-1055090
-1054912
-1054676
-1054504
-1054335
-1054262
-1053759
-1053372
-1053072
-1052774
-1052266
-1051695
-1051177
-1050841
-1050263
-1049663
-1048930
-1048407
-1047883
-1047280
-1046398
-1045636
-1044841
-1044291
-1043593
-1042759
-1041927
-1041235
-1040613
-1039861
-1039006
-1038352
-1037639
-1037073
-1036385
-1035600
-1034757
-1034067
-1033591
-1033124
-1032347
-1031726
-1031067
-1030558
-1030057
-1029544
-1028939
-1028299
-1027926
-1027318
-1026928
-1026448
-1025823
-1025537
-1025221
-1024696
-1024282
-1023912
-1023209
-1023045
-1022748
-1022415
-1022102
-1021904
-1021536
-1021193
-1020828
-1020602
-1020480
-1020229
-1019987
-1019604
-1019526
-1019331
-1019111
-1018951
-1018708
-1018517
-1018575
-1018456
-1018350
-1018223
-1018241
-1018246
-1018082
-1018165
-1018217
-1018205
-1018346
-1018538
-1018719
-1018751
-1018726
-1018875
-1019238
-1019343
-1019514
-1019548
-1019864
-1020138
-1020467
-1020569
-1020787
-1020850
-1021107
-1021552
-1021678
-1022044
-1022461
-1022698
-1023587
-1023343
-1023435
-1023776
-1024103
-1024322
-1024430
-1024648
-1024779
-1025077
-1025349
-1025444
-1025613
-1025865
-1026319
-1026466
-1026671
-1026925
-1027136
-1027503
-1027521
-1027615
-1027728
-1028062
-1028282
-1028479
-1028636
-1028751
-1029009
-1029272
-1029276
-1029408
-1029712
-1030018
-1030069
-1030043
-1030171
-1030347
-1030537
-1030747
-1030691
-1030855
-1031099
-1031334
-1031401
-1031467
-1031582
-1031706
-1031923
-1032060
-1032001
-1032202
-1032290
-1032532
-1032629
-1032614
-1032586
-1032866
-1033187
-1033335
-1033418
-1033319
-1033513
-1033737
-1033827
-1033961
-1034101
-1034281
-1034437
-1034503
-1034506
-1034717
-1034972
-1035141
-1035216
-1035190
-1035420
-1035687
-1035867
-1035905
-1035988
-1036175
-1036412
-1036690
-1036663
-1036770
-1036849
-1037066
-1037273
-1037492
-1037547
-1037644
-1037882
-1038072
-1038298
-1038428
-1038453
-1038785
-1039057
-1039113
-1039248
-1039418
-1039722
-1039843
-1040083
-1040162
-1040361
-1040497
-1040769
-1041029
-1041246
-1041492
-1041754
-1042049
-1042004
-1042226
-1042419
-1042698
-1042891
-1042898
-1043187
-1043403
-1044384
-1044037
-1043946
-1044043
-1044372
-1044729
-1044767
-1045001
-1045055
-1045363
-1045653
-1045766
-1045884
-1046022
-1046363
-1046613
-1046771
-1046799
-1047105
-1047369
-1047643
-1047724
-1047885
-1047969
-1048192
-1048501
-1048665
-1048782
-1048798
-1049140
-1049297
-1049562
-1049507
-1050268
-1050089
-1050123
-1050235
-1050240
-1050477
-1050610
-1050910
-1050993
-1051003
-1051102
-1051220
-1051350
-1051472
-1051570
-1051598
-1051704
-1051627
-1051961
-1051948
-1051883
-1052043
-1052194
-1052386
-1051948
-1051982
-1052081
-1052259
-1052128
-1052044
-1051752
-1051774
-1051679
-1051530
-1051116
-1050763
-1050314
-1050211
-1051019
-1049707
-1048875
-1048469
-1047971
-1047520
-1046784
-1046094
-1045592
-1045027
-1044464
-1043710
-1042992
-1042298
-1041708
-1040852
-1040116
-1039341
-1038691
-1038135
-1037396
-1036497
-1035755
-1035219
-1034568
-1033914
-1033151
-1032395
-1031923
-1031533
-1030766
-1030042
-1029462
-1029081
-1028360
-1028019
-1027475
-1026783
-1026503
-1025978
-1025563
-1025054
-1024573
-1024268
-1023947
-1023429
-1022937
-1022543
-1021893
-1021877
-1021675
-1021344
-1020875
-1020698
-1020521
-1020019
-1019938
-1019607
-1019497
-1019248
-1019122
-1018948
-1018563
-1018392
-1018405
-1018328
-1018154
-1017908
-1017804
-1017934
-1017797
-1017751
-1017552
-1017780
-1017826
-1017860
-1017880
-1017858
-1018151
-1018294
-1018402
-1018520
-1018704
-1018925
-1019219
-1020275
-1019748
-1019734
-1019898
-1020309
-1020497
-1020657
-1020838
-1021179
-1021498
-1021788
-1021905
-1022273
-1022454
-1022871
-1023248
-1023396
-1023500
-1024020
-1024352
-1024525
-1024701
-1024976
-1025276
-1025651
-1025817
-1026004
-1026153
-1026464
-1026716
-1027101
-1027122
-1027214
-1027541
-1027768
-1028723
-1028244
-1028317
-1028579
-1028687
-1028926
-1029035
-1029156
-1029427
-1029610
-1029842
-1029804
-1029956
-1030088
-1030336
-1030441
-1030544
-1030660
-1030852
-1030951
-1031099
-1031156
-1031240
-1031499
-1031630
-1031728
-1031803
-1031859
-1031981
-1032183
-1032207
-1032386
-1032544
-1032768
-1032804
-1032839
-1032892
-1033084
-1033289
-1033370
-1033524
-1033636
-1033609
-1033908
-1034077
-1034080
-1034195
-1034251
-1034390
-1034533
-1034596
-1034712
-1034953
-1035225
-1035414
-1035517
-1035441
-1035754
-1035646
-1035919
-1036008
-1036107
-1036373
-1036678
-1036909
-1036947
-1037024
-1037218
-1037475
-1038468
-1037871
-1037913
-1037989
-1038237
-1038316
-1038435
-1038653
-1038865
-1039205
-1039295
-1039477
-1039498
-1039850
-1039995
-1040386
-1040405
-1040494
-1040807
-1041022
-1041230
-1041308
-1041398
-1041665
-1041995
-1042095
-1042298
-1042430
-1042672
-1043017
-1042866
-1043210
-1043295
-1043475
-1043787
-1043942
-1044179
-1044261
-1044490
-1044747
-1045041
-1045047
-1045173
-1045791
-1045825
-1046074
-1046170
-1046206
-1046389
-1046742
-1046939
-1047030
-1047869
-1047691
-1047778
-1047920
-1048023
-1048025
-1048266
-1048555
-1048729
-1048839
-1049043
-1049228
-1049453
-1049726
-1049747
-1049794
-1050105
-1050280
-1050375
-1050431
-1050602
-1050772
-1051009
-1051215
-1051244
-1051289
-1051284
-1051507
-1051598
-1051613
-1051645
-1051810
-1052012
-1052155
-1052139
-1052016
-1052079
-1052180
-1052187
-1052170
-1052058
-1052088
-1052206
-1052231
-1052018
-1051726
-1051637
-1051693
-1051431
-1051238
-1050936
-1050766
-1050487
-1050046
-1049523
-1049187
-1048777
-1048445
-1047596
-1047137
-1046673
-1046126
-1045567
-1045049
-1044265
-1043522
-1042972
-1042084
-1041612
-1040884
-1040165
-1039560
-1038854
-1038282
-1037468
-1036673
-1036030
-1035369
-1034800
-1034040
-1033403
-1032811
-1032333
-1031508
-1031010
-1030354
-1029858
-1029247
-1028852
-1028242
-1027670
-1027218
-1026759
-1026208
-1026076
-1025501
-1025072
-1024665
-1024442
-1023965
-1023520
-1023191
-1023044
-1022651
-1022266
-1021896
-1021733
-1021509
-1021270
-1020905
-1020504
-1020338
-1020310
-1020075
-1019838
-1019577
-1019596
-1019459
-1019429
-1019156
-1018997
-1019106
-1019110
-1019011
-1018934
-1018915
-1019001
-1019128
-1019325
-1019274
-1019393
-1019439
-1019607
-1019868
-1019906
-1019960
-1020133
-1020545
-1020666
-1020923
-1021024
-1021389
-1021678
-1021839
-1022046
-1022218
-1022579
-1022875
-1023200
-1023456
-1023492
-1023903
-1024211
-1025303
-1024982
-1025069
-1025178
-1025516
-1025545
-1025900
-1026142
-1026469
-1026709
-1027083
-1027211
-1027157
-1027436
-1027718
-1027978
-1028047
-1028204
-1028443
-1028835
-1028971
-1028875
-1029024
-1029178
-1029401
-1030460
-1029926
-1029701
-1029915
-1030046
-1030333
-1030339
-1030382
-1030698
-1030882
-1031056
-1031069
-1032057
-1031537
-1031560
-1031794
-1031880
-1031792
-1032045
-1032130
-1032401
-1032403
-1032356
-1032568
-1032910
-1032939
-1033014
-1032938
-1033080
-1033289
-1033486
-1033289
-1033531
-1033791
-1033976
-1034082
-1034113
-1034078
-1034252
-1034573
-1034699
-1034729
-1034804
-1034836
-1035105
-1035147
-1035274
-1035395
-1035459
-1035814
-1035903
-1035936
-1036037
-1036086
-1036282
-1036515
-1036633
-1036612
-1036919
-1037004
-1037273
-1037767
-1037441
-1037670
-1037824
-1038015
-1038046
-1038044
-1038293
-1038611
-1038850
-1038953
-1038986
-1039114
-1039398
-1039641
-1039671
-1039679
-1039904
-1040176
-1040390
-1040461
-1040546
-1040656
-1041026
-1041222
-1041375
-1041312
-1041516
-1041837
-1041817
-1042068
-1042196
-1042459
-1042796
-1043079
-1043072
-1043196
-1043373
-1043682
-1043897
-1044072
-1044145
-1044306
-1044665
-1045437
-1045055
-1045132
-1045208
-1045400
-1045812
-1045747
-1045897
-1046107
-1046405
-1046672
-1046652
-1046827
-1047041
-1047237
-1047459
-1047595
-1047583
-1047799
-1048061
-1048275
-1048498
-1048445
-1048563
-1048954
-1049164
-1049166
-1049178
-1049312
-1049570
-1049793
-1049721
-1049882
-1049970
-1050126
-1050293
-1050271
-1050285
-1050216
-1050603
-1050774
-1050841
-1050886
-1050830
-1051028
-1051102
-1051123
-1051007
-1050843
-1050837
-1050948
-1050522
-1050578
-1050460
-1050384
-1050200
-1049899
-1049526
-1049341
-1049159
-1048703
-1048174
-1047735
-1047341
-1046860
-1046244
-1045663
-1044894
-1044366
-1043730
-1043145
-1042368
-1041624
-1040922
-1040169
-1039691
-1038959
-1038100
-1037383
-1036708
-1035961
-1035278
-1034456
-1033903
-1033259
-1032311
-1031790
-1031041
-1030485
-1029838
-1029377
-1028690
-1027961
-1027513
-1026940
-1026414
-1025896
-1025142
-1024768
-1024366
-1024020
-1023423
-1022901
-1022422
-1022077
-1021722
-1021318
-1020880
-1020467
-1020249
-1020021
-1019618
-1019096
-1018815
-1018560
-1018370
-1018028
-1017618
-1017398
-1017101
-1016954
-1016795
-1016525
-1016170
-1016168
-1015963
-1015893
-1015659
-1015427
-1015566
-1015446
-1015324
-1015294
-1015319
-1015299
-1015263
-1015271
-1015204
-1015292
-1015575
-1015752
-1015769
-1015802
-1015916
-1016194
-1016365
-1016631
-1016723
-1016935
-1017146
-1017532
-1017715
-1017786
-1018122
-1018356
-1018776
-1018838
-1018986
-1019379
-1019584
-1019903
-1020034
-1020287
-1020692
-1021061
-1021262
-1021371
-1021666
-1022208
-1022606
-1022757
-1022713
-1022983
-1023367
-1023449
-1023759
-1023926
-1024062
-1024253
-1024611
-1024777
-1024793
-1025048
-1025259
-1025477
-1025570
-1025606
-1025872
-1026183
-1026341
-1026477
-1026544
-1026674
-1026807
-1026917
-1027022
-1027141
-1027335
-1027604
-1027598
-1027711
-1027634
-1027783
-1027957
-1028189
-1028448
-1028313
-1028405
-1028706
-1028846
-1028965
-1028967
-1029223
-1029388
-1029416
-1029610
-1029637
-1029783
-1029943
-1030076
-1030114
-1030076
-1030269
-1030598
-1030745
-1030772
-1030943
-1030984
-1031190
-1031331
-1031509
-1031536
-1031639
-1031909
-1032122
-1032217
-1032168
-1032389
-1032645
-1032833
-1032905
-1032997
-1033193
-1033448
-1033544
-1033622
-1033724
-1033870
-1034171
-1034382
-1034513
-1034643
-1034706
-1035091
-1035296
-1035401
-1035547
-1035752
-1036018
-1036167
-1036279
-1036287
-1036506
-1036806
-1037071
-1037193
-1037304
-1037618
-1037780
-1038153
-1038193
-1038256
-1038458
-1038823
-1038993
-1039191
-1039220
-1039544
-1039842
-1039984
-1040130
-1040246
-1040497
-1040653
-1040744
-1041066
-1041136
-1041381
-1041716
-1041877
-1042003
-1042087
-1042305
-1042717
-1042914
-1043116
-1043042
-1043177
-1043619
-1043901
-1044029
-1044035
-1044276
-1044573
-1044697
-1044774
-1045096
-1046311
-1045948
-1045766
-1045808
-1045923
-1046166
-1046332
-1046599
-1046577
-1046683
-1046752
-1046913
-1047864
-1047440
-1047456
-1047525
-1047749
-1047826
-1047849
-1047970
-1048117
-1048230
-1048445
-1048507
-1048483
-1048510
-1048733
-1048814
-1048829
-1048783
-1048652
-1048831
-1048838
-1048709
-1048568
-1048340
-1048371
-1048356
-1047990
-1047645
-1047297
-1047112
-1046811
-1046351
-1045851
-1045337
-1045071
-1044622
-1044074
-1043321
-1042758
-1042247
-1041686
-1040876
-1040198
-1039385
-1038768
-1038043
-1037338
-1036411
-1035783
-1034983
-1034267
-1033595
-1032854
-1032102
-1031367
-1030702
-1029943
-1029196
-1028521
-1027885
-1027354
-1024833
-1022410
-1021482
-1021007
-1020363
-1019922
-1019540
-1018212
-1017482
-1017089
-1016720
-1016183
-1015774
-1015447
-1015209
-1013372
-1013109
-1012808
-1012673
-1012519
-1012244
-1012023
-1011872
-1011841
-1011697
-1011513
-1011233
-1011141
-1011210
-1011188
-1010979
-1011015
-1011074
-1011240
-1011386
-1011219
-1011416
-1011717
-1011814
-1012043
-1012070
-1012106
-1012392
-1012690
-1012852
-1012967
-1013213
-1013429
-1013779
-1014077
-1014278
-1014567
-1014858
-1015074
-1015331
-1015613
-1015873
-1015954
-1016357
-1016696
-1016744
-1016996
-1017436
-1017831
-1017888
-1018036
-1018338
-1018640
-1019033
-1019092
-1019292
-1019529
-1019759
-1020075
-1020163
-1020242
-1020508
-1020683
-1020887
-1021117
-1021135
-1021265
-1021569
-1021766
-1021953
-1022051
-1022094
-1022319
-1022508
-1022594
-1022721
-1022707
-1022940
-1023150
-1023295
-1023340
-1023377
-1023584
-1023852
-1023905
-1023850
-1023852
-1024154
-1024318
-1024410
-1024504
-1024531
-1024827
-1024811
-1024941
-1024922
-1025046
-1025260
-1025463
-1025410
-1025533
-1025599
-1025868
-1025986
-1026139
-1026180
-1026235
-1026366
-1026611
-1026706
-1026780
-1026802
-1027102
-1027430
-1027454
-1027358
-1027506
-1027736
-1027920
-1028020
-1028077
-1028174
-1028524
-1028646
-1028902
-1028828
-1028971
-1029142
-1029323
-1029459
-1029611
-1029687
-1029954
-1030163
-1030435
-1030451
-1030513
-1030849
-1031044
-1031242
-1031309
-1031338
-1031688
-1031865
-1032141
-1032225
-1032310
-1032684
-1032885
-1033092
-1033170
-1033175
-1033514
-1033840
-1034049
-1033998
-1034107
-1034326
-1034731
-1034817
-1034840
-1035087
-1035276
-1035597
-1035799
-1035773
-1035981
-1036194
-1036514
-1036785
-1036800
-1036986
-1037192
-1037570
-1037760
-1037777
-1037909
-1038063
-1038372
-1038638
-1038793
-1038803
-1039033
-1039091
-1039522
-1039663
-1039823
-1039960
-1040203
-1040300
-1040407
-1040579
-1040897
-1041086
-1041236
-1041304
-1041431
-1041701
-1041911
-1042063
-1042024
-1042110
-1042327
-1042510
-1042702
-1042646
-1042797
-1042945
-1043255
-1043243
-1043339
-1043317
-1043532
-1043573
-1043676
-1043748
-1043725
-1043802
-1043843
-1044538
-1043908
-1043772
-1043703
-1043770
-1043604
-1043381
-1043250
-1043227
-1043048
-1042809
-1042424
-1042126
-1041832
-1041569
-1041065
-1040468
-1040062
-1039571
-1039041
-1038602
-1037868
-1037231
-1036481
-1035930
-1035362
-1034646
-1033879
-1033188
-1032629
-1031879
-1031103
-1030244
-1029671
-1029122
-1028354
-1027537
-1026789
-1026211
-1025560
-1024903
-1024111
-1023369
-1022908
-1022330
-1021685
-1021007
-1020481
-1020015
-1019580
-1018973
-1018381
-1017775
-1017411
-1017072
-1016663
-1015949
-1015394
-1015083
-1014813
-1014373
-1013976
-1013398
-1013115
-1012662
-1012431
-1012068
-1011765
-1011567
-1011273
-1011052
-1010827
-1010444
-1010296
-1010055
-1009837
-1009573
-1009391
-1009380
-1009353
-1009050
-1008775
-1008700
-1008602
-1008741
-1008591
-1008415
-1008454
-1008567
-1008607
-1008608
-1008635
-1008666
-1008777
-1009020
-1009108
-1009263
-1009354
-1009547
-1009858
-1010048
-1010211
-1010293
-1010552
-1010911
-1011188
-1011323
-1011588
-1011986
-1012370
-1012648
-1012781
-1013076
-1013351
-1013680
-1014135
-1014306
-1014416
-1014869
-1015090
-1015451
-1015669
-1015842
-1016048
-1016390
-1016652
-1016824
-1017007
-1017408
-1017587
-1017924
-1018029
-1018155
-1018469
-1018696
-1018849
-1018941
-1019130
-1019231
-1019623
-1019685
-1019845
-1019823
-1020039
-1020414
-1020652
-1020729
-1020787
-1020887
-1021100
-1021239
-1021386
-1021388
-1021540
-1021706
-1021971
-1021922
-1022048
-1022277
-1022432
-1022619
-1022650
-1022662
-1022867
-1022978
-1023182
-1023214
-1023232
-1023386
-1023698
-1023821
-1023696
-1023836
-1023960
-1024316
-1024508
-1024526
-1024455
-1024618
-1024857
-1025052
-1025066
-1025129
-1025281
-1025611
-1025704
-1025804
-1025955
-1026162
-1026395
-1026619
-1026626
-1026822
-1026876
-1027029
-1027294
-1027310
-1027397
-1027625
-1027932
-1028012
-1028121
-1028180
-1028520
-1028762
-1028910
-1029041
-1029212
-1029343
-1029521
-1029724
-1029821
-1030042
-1030265
-1030404
-1030637
-1030663
-1030956
-1031147
-1031354
-1031691
-1031754
-1031823
-1032162
-1032439
-1032663
-1032778
-1032931
-1033140
-1033460
-1033605
-1033603
-1033875
-1034032
-1034272
-1034578
-1034690
-1034768
-1035118
-1035251
-1035500
-1035722
-1035779
-1035908
-1036351
-1036493
-1036546
-1036805
-1037097
-1037333
-1037530
-1037653
-1037703
-1037999
-1038283
-1038484
-1038599
-1038739
-1038928
-1039324
-1039539
-1039626
-1039672
-1039819
-1040257
-1040378
-1040437
-1040611
-1040756
-1041011
-1041212
-1041266
-1041213
-1041485
-1041702
-1041855
-1041955
-1042114
-1042298
-1042423
-1042680
-1042709
-1042776
-1043020
-1043194
-1043249
-1043254
-1043341
-1043481
-1043548
-1043538
-1043594
-1043620
-1043790
-1043799
-1043709
-1043723
-1043663
-1043799
-1043772
-1043620
-1043467
-1043475
-1043379
-1043287
-1043071
-1042762
-1042574
-1042328
-1041450
-1040641
-1040375
-1039843
-1038783
-1038074
-1037662
-1037154
-1036411
-1035698
-1035211
-1034607
-1033933
-1032248
-1028954
-1028246
-1027141
-1026497
-1025890
-1025247
-1024257
-1023487
-1022864
-1022390
-1021966
-1021491
-1020921
-1020385
-1019930
-1019629
-1019320
-1018734
-1018402
-1018031
-1017688
-1017298
-1016809
-1016495
-1016255
-1015935
-1015623
-1015242
-1014926
-1014788
-1014621
-1014468
-1014027
-1013831
-1013533
-1013236
-1013380
-1013220
-1012765
-1013297
-1012868
-1012652
-1012407
-1012412
-1012486
-1012672
-1012460
-1012354
-1012495
-1012750
-1012835
-1012839
-1012957
-1013087
-1013483
-1013522
-1013614
-1013725
-1014041
-1014382
-1014694
-1014830
-1014974
-1015383
-1015634
-1015960
-1016203
-1016312
-1016771
-1017095
-1017448
-1017511
-1017692
-1018021
-1018383
-1018793
-1019106
-1019182
-1019589
-1019987
-1020156
-1020245
-1020513
-1020482
-1020980
-1021451
-1021498
-1021926
-1022005
-1022351
-1022589
-1022710
-1022796
-1023078
-1023280
-1023485
-1023600
-1023683
-1023777
-1024108
-1024421
-1024269
-1024434
-1024553
-1024812
-1025124
-1025238
-1025197
-1025317
-1025545
-1025571
-1025738
-1025860
-1025922
-1026210
-1026314
-1026485
-1026500
-1026620
-1026817
-1026882
-1026988
-1026938
-1027188
-1027386
-1027581
-1027644
-1027590
-1027598
-1027905
-1028125
-1028024
-1028108
-1028228
-1028485
-1028601
-1028701
-1028710
-1028805
-1029022
-1029107
-1029331
-1029350
-1029473
-1029680
-1029833
-1029966
-1030124
-1030365
-1030422
-1030726
-1030776
-1030791
-1030936
-1031075
-1031271
-1031423
-1031471
-1031682
-1031966
-1032149
-1032218
-1032284
-1032492
-1032725
-1032874
-1032880
-1033127
-1033284
-1033579
-1033636
-1033883
-1033796
-1034077
-1034234
-1034444
-1034704
-1034640
-1034749
-1035218
-1035325
-1035491
-1035651
-1035715
-1035909
-1036206
-1036336
-1036514
-1036693
-1036991
-1037786
-1037548
-1037371
-1037560
-1037829
-1038076
-1038151
-1038214
-1038475
-1038862
-1039041
-1039123
-1039182
-1039330
-1039763
-1040032
-1040039
-1040124
-1040360
-1040600
-1040781
-1041026
-1041087
-1041236
-1041542
-1041728
-1041918
-1041938
-1042160
-1042369
-1042560
-1042698
-1042808
-1043093
-1043321
-1043588
-1043534
-1043565
-1043715
-1043955
-1044165
-1044212
-1044304
-1044399
-1044691
-1044819
-1044918
-1044912
-1045064
-1045161
-1045291
-1045261
-1045400
-1045419
-1045660
-1045733
-1045840
-1045690
-1045851
-1046093
-1046027
-1046053
-1045898
-1045973
-1046043
-1045749
-1045799
-1045722
-1045539
-1045618
-1045518
-1045287
-1045009
-1044664
-1044321
-1044176
-1043668
-1043115
-1042646
-1042406
-1041911
-1041080
-1040690
-1040173
-1039707
-1039064
-1038452
-1037744
-1036967
-1036933
-1035923
-1035012
-1034206
-1033633
-1033003
-1032354
-1031473
-1030628
-1030120
-1029441
-1028912
-1028162
-1027513
-1026587
-1026319
-1025681
-1025210
-1024398
-1023920
-1023406
-1022880
-1022439
-1020876
-1020596
-1019936
-1019531
-1019023
-1018657
-1018293
-1017872
-1017605
-1017147
-1016963
-1016331
-1015664
-1015325
-1015196
-1014515
-1014422
-1014308
-1014104
-1014009
-1013780
-1013462
-1013312
-1013196
-1013147
-1012981
-1012791
-1012718
-1012500
-1012677
-1012673
-1012674
-1012583
-1012772
-1012898
-1012833
-1012937
-1012988
-1013079
-1013389
-1013447
-1013561
-1013702
-1014021
-1014201
-1014359
-1014463
-1014700
-1015084
-1015296
-1015615
-1015744
-1015902
-1016305
-1016578
-1016861
-1016987
-1017142
-1017578
-1017977
-1018086
-1018252
-1018464
-1018913
-1019157
-1019368
-1019469
-1019749
-1020090
-1020342
-1020622
-1020716
-1020969
-1021179
-1021499
-1021663
-1022448
-1022120
-1022233
-1022426
-1022641
-1022715
-1022863
-1023039
-1023351
-1023497
-1023489
-1023753
-1024028
-1024240
-1024221
-1025372
-1024752
-1024814
-1024863
-1025050
-1025076
-1025303
-1025560
-1025784
-1025715
-1025752
-1025977
-1026135
-1026324
-1026287
-1026449
-1026583
-1026780
-1026877
-1026913
-1027002
-1027163
-1027491
-1027250
-1027533
-1027738
-1028056
-1028021
-1028192
-1028470
-1029074
-1029153
-1029212
-1029301
-1029407
-1029757
-1029841
-1029986
-1029947
-1030102
-1030267
-1030589
-1030653
-1030690
-1030746
-1031029
-1031195
-1031421
-1031357
-1031496
-1031795
-1032116
-1032268
-1032321
-1032487
-1032694
-1032936
-1032949
-1033121
-1033294
-1033439
-1033745
-1033996
-1033743
-1034048
-1034325
-1034622
-1034773
-1034862
-1034999
-1035136
-1035526
-1035782
-1035828
-1035963
-1036146
-1036540
-1036688
-1036662
-1036741
-1037059
-1037415
-1037436
-1037640
-1037693
-1037968
-1038164
-1038328
-1038402
-1038577
-1038996
-1039180
-1039257
-1039328
-1039491
-1039780
-1039934
-1040008
-1040036
-1040210
-1040411
-1040617
-1040762
-1040859
-1040952
-1041119
-1041293
-1041398
-1041326
-1041407
-1041561
-1041514
-1041583
-1041674
-1041919
-1042279
-1042346
-1042322
-1042520
-1042669
-1043006
-1043049
-1043020
-1043214
-1043364
-1043644
-1044313
-1043799
-1043794
-1043958
-1044017
-1044159
-1044093
-1044114
-1044270
-1044329
-1044252
-1043870
-1043932
-1044186
-1044181
-1043953
-1043679
-1043424
-1043351
-1043105
-1042842
-1042429
-1042042
-1041654
-1041361
-1040720
-1039997
-1039419
-1038943
-1038455
-1037728
-1036861
-1036356
-1035663
-1035148
-1034493
-1033586
-1032778
-1032071
-1031436
-1030688
-1030006
-1029121
-1028547
-1027939
-1027182
-1026420
-1025722
-1025257
-1024666
-1023887
-1023084
-1022535
-1022016
-1021545
-1020867
-1020049
-1019524
-1019048
-1018578
-1018126
-1017461
-1016957
-1016464
-1016042
-1015637
-1015096
-1014574
-1014252
-1014036
-1013629
-1013202
-1012693
-1012438
-1012268
-1011880
-1011454
-1011069
-1010920
-1010669
-1010344
-1009900
-1009711
-1009547
-1009494
-1009220
-1008881
-1008672
-1008639
-1008479
-1008317
-1007959
-1007898
-1007925
-1008024
-1008006
-1007886
-1007721
-1007870
-1007887
-1007903
-1007956
-1008003
-1008226
-1008453
-1008562
-1008472
-1008791
-1009028
-1009244
-1009430
-1009695
-1009985
-1010289
-1010546
-1010771
-1011025
-1011400
-1011628
-1012002
-1012107
-1012423
-1012706
-1013113
-1013309
-1013543
-1013725
-1014134
-1014578
-1014681
-1014971
-1015170
-1015474
-1015702
-1015911
-1016127
-1016307
-1016584
-1017041
-1017237
-1017293
-1017430
-1017714
-1018047
-1018235
-1018188
-1018359
-1018567
-1018968
-1019140
-1019137
-1019279
-1019461
-1019821
-1019852
-1019889
-1020056
-1020354
-1020511
-1020482
-1020564
-1020699
-1020929
-1021245
-1021395
-1021348
-1021386
-1021654
-1021796
-1021924
-1021641
-1022000
-1022172
-1022441
-1022651
-1022591
-1022687
-1023001
-1023182
-1023199
-1023211
-1023326
-1023562
-1023608
-1023864
-1023790
-1023915
-1024048
-1024317
-1024445
-1024426
-1024590
-1024643
-1025029
-1025194
-1024987
-1025289
-1025146
-1025651
-1025923
-1025899
-1025958
-1026150
-1026597
-1026619
-1026787
-1026522
-1026851
-1026958
-1027307
-1027190
-1027631
-1027882
-1028155
-1028148
-1028302
-1028450
-1028729
-1028938
-1028847
-1029087
-1029237
-1029505
-1029803
-1030095
-1030107
-1030328
-1030508
-1030817
-1031091
-1031209
-1031277
-1031447
-1031690
-1031753
-1031992
-1032182
-1032163
-1032749
-1032879
-1032969
-1033144
-1033422
-1033609
-1034170
-1034060
-1034115
-1034402
-1034691
-1035028
-1035013
-1035855
-1036418
-1036052
-1036112
-1036111
-1035849
-1036394
-1036668
-1036842
-1037128
-1037240
-1037380
-1037703
-1037918
-1038957
-1038294
-1038433
-1038682
-1038750
-1038818
-1038892
-1039152
-1039348
-1039312
-1039509
-1039561
-1039613
-1040073
-1040291
-1040446
-1041086
-1041082
-1041007
-1041154
-1041092
-1041177
-1041320
-1041616
-1041365
-1041587
-1041622
-1041790
-1041906
-1042077
-1042062
-1041990
-1042079
-1042120
-1042230
-1042061
-1042046
-1041946
-1041896
-1041894
-1041639
-1041379
-1041247
-1041267
-1040756
-1040089
-1039807
-1039626
-1040139
-1038926
-1038091
-1037581
-1037089
-1037406
-1036133
-1035218
-1034420
-1033709
-1033168
-1032472
-1031657
-1030834
-1030141
-1029381
-1028795
-1027909
-1027066
-1026356
-1025870
-1025035
-1024228
-1023311
-1022849
-1021945
-1022005
-1021145
-1020334
-1019351
-1018752
-1018519
-1017567
-1017150
-1016380
-1016123
-1015770
-1014963
-1012810
-1012347
-1012008
-1011611
-1011111
-1010867
-1010390
-1010061
-1009823
-1010001
-1009167
-1008696
-1008098
-1008079
-1007872
-1007533
-1007201
-1007062
-1007011
-1006733
-1006539
-1006169
-1006104
-1006266
-1006085
-1005838
-1005568
-1005474
-1005452
-1006060
-1005315
-1005209
-1005395
-1005446
-1005487
-1005476
-1005182
-1005453
-1005788
-1006044
-1006031
-1006155
-1006472
-1006724
-1007006
-1007179
-1007220
-1007540
-1007925
-1008089
-1008244
-1008527
-1008927
-1009163
-1009964
-1009913
-1009901
-1010253
-1010693
-1011057
-1011194
-1011350
-1011694
-1012062
-1012377
-1012629
-1012848
-1013028
-1013336
-1013605
-1013783
-1013987
-1014231
-1014506
-1014856
-1014984
-1015049
-1015357
-1015607
-1015880
-1015970
-1015981
-1016319
-1016620
-1016864
-1016843
-1016899
-1017190
-1017379
-1017608
-1017791
-1017840
-1018054
-1018146
-1018322
-1018368
-1018507
-1018535
-1018856
-1018966
-1019097
-1019124
-1019215
-1019443
-1019725
-1019668
-1019808
-1019963
-1020060
-1020230
-1020282
-1020273
-1020570
-1020799
-1020968
-1021023
-1021000
-1021124
-1021438
-1021516
-1021627
-1021694
-1022151
-1022255
-1022421
-1022495
-1022547
-1022765
-1023031
-1023040
-1023053
-1023331
-1023465
-1023777
-1023852
-1023812
-1024103
-1024160
-1024536
-1024611
-1024747
-1024763
-1024993
-1025260
-1025343
-1025547
-1025675
-1025882
-1026247
-1026363
-1026355
-1026625
-1026925
-1027131
-1027241
-1027312
-1027594
-1027847
-1028063
-1028228
-1028298
-1028468
-1028690
-1029023
-1029115
-1029221
-1029386
-1029638
-1030013
-1030041
-1030180
-1030465
-1030806
-1031026
-1031162
-1031169
-1031401
-1031761
-1032065
-1032015
-1032110
-1032429
-1032786
-1033042
-1033105
-1033244
-1033402
-1033625
-1033854
-1034121
-1034228
-1034358
-1034538
-1034918
-1035099
-1035162
-1035434
-1035651
-1035803
-1035868
-1036070
-1036261
-1036521
-1036764
-1036919
-1036968
-1037153
-1037579
-1037717
-1037807
-1037898
-1038077
-1038464
-1038570
-1038711
-1038725
-1038892
-1039234
-1039374
-1039511
-1039525
-1039721
-1040006
-1040039
-1040173
-1040083
-1040318
-1040481
-1040531
-1040642
-1040667
-1040755
-1040838
-1040916
-1040863
-1040929
-1040967
-1041002
-1041076
-1040875
-1040745
-1040541
-1040450
-1040309
-1040120
-1039831
-1039518
-1039419
-1038996
-1038631
-1038072
-1037596
-1037186
-1036849
-1036179
-1035584
-1034996
-1034367
-1033852
-1033193
-1032355
-1031692
-1030970
-1030504
-1029628
-1028926
-1028143
-1026690
-1026028
-1025185
-1024416
-1023918
-1023246
-1022455
-1021765
-1021123
-1020567
-1019948
-1019332
-1018653
-1018102
-1017522
-1016961
-1016405
-1015689
-1015186
-1014892
-1014479
-1013927
-1013350
-1012840
-1012535
-1012199
-1011712
-1011274
-1010767
-1010551
-1010223
-1009880
-1009528
-1009218
-1008960
-1008774
-1008387
-1007926
-1007728
-1007597
-1007352
-1007129
-1006789
-1006619
-1006493
-1006404
-1006111
-1006026
-1005931
-1005815
-1005926
-1005794
-1005482
-1005426
-1005466
-1005494
-1005568
-1005497
-1005609
-1005811
-1006002
-1006108
-1006096
-1006136
-1006482
-1006667
-1006782
-1006902
-1007162
-1007462
-1007754
-1007890
-1008090
-1008412
-1008743
-1009121
-1009335
-1009455
-1009853
-1010273
-1010470
-1010671
-1010843
-1011101
-1011483
-1011994
-1012304
-1012313
-1012737
-1013083
-1013408
-1013538
-1013814
-1014089
-1014322
-1014596
-1014861
-1014970
-1015157
-1015590
-1015741
-1016021
-1016113
-1016409
-1016574
-1016952
-1017050
-1017187
-1017330
-1017615
-1017739
-1017903
-1017932
-1018075
-1018400
-1018604
-1018737
-1018846
-1018966
-1019160
-1019451
-1019597
-1019480
-1019622
-1019869
-1020007
-1020220
-1020247
-1020275
-1020537
-1020729
-1020835
-1020854
-1020852
-1021130
-1021325
-1021412
-1021542
-1021699
-1021871
-1021999
-1022195
-1022226
-1022205
-1022448
-1022651
-1022786
-1022928
-1022942
-1023211
-1023427
-1023499
-1023649
-1023706
-1023880
-1024047
-1024206
-1024281
-1024377
-1024601
-1024847
-1024983
-1025037
-1025197
-1025420
-1025602
-1025734
-1025924
-1025973
-1026235
-1026424
-1026468
-1026654
-1026829
-1027259
-1027362
-1027474
-1027530
-1027658
-1028006
-1028199
-1028428
-1028655
-1028766
-1029118
-1029235
-1029485
-1029491
-1029577
-1029903
-1030310
-1030492
-1030575
-1030658
-1030962
-1031319
-1031412
-1031521
-1031782
-1032033
-1032293
-1032475
-1032459
-1032729
-1032948
-1033230
-1033368
-1033485
-1033691
-1034013
-1034322
-1034460
-1034551
-1034643
-1034961
-1035167
-1035400
-1035486
-1035731
-1036060
-1036328
-1036503
-1036525
-1036672
-1036940
-1037196
-1037345
-1037437
-1037692
-1037940
-1038432
-1038601
-1038904
-1039191
-1039393
-1039495
-1039693
-1040135
-1040154
-1040186
-1040407
-1040596
-1040799
-1040973
-1040956
-1041096
-1041270
-1041565
-1041678
-1041619
-1041691
-1041808
-1042072
-1042203
-1042154
-1042224
-1042289
-1042519
-1042532
-1042605
-1042549
-1042759
-1042745
-1042674
-1042557
-1042488
-1042581
-1042525
-1042535
-1042359
-1042109
-1042045
-1041602
-1041127
-1040785
-1040537
-1040189
-1039738
-1039196
-1038716
-1038224
-1037797
-1037224
-1036380
-1035705
-1035156
-1034582
-1033903
-1033138
-1032412
-1031926
-1031289
-1030534
-1029706
-1029084
-1028388
-1027733
-1027222
-1026506
-1025731
-1025168
-1024625
-1023962
-1023274
-1022686
-1022195
-1021697
-1021088
-1020502
-1019911
-1019479
-1019088
-1018587
-1017977
-1017424
-1017132
-1016805
-1016423
-1015914
-1015520
-1015291
-1014933
-1014664
-1014153
-1013793
-1013573
-1013391
-1013062
-1012710
-1012536
-1012262
-1012141
-1012045
-1011644
-1011502
-1011462
-1011397
-1011203
-1011015
-1010818
-1010855
-1010761
-1010670
-1010634
-1010551
-1010646
-1010629
-1010688
-1010655
-1010727
-1010884
-1011058
-1011117
-1011284
-1011273
-1011657
-1011863
-1012094
-1012184
-1012371
-1012766
-1013190
-1013264
-1013418
-1013566
-1013991
-1014336
-1014785
-1014907
-1015174
-1015420
-1015853
-1016188
-1016319
-1016689
-1017012
-1017436
-1017714
-1017953
-1018010
-1018474
-1018771
-1018984
-1019206
-1019328
-1019753
-1020010
-1020151
-1020349
-1020515
-1020895
-1021273
-1021492
-1021539
-1021736
-1021953
-1022136
-1022405
-1022465
-1022646
-1022944
-1023108
-1023365
-1023447
-1023582
-1023657
-1023892
-1024023
-1024062
-1024189
-1024512
-1024726
-1024777
-1024886
-1025005
-1025243
-1025413
-1025458
-1025484
-1025515
-1025740
-1025949
-1026117
-1026152
-1026225
-1026405
-1026614
-1026714
-1026745
-1026856
-1027041
-1027265
-1027464
-1027506
-1027575
-1027751
-1028033
-1028114
-1028035
-1028090
-1028472
-1028621
-1028706
-1028878
-1029042
-1029135
-1029278
-1029534
-1029523
-1029586
-1029805
-1030075
-1030207
-1030195
-1030362
-1030586
-1030862
-1030996
-1031088
-1031163
-1031415
-1031525
-1031686
-1031830
-1032034
-1032192
-1032451
-1032564
-1032722
-1032839
-1032985
-1033274
-1033407
-1033501
-1033582
-1033868
-1034155
-1034337
-1034458
-1034606
-1034711
-1034994
-1035273
-1035279
-1035434
-1035668
-1035909
-1036035
-1036116
-1036370
-1036595
-1036929
-1036968
-1037067
-1037251
-1037533
-1037922
-1037981
-1038082
-1038299
-1038409
-1038747
-1038987
-1039015
-1039141
-1039406
-1039681
-1039844
-1040044
-1040185
-1040339
-1040552
-1040738
-1040768
-1040900
-1041285
-1041465
-1041748
-1041790
-1042009
-1042286
-1042479
-1042528
-1042693
-1042724
-1043071
-1043197
-1043428
-1043520
-1043617
-1043875
-1044032
-1044234
-1044195
-1044191
-1044494
-1044613
-1044747
-1044892
-1044988
-1045112
-1045206
-1045357
-1045395
-1045449
-1045608
-1045755
-1045848
-1045771
-1045904
-1045959
-1046166
-1046223
-1046236
-1046116
-1046292
-1046445
-1046380
-1046290
-1046048
-1046096
-1046112
-1046059
-1045800
-1045568
-1045406
-1045438
-1045200
-1044790
-1044323
-1044094
-1043891
-1043423
-1042973
-1042425
-1042029
-1041526
-1040916
-1040175
-1039543
-1039090
-1038483
-1037768
-1037029
-1036344
-1035735
-1035122
-1034401
-1033583
-1032851
-1032218
-1031656
-1031039
-1030206
-1029521
-1028920
-1028466
-1027678
-1027096
-1026471
-1025956
-1025465
-1024931
-1024282
-1023692
-1023314
-1022898
-1022455
-1021880
-1021382
-1020890
-1020600
-1020229
-1019704
-1019265
-1019038
-1018738
-1018407
-1017909
-1017551
-1017353
-1017189
-1016922
-1016573
-1016101
-1015841
-1015803
-1015618
-1015437
-1015075
-1014923
-1014840
-1014673
-1014433
-1014203
-1014242
-1014348
-1014288
-1014203
-1013894
-1013991
-1014100
-1014054
-1014058
-1013947
-1014030
-1014281
-1014510
-1014479
-1014610
-1014767
-1015082
-1015252
-1015321
-1015314
-1015677
-1016012
-1016328
-1016461
-1016677
-1016853
-1017356
-1017620
-1017817
-1017880
-1018194
-1018477
-1018723
-1018928
-1019250
-1019530
-1019829
-1020171
-1020317
-1020484
-1020766
-1021113
-1021393
-1021648
-1021777
-1022031
-1022279
-1022515
-1022670
-1022886
-1023209
-1023472
-1023710
-1023789
-1023947
-1024123
-1024371
-1024564
-1024788
-1024797
-1025149
-1025297
-1025474
-1025695
-1025758
-1025965
-1026168
-1026267
-1026439
-1026532
-1026712
-1026866
-1027019
-1027086
-1027147
-1027408
-1027704
-1027778
-1027938
-1027957
-1028125
-1028285
-1028568
-1028617
-1028693
-1028838
-1029029
-1029119
-1029248
-1029292
-1029588
-1029650
-1029835
-1030000
-1030049
-1030267
-1030375
-1030634
-1030709
-1030784
-1030878
-1031146
-1031407
-1031351
-1031383
-1031551
-1031829
-1032099
-1032088
-1032185
-1032371
-1032661
-1032821
-1032802
-1032901
-1032764
-1033268
-1033476
-1033520
-1033640
-1033751
-1034064
-1034162
-1034246
-1034418
-1034623
-1034917
-1034967
-1035140
-1035307
-1035366
-1035558
-1035791
-1035915
-1036006
-1036122
-1036495
-1036772
-1036883
-1036915
-1037044
-1037445
-1037539
-1037669
-1037718
-1037855
-1038102
-1038391
-1038519
-1038652
-1038778
-1039051
-1039181
-1039306
-1039433
-1039652
-1039970
-1040102
-1040099
-1040264
-1040472
-1040789
-1041029
-1041192
-1041244
-1041529
-1041726
-1041943
-1042084
-1042097
-1042377
-1042695
-1042866
-1043010
-1043101
-1043426
-1043630
-1043897
-1044027
-1044001
-1044370
-1044672
-1044801
-1044847
-1044882
-1045223
-1045405
-1045646
-1045712
-1045802
-1046042
-1046335
-1046394
-1046603
-1046644
-1046797
-1046961
-1047087
-1047218
-1047343
-1047356
-1047560
-1047705
-1047732
-1047823
-1047924
-1048031
-1048359
-1048396
-1048235
-1048325
-1048426
-1048512
-1048423
-1048333
-1048422
-1048549
-1048575
-1048325
-1048081
-1048050
-1047968
-1047685
-1047378
-1047059
-1046806
-1046692
-1046264
-1045833
-1045269
-1044835
-1044426
-1043961
-1043363
-1042560
-1041986
-1041413
-1040833
-1040181
-1039338
-1038673
-1038089
-1037380
-1036522
-1035705
-1035169
-1034501
-1033793
-1033145
-1032349
-1031554
-1031010
-1030342
-1029751
-1028962
-1028317
-1027883
-1027203
-1026476
-1025831
-1025224
-1024891
-1024403
-1023773
-1023108
-1022587
-1022276
-1021914
-1021267
-1020778
-1020460
-1020056
-1019778
-1019327
-1018907
-1018578
-1018279
-1017786
-1017495
-1017036
-1016723
-1016176
-1016182
-1016061
-1015628
-1015427
-1015372
-1015135
-1014898
-1014631
-1014405
-1014424
-1014275
-1014086
-1013868
-1013628
-1013816
-1013895
-1013685
-1013651
-1013668
-1013780
-1013822
-1013891
-1013711
-1013802
-1014112
-1014165
-1014227
-1014375
-1014631
-1014852
-1015100
-1015163
-1015370
-1016182
-1016073
-1016221
-1016423
-1016620
-1016841
-1017208
-1017576
-1017769
-1017882
-1018331
-1018587
-1018699
-1019058
-1019273
-1019476
-1019988
-1020299
-1020414
-1020614
-1020891
-1021267
-1021585
-1021754
-1021723
-1022055
-1022336
-1022681
-1022820
-1022961
-1023054
-1023301
-1023691
-1023846
-1023996
-1024059
-1024314
-1024684
-1024825
-1024773
-1025003
-1025223
-1025368
-1025593
-1025522
-1025788
-1026088
-1026295
-1026296
-1026429
-1026634
-1026740
-1026946
-1027107
-1027125
-1027180
-1027290
-1027565
-1027544
-1027585
-1027805
-1027934
-1028186
-1028197
-1028334
-1028392
-1028498
-1028789
-1028870
-1028985
-1029818
-1029514
-1029452
-1029416
-1029498
-1029604
-1029805
-1029973
-1030144
-1030222
-1030244
-1030520
-1030706
-1030667
-1030856
-1031005
-1031143
-1031372
-1031302
-1031411
-1031594
-1031817
-1032056
-1032144
-1032189
-1032364
-1032500
-1032741
-1032859
-1032913
-1032991
-1033233
-1033168
-1033428
-1033637
-1033930
-1034166
-1034334
-1034365
-1034433
-1034645
-1034911
-1035244
-1035373
-1035460
-1035678
-1035927
-1036201
-1036311
-1036354
-1036605
-1036911
-1037047
-1037255
-1037234
-1037492
-1037800
-1037704
-1038039
-1038170
-1038294
-1038652
-1038850
-1039061
-1039116
-1039307
-1039681
-1039879
-1040140
-1040213
-1040381
-1040669
-1040961
-1041024
-1041091
-1041359
-1041653
-1041884
-1041998
-1042079
-1042386
-1042524
-1042873
-1043084
-1043094
-1043267
-1043617
-1043760
-1043921
-1044086
-1044276
-1044564
-1044884
-1044894
-1045002
-1045188
-1045543
-1045662
-1045849
-1045835
-1046103
-1046349
-1046487
-1046590
-1046549
-1046760
-1046883
-1047140
-1047267
-1047193
-1047207
-1047455
-1047667
-1047725
-1047732
-1047820
-1048048
-1048092
-1048190
-1048062
-1048124
-1048221
-1048198
-1048166
-1047971
-1047948
-1047978
-1047820
-1047674
-1047347
-1047110
-1046923
-1046736
-1046409
-1045990
-1045473
-1045153
-1044835
-1044151
-1043520
-1042932
-1042547
-1041994
-1041151
-1040449
-1039764
-1039032
-1038506
-1037779
-1036874
-1036025
-1035404
-1034774
-1033973
-1033156
-1032349
-1031726
-1031042
-1030422
-1029518
-1028836
-1028252
-1027520
-1026825
-1026398
-1025611
-1024985
-1024399
-1023662
-1022993
-1022542
-1022019
-1021510
-1021052
-1020456
-1019949
-1019441
-1019006
-1018529
-1017927
-1017492
-1017244
-1016832
-1016357
-1015981
-1015656
-1015357
-1015018
-1014573
-1014166
-1013963
-1013799
-1013617
-1012950
-1012785
-1012512
-1012304
-1012249
-1011954
-1011647
-1011569
-1011492
-1011382
-1011187
-1011015
-1010840
-1010897
-1010912
-1011351
-1010896
-1010687
-1010657
-1010731
-1010757
-1010833
-1010901
-1011136
-1011282
-1011065
-1011426
-1011613
-1011892
-1012200
-1012374
-1012584
-1012644
-1013007
-1013257
-1013505
-1013744
-1014053
-1014372
-1014613
-1014969
-1015210
-1015447
-1015792
-1015978
-1016311
-1016437
-1016659
-1017160
-1017395
-1017678
-1017633
-1017972
-1018392
-1018726
-1019063
-1019138
-1019286
-1019594
-1020011
-1020041
-1020219
-1020467
-1020789
-1020941
-1021127
-1021252
-1021368
-1021749
-1021964
-1022113
-1022037
-1022283
-1022432
-1022777
-1022850
-1022852
-1022916
-1023221
-1023448
-1023549
-1023508
-1023631
-1023869
-1023969
-1024145
-1024199
-1024327
-1024548
-1024612
-1024697
-1024796
-1024899
-1025054
-1025270
-1025393
-1025309
-1025432
-1025666
-1025906
-1026792
-1026227
-1026160
-1026311
-1026360
-1026403
-1026537
-1026737
-1026867
-1027081
-1027138
-1027120
-1027211
-1027399
-1027566
-1027693
-1027860
-1027885
-1028053
-1028189
-1028263
-1028476
-1028599
-1028766
-1028913
-1029613
-1029253
-1029410
-1030442
-1030026
-1029986
-1029982
-1030131
-1030331
-1030572
-1030772
-1030884
-1031024
-1031327
-1031519
-1031627
-1031723
-1031762
-1032085
-1032301
-1032571
-1032714
-1032814
-1033111
-1033302
-1033472
-1033752
-1033838
-1034035
-1034202
-1034591
-1034658
-1034711
-1034948
-1035028
-1035485
-1035536
-1035725
-1036020
-1036246
-1036378
-1036539
-1036795
-1036719
-1037148
-1037321
-1037465
-1037617
-1037983
-1038263
-1038511
-1038639
-1038711
-1039061
-1039364
-1039449
-1039658
-1039760
-1040020
-1040239
-1040440
-1040630
-1040688
-1040912
-1041180
-1041401
-1041547
-1041578
-1041810
-1042046
-1042355
-1042423
-1042596
-1042426
-1042843
-1042994
-1043110
-1043258
-1043475
-1043805
-1043883
-1043703
-1044039
-1044325
-1044352
-1044430
-1044396
-1044681
-1044862
-1044989
-1044998
-1045072
-1045223
-1045346
-1045282
-1045272
-1045249
-1045383
-1045462
-1045277
-1045176
-1045005
-1044989
-1044892
-1044700
-1044387
-1044260
-1044007
-1043818
-1043432
-1042932
-1042561
-1042172
-1041821
-1041268
-1041608
-1040267
-1039561
-1039041
-1038403
-1037502
-1036899
-1036206
-1035575
-1034886
-1034134
-1033466
-1032699
-1032039
-1031079
-1030811
-1029876
-1029202
-1028421
-1027733
-1026987
-1026301
-1025612
-1025029
-1024518
-1023758
-1023131
-1022621
-1021921
-1021589
-1020924
-1020390
-1019873
-1019413
-1018980
-1018258
-1017865
-1017461
-1017089
-1016709
-1016214
-1015802
-1015346
-1014974
-1014749
-1015106
-1014017
-1013610
-1013316
-1012977
-1012480
-1012236
-1012032
-1011919
-1011682
-1011384
-1011134
-1010945
-1010819
-1010711
-1010442
-1010262
-1009874
-1010018
-1009927
-1009814
-1009616
-1009765
-1010104
-1010217
-1010339
-1010570
-1010867
-1010886
-1011094
-1011324
-1011523
-1011762
-1012099
-1012320
-1012475
-1012791
-1013141
-1013452
-1013509
-1013911
-1014247
-1014667
-1014849
-1015164
-1015365
-1015690
-1016117
-1016369
-1016590
-1016816
-1017129
-1017486
-1017796
-1017985
-1018202
-1018486
-1018857
-1019105
-1019281
-1019564
-1019753
-1020130
-1020305
-1020559
-1020650
-1020948
-1021220
-1021426
-1021523
-1021638
-1021894
-1022205
-1022408
-1022399
-1022530
-1022541
-1022977
-1023121
-1023243
-1023440
-1023636
-1023905
-1024863
-1024897
-1024957
-1025147
-1025300
-1025531
-1025450
-1025564
-1025994
-1026107
-1026258
-1026320
-1026254
-1026420
-1026724
-1026816
-1026889
-1027041
-1027258
-1027441
-1027648
-1027620
-1027803
-1028292
-1028276
-1028280
-1028296
-1028375
-1028652
-1028927
-1029036
-1029167
-1029164
-1029305
-1029591
-1029768
-1029805
-1029969
-1030118
-1030334
-1030674
-1030715
-1030742
-1031078
-1031246
-1031500
-1031554
-1031645
-1031902
-1032299
-1032503
-1032567
-1032618
-1032853
-1033238
-1033428
-1033467
-1033545
-1033919
-1034158
-1034416
-1034503
-1034575
-1034851
-1035279
-1035427
-1035550
-1035701
-1035894
-1036243
-1036481
-1036493
-1036653
-1037026
-1037358
-1037220
-1037570
-1037795
-1037986
-1038432
-1038711
-1038829
-1038997
-1039315
-1039556
-1039682
-1039560
-1040035
-1040318
-1040653
-1040850
-1041047
-1041140
-1041382
-1041692
-1041985
-1042139
-1042272
-1042596
-1042903
-1043039
-1043198
-1043248
-1043610
-1044067
-1044211
-1044450
-1044523
-1044837
-1045501
-1045832
-1046031
-1046335
-1046383
-1046470
-1046705
-1046931
-1047117
-1047272
-1047486
-1047770
-1047838
-1047848
-1047912
-1048151
-1048391
-1048579
-1048441
-1048513
-1048730
-1048803
-1048878
-1048909
-1049009
-1049056
-1049169
-1049214
-1049108
-1048968
-1049209
-1049205
-1049056
-1049060
-1048873
-1048771
-1048606
-1048369
-1048183
-1047839
-1047516
-1047381
-1047043
-1046650
-1046130
-1045587
-1045085
-1044598
-1044060
-1043391
-1042899
-1042321
-1041602
-1040802
-1040099
-1039375
-1038922
-1037906
-1037393
-1036604
-1035835
-1035166
-1034535
-1033641
-1032930
-1032232
-1031732
-1030978
-1030213
-1029644
-1029039
-1028409
-1027816
-1027192
-1026475
-1026105
-1025647
-1025172
-1024538
-1023946
-1023437
-1023118
-1022732
-1022277
-1021706
-1021259
-1020945
-1020527
-1020133
-1019727
-1019336
-1019138
-1018791
-1018321
-1018014
-1017716
-1017534
-1017270
-1016788
-1016426
-1016282
-1016221
-1015927
-1015638
-1015328
-1015239
-1015150
-1015090
-1014914
-1014669
-1014713
-1014628
-1014647
-1014521
-1014500
-1014519
-1014532
-1014670
-1014580
-1014652
-1014775
-1014883
-1015026
-1015232
-1015214
-1015360
-1015671
-1015716
-1016024
-1016233
-1016459
-1016678
-1016965
-1017099
-1017255
-1017677
-1018037
-1018185
-1018411
-1018506
-1018811
-1019289
-1019572
-1019601
-1019821
-1020161
-1020445
-1020732
-1020858
-1021025
-1021312
-1021615
-1021705
-1021865
-1022113
-1022223
-1022593
-1022781
-1022805
-1023021
-1023019
-1023365
-1023622
-1023761
-1023744
-1024011
-1024180
-1024443
-1024489
-1024514
-1024582
-1024785
-1025090
-1025095
-1025044
-1025134
-1025306
-1025559
-1025539
-1025536
-1025645
-1025918
-1026003
-1026022
-1026056
-1026234
-1026515
-1026643
-1026755
-1026794
-1026886
-1027146
-1027191
-1027245
-1027389
-1027444
-1027634
-1027695
-1027659
-1027868
-1027992
-1028302
-1028332
-1028393
-1028334
-1028454
-1028677
-1028814
-1029028
-1028862
-1029101
-1029261
-1029445
-1029436
-1029500
-1029574
-1029907
-1030055
-1030059
-1030189
-1030404
-1030545
-1030639
-1030777
-1030734
-1030894
-1031135
-1031310
-1031414
-1031330
-1031506
-1031754
-1032022
-1032074
-1032159
-1032380
-1033308
-1033004
-1032873
-1032902
-1033038
-1033260
-1033402
-1033505
-1033816
-1033894
-1034116
-1034418
-1034371
-1034508
-1034614
-1035042
-1035185
-1035369
-1035406
-1035564
-1035753
-1035953
-1036096
-1036243
-1036420
-1036433
-1036760
-1036945
-1036983
-1037247
-1037537
-1037783
-1037812
-1038018
-1038310
-1038588
-1038795
-1038737
-1038799
-1038988
-1039296
-1039569
-1039690
-1039813
-1039896
-1040167
-1040391
-1040507
-1040733
-1040876
-1041137
-1041317
-1041452
-1041505
-1041762
-1042078
-1042256
-1042318
-1042326
-1042593
-1042851
-1043100
-1043165
-1043169
-1044007
-1043829
-1043742
-1043761
-1043884
-1044063
-1044141
-1044190
-1044237
-1044323
-1044504
-1044673
-1044916
-1044980
-1044848
-1044884
-1044939
-1045182
-1044978
-1044938
-1045071
-1045024
-1045051
-1044824
-1044743
-1044530
-1044387
-1044001
-1044143
-1043419
-1043071
-1042789
-1042174
-1041650
-1041278
-1040902
-1040206
-1039647
-1038873
-1038268
-1037693
-1037093
-1036318
-1035566
-1034848
-1034244
-1033568
-1032682
-1031947
-1031246
-1030641
-1029827
-1029109
-1028229
-1027497
-1026944
-1026334
-1025611
-1024932
-1024212
-1023706
-1023234
-1022564
-1021758
-1021313
-1020790
-1020238
-1019683
-1019113
-1018636
-1018198
-1017783
-1017328
-1016684
-1016232
-1015929
-1015542
-1015085
-1014546
-1014162
-1013933
-1013625
-1013206
-1012885
-1012474
-1012167
-1012530
-1011755
-1011257
-1010880
-1010869
-1010663
-1010454
-1010071
-1009889
-1010346
-1009809
-1009445
-1009086
-1009122
-1009108
-1009043
-1008822
-1008641
-1008747
-1008936
-1008928
-1008584
-1008662
-1008937
-1009032
-1009164
-1009281
-1009328
-1009434
-1009662
-1009871
-1010059
-1010211
-1010420
-1010794
-1010926
-1011097
-1011321
-1011593
-1011893
-1012166
-1012363
-1012706
-1013066
-1013350
-1013641
-1014009
-1014243
-1014510
-1014934
-1015241
-1015466
-1015570
-1015842
-1016332
-1016679
-1016819
-1016947
-1017120
-1017477
-1018631
-1018137
-1018217
-1018479
-1018703
-1018960
-1019049
-1019206
-1019460
-1019694
-1020056
-1020233
-1020329
-1020604
-1020787
-1020954
-1020973
-1021200
-1021258
-1021301
-1021727
-1021813
-1021926
-1022074
-1022257
-1022632
-1022797
-1022831
-1022941
-1023127
-1023428
-1023412
-1023419
-1023502
-1023900
-1024089
-1023884
-1024036
-1024168
-1024496
-1024686
-1024677
-1024710
-1024869
-1025197
-1025376
-1025344
-1025361
-1025567
-1025732
-1026028
-1026134
-1025842
-1026054
-1026456
-1026541
-1026622
-1026713
-1026864
-1027120
-1027200
-1026983
-1027278
-1027379
-1027786
-1027901
-1027951
-1028089
-1028163
-1028318
-1028512
-1028657
-1028757
-1028909
-1029271
-1029387
-1029382
-1029525
-1029694
-1030035
-1030349
-1030344
-1030374
-1030537
-1030832
-1031078
-1031114
-1031289
-1031408
-1031612
-1031943
-1031829
-1032070
-1032310
-1032615
-1032956
-1032970
-1033097
-1033341
-1033493
-1033812
-1033862
-1033990
-1034141
-1034393
-1034677
-1034817
-1034937
-1035246
-1035495
-1036472
-1036037
-1035704
-1036139
-1036348
-1036670
-1036769
-1036789
-1037050
-1037410
-1037595
-1037765
-1037786
-1038001
-1038326
-1038570
-1038734
-1038827
-1038921
-1040471
-1040517
-1040737
-1041008
-1041292
-1041467
-1041427
-1041559
-1041905
-1042055
-1041991
-1042113
-1042316
-1042677
-1042882
-1042887
-1042935
-1043014
-1043305
-1043469
-1043622
-1043618
-1043717
-1043910
-1044083
-1044026
-1043962
-1043994
-1044179
-1044188
-1044159
-1044097
-1044046
-1044188
-1044165
-1043940
-1043649
-1043559
-1043433
-1043186
-1042878
-1042651
-1042328
-1041912
-1041618
-1041035
-1040597
-1040198
-1039694
-1039109
-1038307
-1037809
-1037208
-1036686
-1036138
-1035360
-1034520
-1033771
-1033262
-1032755
-1031821
-1031029
-1030262
-1029786
-1029102
-1028268
-1027526
-1026945
-1026421
-1025868
-1025139
-1024427
-1023831
-1023260
-1022736
-1022009
-1021453
-1020973
-1020500
-1020037
-1019504
-1018793
-1018454
-1018003
-1017736
-1017329
-1016766
-1016386
-1016035
-1015752
-1015228
-1014797
-1014424
-1014246
-1014071
-1013327
-1013163
-1012899
-1012808
-1012707
-1012302
-1011956
-1011709
-1011594
-1011563
-1011328
-1011028
-1010936
-1010894
-1010852
-1010614
-1010486
-1010299
-1010446
-1010404
-1010450
-1010219
-1010309
-1010323
-1010429
-1010548
-1010511
-1010585
-1010932
-1011189
-1011355
-1011304
-1011475
-1011855
-1012085
-1012176
-1012390
-1012752
-1012979
-1013866
-1013685
-1013729
-1014046
-1014356
-1014789
-1014778
-1015069
-1015481
-1015926
-1016299
-1016525
-1016617
-1016981
-1017302
-1017584
-1017873
-1018053
-1018318
-1018602
-1018881
-1019044
-1019232
-1019587
-1019846
-1020177
-1020335
-1020369
-1020638
-1021644
-1021466
-1021390
-1021579
-1021663
-1021845
-1022154
-1022336
-1022323
-1022475
-1022705
-1022898
-1022885
-1023047
-1023346
-1023569
-1023865
-1024001
-1023992
-1024199
-1024330
-1024517
-1024646
-1024788
-1024884
-1025036
-1025290
-1025451
-1025392
-1025494
-1025763
-1025925
-1026034
-1026600
-1026032
-1026411
-1026686
-1026749
-1026977
-1027163
-1027252
-1027311
-1027577
-1027739
-1027892
-1027978
-1028001
-1028026
-1028332
-1028600
-1028829
-1028807
-1028789
-1028966
-1029227
-1029483
-1029572
-1029593
-1029777
-1030058
-1030125
-1030282
-1030388
-1030525
-1030792
-1030965
-1031062
-1031202
-1031304
-1031487
-1031676
-1031825
-1031850
-1032027
-1032421
-1032725
-1032798
-1032786
-1033049
-1033420
-1033718
-1033797
-1033852
-1034030
-1034340
-1034643
-1034775
-1034865
-1034989
-1035224
-1035568
-1035728
-1035790
-1035986
-1036386
-1036630
-1036802
-1036939
-1037036
-1037299
-1037646
-1037835
-1037854
-1038005
-1038334
-1038590
-1039504
-1039175
-1039272
-1039382
-1039729
-1039772
-1039951
-1040078
-1040473
-1040645
-1040898
-1041027
-1041256
-1041438
-1041752
-1041898
-1041982
-1042177
-1042435
-1042765
-1042864
-1042844
-1043064
-1043468
-1043650
-1043821
-1043901
-1044116
-1044390
-1044669
-1044658
-1044689
-1044789
-1045157
-1045286
-1045397
-1045416
-1045622
-1045763
-1046009
-1046122
-1046170
-1046174
-1046419
-1046609
-1046616
-1046744
-1046726
-1046976
-1047087
-1047144
-1047094
-1047240
-1048077
-1047682
-1047570
-1047532
-1047582
-1047638
-1047592
-1047433
-1047206
-1047197
-1047199
-1047030
-1046956
-1046753
-1046492
-1046327
-1045979
-1045658
-1045341
-1044782
-1044469
-1044162
-1043618
-1042949
-1042479
-1041968
-1041496
-1040704
-1040122
-1039387
-1038833
-1038192
-1037454
-1036718
-1036060
-1035401
-1034767
-1033971
-1033192
-1032500
-1031849
-1031344
-1030704
-1029971
-1029304
-1028684
-1028240
-1027469
-1026896
-1026290
-1025764
-1025314
-1024706
-1024257
-1023723
-1023285
-1022889
-1022345
-1021901
-1021397
-1021169
-1020730
-1020247
-1019973
-1019570
-1019284
-1018969
-1018672
-1018219
-1018012
-1017808
-1017507
-1017188
-1016890
-1016733
-1016559
-1016423
-1016092
-1015820
-1015667
-1015754
-1015671
-1015519
-1015290
-1015237
-1015313
-1015211
-1015119
-1014963
-1015037
-1015179
-1015260
-1015227
-1015280
-1015352
-1015469
-1015634
-1015706
-1015929
-1016054
-1016294
-1016563
-1016742
-1016806
-1017023
-1017356
-1017704
-1017986
-1018199
-1018279
-1018779
-1019135
-1019373
-1019527
-1019800
-1020039
-1020522
-1020743
-1020980
-1021188
-1021527
-1021732
-1022040
-1022172
-1022484
-1022822
-1023022
-1023229
-1023482
-1023580
-1024019
-1024334
-1024502
-1024553
-1024700
-1025010
-1025343
-1025498
-1025583
-1025746
-1026105
-1026351
-1026391
-1026316
-1026398
-1026851
-1027035
-1027125
-1027295
-1027406
-1027540
-1027745
-1027956
-1028366
-1028275
-1028248
-1028403
-1028550
-1028693
-1028701
-1028796
-1028933
-1029074
-1029111
-1029239
-1029519
-1029589
-1029748
-1029794
-1029904
-1030201
-1030343
-1030394
-1030557
-1030519
-1030628
-1030992
-1030997
-1031081
-1031211
-1031217
-1031628
-1031718
-1031738
-1031912
-1032066
-1032295
-1032376
-1032461
-1032573
-1032639
-1032859
-1032983
-1033080
-1033211
-1033927
-1033816
-1033957
-1034034
-1034005
-1034331
-1034492
-1034650
-1034603
-1034778
-1035053
-1035173
-1035322
-1035392
-1035509
-1035772
-1035893
-1035870
-1036000
-1036195
-1036394
-1036667
-1036905
-1036876
-1037017
-1037235
-1037614
-1037785
-1037786
-1038039
-1038185
-1038504
-1038560
-1038630
-1038904
-1039056
-1039232
-1039421
-1039517
-1039803
-1039997
-1040208
-1040439
-1040511
-1040621
-1040793
-1041097
-1041205
-1041079
-1041389
-1041734
-1042013
-1042791
-1042545
-1042521
-1042747
-1043137
-1043293
-1043255
-1043431
-1043605
-1043758
-1043948
-1044116
-1044336
-1044590
-1044877
-1045142
-1045183
-1045232
-1045460
-1045829
-1046036
-1046210
-1046402
-1046687
-1046892
-1047093
-1047160
-1047277
-1047614
-1047923
-1048076
-1048056
-1048316
-1048570
-1048698
-1048729
-1048960
-1049039
-1049184
-1049570
-1049749
-1049766
-1049938
-1049969
-1050238
-1050306
-1050322
-1050463
-1050634
-1050942
-1051008
-1050939
-1050965
-1051087
-1051384
-1051290
-1051337
-1051246
-1051333
-1051348
-1051343
-1051210
-1051027
-1050809
-1050823
-1050594
-1050194
-1049966
-1049750
-1049115
-1048892
-1048514
-1048062
-1047552
-1047122
-1046666
-1046057
-1045440
-1044931
-1044297
-1043751
-1042966
-1042105
-1041564
-1040908
-1040221
-1039475
-1038693
-1038085
-1037361
-1036649
-1035940
-1035303
-1034645
-1034009
-1033482
-1032830
-1032089
-1031640
-1031133
-1030456
-1029785
-1029390
-1028942
-1028350
-1027888
-1027251
-1026882
-1026470
-1026252
-1025818
-1025220
-1024824
-1024609
-1024355
-1023960
-1023603
-1023169
-1023067
-1022849
-1022463
-1022115
-1021799
-1021583
-1021382
-1021144
-1020851
-1020820
-1020640
-1020623
-1020323
-1020126
-1020227
-1020025
-1020124
-1020117
-1020079
-1020093
-1020211
-1020230
-1020279
-1020341
-1020418
-1020637
-1020761
-1020770
-1021081
-1021311
-1021466
-1021630
-1021756
-1022010
-1022390
-1022761
-1023098
-1023179
-1023317
-1023770
-1024067
-1024287
-1024652
-1024790
-1025187
-1025567
-1025590
-1026005
-1026013
-1026638
-1027066
-1027218
-1027402
-1027704
-1028027
-1028425
-1028742
-1028840
-1029064
-1029679
-1029804
-1030044
-1030240
-1030446
-1030884
-1030999
-1031087
-1031296
-1031487
-1031772
-1032029
-1032201
-1032434
-1032646
-1032847
-1032808
-1033091
-1033220
-1033407
-1033482
-1033623
-1033622
-1033890
-1034093
-1034228
-1034342
-1034375
-1034484
-1034731
-1034962
-1034845
-1034973
-1035150
-1035303
-1035345
-1035494
-1035525
-1035660
-1035750
-1035872
-1035906
-1035998
-1036240
-1036386
-1036485
-1036451
-1036675
-1036738
-1036891
-1036970
-1037145
-1037250
-1037328
-1037454
-1037697
-1037818
-1037881
-1037970
-1038257
-1038304
-1038233
-1038385
-1038501
-1038720
-1038879
-1038641
-1039012
-1039256
-1039558
-1039679
-1039755
-1039885
-1040255
-1040398
-1040483
-1040585
-1040511
-1040814
-1041068
-1041139
-1041257
-1041378
-1041539
-1041909
-1042042
-1041936
-1042224
-1042407
-1042673
-1042921
-1042930
-1043144
-1043327
-1043596
-1043850
-1043877
-1043979
-1044288
-1044456
-1044719
-1044694
-1044859
-1045198
-1045370
-1045567
-1045723
-1045808
-1046128
-1046371
-1046577
-1046659
-1046744
-1047015
-1047259
-1047456
-1047553
-1047727
-1048108
-1048276
-1048535
-1048593
-1048798
-1049050
-1049341
-1049531
-1049593
-1049625
-1050001
-1050244
-1050410
-1050438
-1050705
-1050978
-1051131
-1051362
-1051521
-1051571
-1051749
-1052083
-1052259
-1052316
-1052425
-1052691
-1052876
-1053099
-1053203
-1053336
-1053487
-1053660
-1053825
-1053861
-1054040
-1054104
-1054266
-1054304
-1054050
-1054351
-1054599
-1054840
-1054860
-1054892
-1055732
-1055269
-1055344
-1055391
-1055392
-1055432
-1055516
-1055729
-1055708
-1056091
-1055697
-1055574
-1055754
-1055654
-1055386
-1055251
-1055241
-1055350
-1055279
-1054929
-1054658
-1054592
-1054404
-1054119
-1053596
-1053197
-1052997
-1052470
-1052067
-1051632
-1051160
-1050732
-1050101
-1049680
-1048975
-1048327
-1047615
-1047172
-1046380
-1045669
-1044965
-1044398
-1043743
-1043090
-1042478
-1041676
-1040757
-1040439
-1039869
-1039233
-1038585
-1037997
-1037497
-1036936
-1036342
-1035818
-1035247
-1034775
-1034262
-1033748
-1033256
-1033405
-1032729
-1032151
-1031609
-1031244
-1030986
-1030722
-1030380
-1029938
-1029541
-1029302
-1029154
-1028700
-1028360
-1028086
-1027966
-1027883
-1027725
-1027309
-1027050
-1027035
-1027038
-1026830
-1026761
-1026621
-1026438
-1026529
-1026428
-1026362
-1026246
-1026245
-1026338
-1026457
-1026352
-1026299
-1026537
-1026791
-1026784
-1026892
-1027022
-1027138
-1027533
-1027672
-1027887
-1028008
-1028278
-1028474
-1028730
-1029088
-1029048
-1029416
-1029762
-1030070
-1030287
-1030460
-1030755
-1031218
-1031500
-1031355
-1031803
-1032139
-1032609
-1032831
-1032940
-1033247
-1033585
-1033865
-1034024
-1034167
-1034371
-1034657
-1034957
-1035297
-1035388
-1035604
-1035889
-1036057
-1036346
-1036422
-1036604
-1036794
-1037110
-1037357
-1037397
-1037504
-1037662
-1037871
-1037978
-1038171
-1038274
-1038527
-1038625
-1038776
-1038912
-1038949
-1039127
-1039280
-1039524
-1039584
-1039592
-1039726
-1039904
-1040010
-1039936
-1040116
-1040284
-1040512
-1040592
-1040648
-1040833
-1040842
-1041097
-1041212
-1041267
-1041197
-1041443
-1041648
-1041851
-1041815
-1041834
-1042034
-1042251
-1042318
-1042316
-1042353
-1042463
-1042746
-1042925
-1043022
-1042954
-1043134
-1043289
-1043491
-1043465
-1043562
-1043782
-1043926
-1044020
-1044197
-1044162
-1044431
-1044661
-1044756
-1044905
-1045021
-1045069
-1045352
-1045539
-1045614
-1045711
-1045629
-1046162
-1046383
-1046511
-1046549
-1046746
-1047057
-1047249
-1047275
-1047296
-1047559
-1047924
-1048197
-1048188
-1048255
-1048518
-1048669
-1048972
-1049178
-1049435
-1049624
-1049758
-1049998
-1050044
-1050590
-1050688
-1050607
-1050753
-1050928
-1051239
-1051500
-1051609
-1051675
-1051935
-1052161
-1052422
-1052600
-1052708
-1052838
-1053003
-1053266
-1053498
-1053461
-1053667
-1054042
-1054269
-1054467
-1054464
-1054650
-1054915
-1055196
-1055216
-1055284
-1055526
-1055710
-1055958
-1056285
-1056229
-1056360
-1056471
-1056502
-1056928
-1057023
-1057213
-1057378
-1057591
-1057512
-1057699
-1057968
-1058172
-1058294
-1058444
-1058470
-1058619
-1058853
-1058999
-1059030
-1059056
-1058998
-1059299
-1059410
-1059635
-1059532
-1059700
-1059828
-1059760
-1059727
-1059746
-1059752
-1059800
-1059871
-1059796
-1059566
-1059537
-1059462
-1059383
-1059189
-1058815
-1058592
-1058466
-1058241
-1057791
-1057313
-1057021
-1056652
-1056232
-1055489
-1054950
-1054460
-1053942
-1053364
-1052524
-1051891
-1051278
-1050672
-1049906
-1048801
-1048362
-1047675
-1047010
-1046276
-1045444
-1044665
-1044058
-1043499
-1042772
-1041882
-1041219
-1040621
-1040099
-1038816
-1038111
-1037480
-1037096
-1036519
-1035860
-1035378
-1034913
-1034511
-1033977
-1033504
-1032959
-1032478
-1032240
-1031857
-1031321
-1030878
-1030645
-1030399
-1030000
-1029510
-1029073
-1028827
-1028665
-1028369
-1028037
-1027706
-1027473
-1027323
-1027135
-1026828
-1026650
-1026540
-1026523
-1026305
-1026175
-1026041
-1025905
-1025870
-1025917
-1025772
-1025758
-1025738
-1025817
-1025802
-1025815
-1025852
-1025931
-1026149
-1026385
-1026371
-1026382
-1026657
-1026859
-1027124
-1027194
-1027397
-1027722
-1028062
-1028271
-1028381
-1028512
-1028923
-1029222
-1029543
-1029760
-1029911
-1030214
-1030669
-1030807
-1030967
-1031277
-1031679
-1031936
-1032323
-1032362
-1032595
-1032840
-1033226
-1033492
-1033671
-1033861
-1034408
-1034797
-1034939
-1035211
-1035483
-1035578
-1035707
-1035915
-1036092
-1036377
-1036529
-1036560
-1036668
-1036963
-1037237
-1037409
-1037538
-1037479
-1037756
-1037965
-1038063
-1038140
-1038287
-1038495
-1038547
-1038650
-1038811
-1038855
-1038946
-1039157
-1039317
-1039375
-1039449
-1039536
-1039761
-1039826
-1039973
-1040022
-1040227
-1040314
-1040394
-1040529
-1040479
-1040717
-1040841
-1041078
-1041145
-1041214
-1041254
-1041556
-1041676
-1041692
-1041701
-1041846
-1042009
-1042186
-1042279
-1042267
-1042445
-1042638
-1042743
-1042890
-1043040
-1043107
-1043406
-1043382
-1043522
-1043545
-1043709
-1044073
-1044229
-1044369
-1044447
-1044471
-1044766
-1045021
-1045135
-1045106
-1045263
-1045598
-1045808
-1045807
-1045922
-1046071
-1046420
-1046554
-1046642
-1046808
-1047033
-1047326
-1047594
-1047607
-1047677
-1048059
-1048130
-1048431
-1048545
-1048552
-1048802
-1049160
-1049364
-1049477
-1049555
-1049689
-1049954
-1050196
-1050341
-1050413
-1050563
-1050856
-1051138
-1051121
-1051279
-1051464
-1051737
-1051981
-1052074
-1052241
-1053055
-1052816
-1052991
-1053080
-1053199
-1053300
-1053538
-1053803
-1053854
-1054037
-1054123
-1054492
-1054643
-1054712
-1054769
-1055031
-1055336
-1055435
-1055496
-1055540
-1055784
-1056050
-1056220
-1056169
-1056242
-1056456
-1056626
-1056734
-1056745
-1056732
-1056959
-1057096
-1057286
-1057156
-1057296
-1057380
-1057565
-1057672
-1057610
-1057640
-1057700
-1057885
-1057894
-1057714
-1057656
-1057658
-1057766
-1057814
-1057679
-1057436
-1057248
-1057212
-1057057
-1056689
-1056339
-1056276
-1056095
-1055684
-1055335
-1054852
-1054513
-1054115
-1053743
-1053027
-1052314
-1051925
-1051344
-1050738
-1050038
-1049256
-1048743
-1048074
-1047457
-1046664
-1045858
-1045127
-1044488
-1043906
-1043093
-1042064
-1041529
-1040750
-1039968
-1039243
-1038417
-1037664
-1037173
-1036413
-1035701
-1035420
-1034455
-1033748
-1033080
-1032407
-1031812
-1031283
-1030801
-1030336
-1029637
-1028990
-1028486
-1028064
-1027612
-1026991
-1026548
-1026196
-1025710
-1025362
-1024939
-1024423
-1023990
-1023760
-1023465
-1022997
-1022548
-1022312
-1022021
-1021871
-1021477
-1021150
-1020892
-1020674
-1020514
-1020119
-1019874
-1019846
-1019665
-1019481
-1019266
-1019071
-1018933
-1019054
-1018973
-1018745
-1018678
-1018567
-1018728
-1018745
-1018863
-1018741
-1018939
-1019077
-1019068
-1019177
-1019195
-1019443
-1019729
-1019891
-1020007
-1020167
-1020458
-1020776
-1020998
-1021177
-1021147
-1021426
-1021756
-1022072
-1022138
-1022387
-1022690
-1022966
-1023170
-1023413
-1023552
-1023847
-1024027
-1024306
-1024373
-1024692
-1024870
-1025158
-1025409
-1025628
-1025713
-1025833
-1026383
-1026580
-1026617
-1026712
-1027008
-1027306
-1027552
-1027679
-1027677
-1027894
-1028158
-1028337
-1028350
-1028507
-1028710
-1029029
-1029112
-1029238
-1029124
-1029474
-1029606
-1029846
-1029672
-1029941
-1030142
-1030292
-1030524
-1030590
-1030592
-1030803
-1031040
-1031186
-1031092
-1031173
-1031455
-1031650
-1031839
-1031800
-1031865
-1031988
-1032345
-1032426
-1032452
-1032970
-1032674
-1033020
-1033157
-1033241
-1033273
-1033404
-1033681
-1033855
-1033964
-1033921
-1034221
-1034537
-1034814
-1034828
-1034836
-1034985
-1035252
-1035372
-1035544
-1035653
-1035899
-1036196
-1036332
-1036461
-1036411
-1036667
-1036996
-1037257
-1037250
-1037414
-1037698
-1038607
-1038437
-1038315
-1038305
-1038655
-1038918
-1039028
-1039227
-1039330
-1039660
-1039798
-1040116
-1040376
-1040355
-1040598
-1040901
-1041147
-1041317
-1041363
-1041700
-1042075
-1042248
-1042366
-1042455
-1042622
-1043048
-1043213
-1043461
-1043552
-1043755
-1043986
-1044256
-1044299
-1044409
-1044710
-1044950
-1045203
-1045276
-1045337
-1045563
-1045856
-1046210
-1046242
-1046247
-1046504
-1046787
-1046916
-1046997
-1047280
-1047510
-1047767
-1047685
-1047906
-1048127
-1048459
-1048713
-1049039
-1049275
-1049629
-1049834
-1049935
-1050043
-1050276
-1050523
-1050716
-1050647
-1050683
-1050848
-1051081
-1051279
-1051445
-1051433
-1051642
-1051900
-1052003
-1052214
-1052159
-1052102
-1052419
-1052568
-1052632
-1052685
-1052928
-1053034
-1053081
-1053083
-1053206
-1053122
-1053291
-1053274
-1053258
-1053329
-1053414
-1053376
-1053236
-1053091
-1053067
-1053343
-1053364
-1053321
-1053061
-1053015
-1053259
-1053247
-1053149
-1053101
-1053252
-1053366
-1053486
-1053376
-1053230
-1053291
-1053483
-1053541
-1053401
-1053396
-1053229
-1053697
-1053872
-1053888
-1053822
-1054163
-1054373
-1054584
-1054648
-1054718
-1054963
-1055349
-1055529
-1055555
-1055699
-1056010
-1056401
-1056576
-1056666
-1056768
-1057125
-1057272
-1057634
-1057500
-1057764
-1057958
-1058264
-1058571
-1058745
-1058746
-1058963
-1059301
-1059603
-1059710
-1059787
-1060111
-1060200
-1060488
-1060624
-1060677
-1060930
-1061091
-1061512
-1061683
-1061739
-1062074
-1062346
-1062623
-1062701
-1062693
-1062973
-1063321
-1063429
-1063549
-1063687
-1063946
-1064246
-1064372
-1064454
-1064547
-1064790
-1065141
-1065214
-1065226
-1065469
-1065718
-1065991
-1066140
-1066280
-1066358
-1066585
-1066708
-1066923
-1067003
-1066994
-1067321
-1067665
-1067915
-1068025
-1068069
-1068355
-1068656
-1068908
-1068903
-1068991
-1069299
-1069658
-1069702
-1069816
-1069900
-1070062
-1070356
-1070671
-1070685
-1070765
-1071042
-1071318
-1071611
-1071579
-1071664
-1071858
-1072234
-1072448
-1072705
-1072848
-1073037
-1073246
-1073403
-1073550
-1073769
-1074039
-1074221
-1074552
-1074555
-1074720
-1075044
-1075289
-1075457
-1075682
-1075799
-1076069
-1076397
-1076563
-1076742
-1076783
-1077084
-1077269
-1077601
-1077728
-1077834
-1078003
-1078379
-1078611
-1078674
-1078970
-1079362
-1079664
-1080394
-1080546
-1080667
-1080935
-1081190
-1081514
-1081639
-1081763
-1081843
-1082101
-1082387
-1082543
-1082520
-1082753
-1083005
-1083259
-1083379
-1083488
-1083714
-1083971
-1084125
-1084243
-1084415
-1084530
-1084871
-1085050
-1085160
-1085177
-1085438
-1085803
-1086082
-1085976
-1086196
-1086384
-1086509
-1086865
-1087145
-1087216
-1087438
-1087747
-1087988
-1088094
-1088185
-1088621
-1088762
-1089018
-1089194
-1089396
-1089629
-1089959
-1090193
-1090261
-1090420
-1090612
-1091068
-1091328
-1091437
-1091587
-1091783
-1092042
-1092255
-1092360
-1092482
-1092796
-1093109
-1093389
-1093405
-1093411
-1093628
-1093867
-1094254
-1094345
-1094600
-1094793
-1095054
-1095297
-1095429
-1095592
-1095823
-1096158
-1096343
-1096402
-1096584
-1096740
-1097395
-1098198
-1097627
-1097621
-1097762
-1098000
-1098097
-1098332
-1098293
-1098630
-1098790
-1099099
-1099159
-1098997
-1099340
-1099632
-1099828
-1099866
-1100028
-1100215
-1100431
-1100524
-1100484
-1100574
-1100595
-1100692
-1100833
-1100670
-1101632
-1100780
-1100580
-1100527
-1100119
-1099821
-1099519
-1099223
-1098792
-1098215
-1098077
-1097292
-1096645
-1095755
-1094770
-1093898
-1093042
-1092150
-1091203
-1089981
-1088781
-1087709
-1086501
-1085260
-1083951
-1082578
-1081195
-1079899
-1078633
-1077270
-1075933
-1074648
-1073485
-1072242
-1070673
-1069474
-1068272
-1067279
-1066124
-1064952
-1063632
-1062663
-1061645
-1060590
-1059459
-1058263
-1057366
-1056349
-1055473
-1054362
-1053416
-1052546
-1051762
-1051009
-1049965
-1049064
-1048266
-1047623
-1046862
-1046116
-1045357
-1044587
-1044119
-1043355
-1042608
-1041908
-1041452
-1040921
-1040330
-1039769
-1039060
-1038518
-1038160
-1037704
-1036993
-1036628
-1036233
-1035621
-1035380
-1035013
-1034501
-1034188
-1034074
-1033729
-1033255
-1033019
-1032880
-1032623
-1032423
-1032155
-1031993
-1031972
-1032029
-1031811
-1031724
-1031509
-1031498
-1031739
-1031725
-1031777
-1031675
-1031777
-1031946
-1032178
-1032141
-1032078
-1032239
-1032528
-1032711
-1032713
-1032874
-1033122
-1033302
-1033550
-1033517
-1033571
-1033883
-1034167
-1034291
-1034416
-1034533
-1034682
-1035024
-1035156
-1035148
-1035257
-1035329
-1035734
-1035859
-1035917
-1035972
-1036194
-1036451
-1036604
-1036649
-1036639
-1036892
-1036971
-1037185
-1037109
-1037204
-1037265
-1037371
-1037511
-1037600
-1037698
-1037841
-1037984
-1037989
-1038042
-1038079
-1038032
-1038374
-1038430
-1038561
-1038648
-1038919
-1038998
-1038831
-1039066
-1039164
-1039388
-1039415
-1039377
-1039506
-1039731
-1039843
-1039888
-1040063
-1040029
-1040235
-1040876
-1040588
-1040529
-1040626
-1040768
-1040942
-1040960
-1041163
-1041314
-1041480
-1041730
-1041619
-1041735
-1041868
-1042218
-1042473
-1042498
-1042464
-1042625
-1042862
-1043038
-1043191
-1043333
-1043483
-1043736
-1043883
-1044105
-1044048
-1044319
-1044453
-1044680
-1044863
-1044946
-1045287
-1045484
-1045660
-1045723
-1046000
-1046290
-1046382
-1046605
-1046529
-1046593
-1047009
-1047301
-1047455
-1048061
-1047778
-1047978
-1048187
-1048219
-1048299
-1048587
-1048734
-1048851
-1049047
-1049798
-1049492
-1049653
-1049795
-1049873
-1049874
-1050135
-1050301
-1050583
-1050701
-1050785
-1050975
-1051246
-1051051
-1051347
-1051585
-1051740
-1051918
-1052068
-1052302
-1052408
-1052455
-1052796
-1053053
-1053010
-1053101
-1053292
-1053587
-1053694
-1053918
-1053929
-1054095
-1054435
-1054671
-1054626
-1054882
-1054927
-1055265
-1055446
-1055477
-1055632
-1055883
-1056057
-1056298
-1056387
-1056581
-1056809
-1057056
-1057319
-1057354
-1057484
-1057691
-1058709
-1058285
-1058243
-1058347
-1058359
-1058568
-1058875
-1058768
-1058900
-1059046
-1059283
-1059352
-1059363
-1059370
-1059567
-1059865
-1059879
-1059809
-1059825
-1059839
-1060024
-1060159
-1060012
-1060004
-1060081
-1060250
-1060033
-1059686
-1059613
-1059661
-1059679
-1059566
-1059305
-1058911
-1058831
-1058683
-1058251
-1057791
-1057320
-1057000
-1056605
-1056081
-1055566
-1054820
-1054349
-1053836
-1053249
-1052475
-1051781
-1051186
-1050560
-1050003
-1049190
-1048344
-1047771
-1047178
-1046600
-1045714
-1045028
-1044375
-1043782
-1043293
-1042430
-1041850
-1041177
-1040608
-1040188
-1039619
-1038929
-1038460
-1037975
-1037434
-1037020
-1036454
-1035970
-1036080
-1035277
-1034740
-1034109
-1033773
-1033522
-1033295
-1032715
-1032395
-1032067
-1031971
-1031653
-1031268
-1030867
-1030741
-1030595
-1030542
-1030189
-1029940
-1029896
-1029928
-1029722
-1029591
-1029411
-1029342
-1029419
-1029448
-1029272
-1029233
-1029179
-1029455
-1029444
-1029411
-1029545
-1029777
-1029931
-1030125
-1030236
-1030253
-1030549
-1030806
-1031063
-1031158
-1031384
-1031670
-1032028
-1032268
-1032578
-1032800
-1033087
-1033453
-1033788
-1033950
-1034149
-1034623
-1034986
-1035272
-1035354
-1035626
-1036045
-1036479
-1036636
-1036807
-1037116
-1037487
-1037850
-1038155
-1038385
-1038416
-1038692
-1039116
-1039337
-1039410
-1039569
-1039792
-1040218
-1040410
-1040600
-1040570
-1040818
-1041328
-1041510
-1041557
-1041588
-1041838
-1042120
-1042299
-1042451
-1042527
-1042829
-1043169
-1043283
-1044015
-1043719
-1043637
-1043886
-1044137
-1044145
-1044212
-1044414
-1044580
-1044679
-1044808
-1044865
-1045010
-1045299
-1045497
-1045516
-1045547
-1045726
-1045905
-1046141
-1046283
-1046327
-1046502
-1046477
-1046714
-1046826
-1046802
-1046739
-1047136
-1047393
-1047375
-1047473
-1047631
-1047836
-1048087
-1048126
-1048262
-1048456
-1048594
-1048685
-1048912
-1048940
-1049048
-1049292
-1049520
-1049525
-1049478
-1049710
-1049967
-1050133
-1050196
-1050142
-1050441
-1050735
-1050934
-1050995
-1051064
-1051169
-1051364
-1051672
-1051728
-1051703
-1052026
-1053183
-1052788
-1052593
-1052740
-1052765
-1052974
-1053344
-1053305
-1053485
-1053569
-1053893
-1053947
-1054140
-1054343
-1054524
-1054729
-1054897
-1055061
-1055162
-1055353
-1055475
-1055807
-1055915
-1055913
-1055986
-1056481
-1056532
-1056616
-1056777
-1056911
-1057098
-1057434
-1057480
-1057561
-1057700
-1058080
-1058195
-1058340
-1058332
-1058496
-1058924
-1059072
-1059058
-1059106
-1059320
-1059634
-1059864
-1059863
-1060019
-1060237
-1060369
-1060584
-1060656
-1060734
-1060946
-1061024
-1061194
-1061406
-1061419
-1061451
-1061738
-1061890
-1061844
-1061834
-1061998
-1062162
-1062303
-1062281
-1062430
-1062476
-1062679
-1062835
-1062675
-1062775
-1062917
-1062840
-1063057
-1062548
-1062707
-1062673
-1062619
-1062680
-1062355
-1062198
-1061893
-1061770
-1061714
-1061225
-1060837
-1060421
-1060133
-1059711
-1059194
-1058431
-1058065
-1057510
-1056864
-1056257
-1055563
-1054925
-1054230
-1053519
-1052819
-1051935
-1052227
-1050766
-1049857
-1049072
-1048153
-1047386
-1046825
-1046112
-1045356
-1044485
-1043846
-1043277
-1042467
-1041812
-1040979
-1040414
-1040056
-1039360
-1038723
-1038107
-1037547
-1037174
-1036557
-1035949
-1035314
-1034950
-1034564
-1034132
-1033573
-1033131
-1032754
-1032420
-1031727
-1031365
-1031209
-1030880
-1030656
-1030137
-1029918
-1029634
-1029437
-1029150
-1028981
-1028788
-1028453
-1028227
-1028078
-1027939
-1027626
-1027369
-1027239
-1027275
-1027140
-1027021
-1026789
-1026719
-1026690
-1026799
-1026689
-1026504
-1026656
-1026879
-1026958
-1026860
-1026925
-1027061
-1027242
-1027378
-1027478
-1027532
-1027736
-1028059
-1028282
-1028342
-1028580
-1028788
-1029101
-1029369
-1029504
-1029734
-1029972
-1030364
-1030634
-1030971
-1031021
-1031308
-1031645
-1032085
-1032210
-1032358
-1032744
-1033093
-1033373
-1033490
-1033623
-1033829
-1034269
-1034528
-1034750
-1034806
-1035110
-1035514
-1035864
-1035827
-1036080
-1036247
-1036541
-1036756
-1036781
-1036941
-1037220
-1037464
-1037762
-1037802
-1037948
-1038248
-1038448
-1038666
-1038725
-1039394
-1039213
-1039245
-1039430
-1039572
-1039850
-1040134
-1040255
-1040188
-1040266
-1040517
-1040649
-1040550
-1040886
-1040997
-1041064
-1041354
-1041516
-1041502
-1041657
-1041602
-1041870
-1042121
-1042113
-1042208
-1042323
-1042578
-1042694
-1042795
-1042597
-1042896
-1043107
-1043332
-1043378
-1043441
-1043587
-1043791
-1043928
-1044018
-1043982
-1044091
-1044425
-1044501
-1044622
-1044678
-1044919
-1045007
-1045164
-1045245
-1045205
-1045310
-1045646
-1045713
-1045795
-1045905
-1046023
-1046269
-1046427
-1046502
-1046668
-1046730
-1047019
-1047115
-1047337
-1047365
-1047611
-1047916
-1048033
-1048150
-1048158
-1048419
-1048689
-1048838
-1048910
-1049066
-1049177
-1049461
-1049638
-1049879
-1049910
-1050135
-1050345
-1050669
-1050847
-1050802
-1051009
-1051303
-1051531
-1051559
-1051568
-1051809
-1052057
-1052372
-1052983
-1052647
-1052809
-1053010
-1053121
-1053271
-1053279
-1053640
-1053826
-1054021
-1054278
-1054354
-1054521
-1054703
-1054907
-1054999
-1055042
-1055406
-1055600
-1055735
-1055912
-1056095
-1056129
-1056486
-1056554
-1056726
-1056733
-1056795
-1057122
-1057311
-1057411
-1057517
-1057713
-1057842
-1057937
-1058063
-1058023
-1058188
-1058364
-1058469
-1058612
-1058592
-1058668
-1058828
-1058885
-1058697
-1058633
-1058630
-1058731
-1058719
-1058560
-1058439
-1058140
-1058200
-1058029
-1057779
-1057369
-1057070
-1056741
-1056344
-1055871
-1055339
-1054814
-1054416
-1053942
-1053282
-1052395
-1051912
-1051400
-1050553
-1049746
-1049024
-1048314
-1047706
-1047010
-1046191
-1045252
-1044468
-1043845
-1043015
-1042297
-1041422
-1040715
-1040090
-1039423
-1038537
-1037881
-1037138
-1036570
-1035911
-1035346
-1034657
-1034085
-1033540
-1032927
-1032191
-1031520
-1031183
-1030611
-1030237
-1029760
-1029129
-1028741
-1028342
-1027882
-1027406
-1026912
-1026214
-1026167
-1025987
-1025640
-1025147
-1024925
-1024625
-1024347
-1023959
-1023639
-1023488
-1023283
-1022983
-1022781
-1022479
-1022215
-1022172
-1021981
-1021793
-1021575
-1021495
-1021472
-1021363
-1021201
-1021028
-1020981
-1020963
-1021020
-1020991
-1020977
-1021016
-1021142
-1021294
-1021265
-1021262
-1021448
-1021815
-1022068
-1022153
-1022172
-1022458
-1022375
-1022942
-1023072
-1023230
-1023613
-1023883
-1024261
-1024391
-1024695
-1025075
-1025350
-1025782
-1025875
-1026099
-1026446
-1026851
-1027158
-1027377
-1027643
-1028019
-1028428
-1028582
-1028825
-1028960
-1029287
-1029748
-1029984
-1030328
-1030482
-1030768
-1031138
-1031442
-1031453
-1031682
-1031861
-1032179
-1032521
-1032687
-1032874
-1032900
-1033234
-1033545
-1033588
-1033752
-1033863
-1034115
-1034325
-1034461
-1034576
-1034690
-1034843
-1035073
-1035156
-1035270
-1035538
-1035823
-1035997
-1036047
-1036049
-1036253
-1036489
-1036712
-1036662
-1036828
-1036865
-1037065
-1037306
-1037390
-1037357
-1037591
-1037751
-1037913
-1038302
-1038462
-1038493
-1038544
-1038671
-1038960
-1039114
-1039145
-1039320
-1039505
-1039728
-1039836
-1039849
-1039879
-1040118
-1040323
-1040629
-1040654
-1040627
-1040868
-1041046
-1041381
-1041461
-1041492
-1041659
-1041820
-1042029
-1042184
-1042226
-1042521
-1042702
-1043021
-1043040
-1043124
-1043245
-1043663
-1043799
-1043909
-1044007
-1044092
-1044389
-1044673
-1044823
-1044791
-1044956
-1045255
-1045586
-1045663
-1045860
-1046001
-1046292
-1046600
-1046791
-1046758
-1047029
-1047353
-1047464
-1047590
-1047660
-1047974
-1048137
-1048412
-1048586
-1048710
-1048961
-1049199
-1049356
-1049444
-1049599
-1049783
-1050066
-1050322
-1050418
-1050643
-1050865
-1051076
-1051324
-1051561
-1051658
-1051830
-1052222
-1052266
-1052560
-1052579
-1052779
-1053106
-1053410
-1053558
-1053644
-1053773
-1054139
-1054293
-1054323
-1054525
-1054631
-1055036
-1055184
-1055236
-1055267
-1055470
-1055566
-1055881
-1055993
-1055991
-1056221
-1056353
-1056652
-1056562
-1056538
-1056739
-1056866
-1056998
-1056900
-1056810
-1056923
-1056953
-1056955
-1056882
-1056695
-1056629
-1056558
-1056479
-1056109
-1055806
-1055512
