PPG
-1161607
-1161529
-1162397
-1163257
-1162955
-1162359
-1162371
-1163056
-1163532
-1163590
-1163033
-1162894
-1163572
-1164358
-1164287
-1163653
-1163633
-1164358
-1164961
-1164878
-1164266
-1164130
-1164942
-1165618
-1165369
-1164681
-1164810
-1165432
-1166208
-1166091
-1165509
-1165340
-1166088
-1166916
-1166663
-1166079
-1166111
-1166839
-1167628
-1167411
-1166741
-1166622
-1167576
-1168222
-1168151
-1167416
-1167462
-1168224
-1169112
-1168845
-1168121
-1168157
-1169077
-1169571
-1169553
-1168975
-1168966
-1169721
-1170478
-1170328
-1169706
-1169665
-1170584
-1171314
-1171240
-1170549
-1170576
-1171359
-1172229
-1172079
-1171330
-1171498
-1172301
-1172984
-1172763
-1172155
-1172386
-1173035
-1173562
-1173679
-1173026
-1173116
-1174090
-1174753
-1174682
-1173943
-1174059
-1175071
-1175768
-1175581
-1174963
-1174855
-1175743
-1176621
-1176480
-1175798
-1175985
-1176906
-1177239
-1177295
-1176732
-1176854
-1177706
-1178529
-1178263
-1177725
-1177815
-1178604
-1179490
-1179293
-1178739
-1178713
-1179638
-1180531
-1180197
-1179693
-1179863
-1180663
-1181463
-1181253
-1180709
-1180765
-1181565
-1182471
-1182228
-1181582
-1181695
-1182637
-1183278
-1183047
-1182442
-1182696
-1183588
-1184422
-1184015
-1183520
-1183762
-1184577
-1185343
-1185053
-1186296
-1185805
-1185291
-1185611
-1186410
-1187149
-1186660
-1186359
-1186625
-1187516
-1188076
-1187829
-1187135
-1187432
-1188346
-1189185
-1188826
-1188185
-1188158
-1189153
-1189944
-1189745
-1189270
-1189342
-1190323
-1190954
-1190690
-1190063
-1190385
-1191311
-1191910
-1191615
-1191123
-1191379
-1192107
-1192950
-1192614
-1192077
-1192208
-1193223
-1193909
-1193594
-1193001
-1193238
-1194011
-1194871
-1194614
-1194005
-1194303
-1195042
-1195877
-1195581
-1194961
-1195224
-1196162
-1196816
-1196480
-1196031
-1196159
-1197068
-1197899
-1197460
-1196735
-1197025
-1198104
-1198859
-1198248
-1197712
-1198052
-1198905
-1199602
-1199495
-1198781
-1198957
-1199979
-1200672
-1200292
-1199676
-1199980
-1200880
-1201681
-1201227
-1200695
-1200915
-1201785
-1202476
-1202208
-1201551
-1201712
-1202644
-1203445
-1203060
-1202468
-1202736
-1203535
-1204319
-1204012
-1203340
-1203700
-1204481
-1205172
-1204913
-1204245
-1204354
-1205332
-1206015
-1205561
-1204916
-1205305
-1206165
-1206685
-1206282
-1205772
-1206037
-1206996
-1207644
-1207318
-1206637
-1206941
-1207940
-1208543
-1208101
-1207634
-1207741
-1208641
-1209200
-1208924
-1208452
-1208653
-1209660
-1210363
-1209852
-1209251
-1209609
-1210493
-1211249
-1210764
-1210227
-1210355
-1211413
-1212868
-1211929
-1211135
-1211441
-1212365
-1212973
-1212564
-1211891
-1212019
-1213304
-1213942
-1213698
-1213036
-1213306
-1214322
-1215043
-1214565
-1214095
-1214264
-1215209
-1215840
-1215489
-1214886
-1215253
-1216197
-1216951
-1216520
-1215977
-1216267
-1217085
-1217881
-1217519
-1216841
-1217291
-1218320
-1218895
-1218362
-1217841
-1218198
-1219040
-1219735
-1219333
-1218677
-1218998
-1219785
-1220362
-1219935
-1219525
-1219761
-1220636
-1221099
-1220457
-1219900
-1219943
-1220548
-1220755
-1219971
-1218800
-1218417
-1218829
-1218760
-1217445
-1215912
-1215262
-1215189
-1214873
-1213429
-1211549
-1210442
-1210401
-1209485
-1208080
-1206262
-1205331
-1204805
-1204055
-1202297
-1200488
-1199434
-1199042
-1198318
-1196563
-1194718
-1193824
-1193471
-1192731
-1191106
-1189441
-1188575
-1188150
-1187636
-1185999
-1184401
-1183654
-1183420
-1182913
-1181614
-1179627
-1179159
-1179246
-1178737
-1177493
-1176073
-1175510
-1175409
-1175071
-1173817
-1172459
-1171840
-1171909
-1171533
-1170529
-1169147
-1168740
-1168855
-1168671
-1167201
-1165977
-1165826
-1166076
-1165914
-1164677
-1163637
-1163353
-1163629
-1163531
-1163100
-1161490
-1161103
-1161415
-1161287
-1160270
-1159341
-1159238
-1159518
-1159476
-1158690
-1157618
-1157643
-1158006
-1158086
-1157165
-1156360
-1156225
-1156755
-1156996
-1156187
-1155371
-1155252
-1155958
-1156037
-1155195
-1154470
-1154585
-1155083
-1155286
-1154708
-1153883
-1154036
-1154761
-1155116
-1154526
-1153819
-1154013
-1154750
-1155205
-1154672
-1154092
-1154375
-1155089
-1155588
-1155121
-1154564
-1154912
-1155874
-1156319
-1155770
-1155322
-1155732
-1156670
-1157174
-1156826
-1156379
-1156881
-1157864
-1158351
-1157937
-1157464
-1157868
-1158683
-1159227
-1158898
-1158454
-1158859
-1159654
-1160288
-1159736
-1159380
-1159783
-1160617
-1160928
-1160644
-1160090
-1160463
-1161344
-1161762
-1161350
-1160672
-1161075
-1162019
-1162477
-1161979
-1161433
-1161856
-1162668
-1163113
-1162486
-1161958
-1162445
-1163218
-1163554
-1163027
-1162592
-1163006
-1163967
-1164425
-1163770
-1163379
-1163685
-1164540
-1164989
-1164559
-1164011
-1164320
-1165297
-1165758
-1165109
-1164622
-1165761
-1166175
-1166399
-1165933
-1165304
-1166191
-1166907
-1167215
-1166678
-1166115
-1166462
-1167409
-1167907
-1167402
-1166734
-1167271
-1168185
-1168483
-1167782
-1167137
-1167158
-1167610
-1167721
-1167168
-1166671
-1167304
-1168402
-1168940
-1168528
-1168098
-1168470
-1169100
-1169498
-1168925
-1168282
-1168598
-1169619
-1170032
-1169703
-1169163
-1169858
-1170781
-1171214
-1170633
-1170347
-1170727
-1171692
-1172079
-1171514
-1171025
-1171535
-1172563
-1172972
-1172580
-1172046
-1172536
-1173549
-1173983
-1173446
-1173092
-1173585
-1174435
-1174756
-1174267
-1173949
-1174430
-1175360
-1175770
-1175258
-1174883
-1176213
-1176755
-1176801
-1176292
-1175886
-1176403
-1177407
-1177805
-1177025
-1177129
-1177355
-1178425
-1178453
-1178112
-1177836
-1178441
-1179387
-1179705
-1179149
-1178720
-1179252
-1180233
-1180691
-1180252
-1179760
-1180424
-1181359
-1181801
-1181134
-1180722
-1181208
-1182265
-1182661
-1181887
-1181545
-1182240
-1183315
-1183514
-1182912
-1182632
-1183165
-1184165
-1184487
-1184041
-1183618
-1184224
-1184988
-1185443
-1185025
-1184605
-1185084
-1186150
-1186385
-1185846
-1185266
-1185965
-1186943
-1187223
-1186656
-1186511
-1186975
-1187895
-1188303
-1187913
-1187411
-1187919
-1188975
-1189190
-1188740
-1188336
-1188890
-1189952
-1190240
-1189691
-1189396
-1189991
-1190981
-1191345
-1190753
-1190348
-1190862
-1191928
-1192126
-1191589
-1191131
-1191689
-1192724
-1193154
-1192399
-1192150
-1192618
-1193661
-1193903
-1193396
-1193012
-1193696
-1194674
-1194816
-1194398
-1193899
-1194490
-1195424
-1195775
-1195235
-1194878
-1195506
-1196443
-1196635
-1196108
-1195681
-1196275
-1197110
-1197354
-1196872
-1196413
-1196918
-1197926
-1198115
-1197739
-1197361
-1197870
-1198829
-1198959
-1198474
-1198089
-1198592
-1199678
-1199886
-1199191
-1198774
-1199388
-1200415
-1200557
-1200070
-1199693
-1200270
-1201191
-1201427
-1201078
-1200547
-1201128
-1202046
-1202388
-1201807
-1201515
-1202067
-1202976
-1203319
-1202753
-1202373
-1203126
-1204145
-1204390
-1203805
-1203521
-1204218
-1205111
-1205302
-1204653
-1204369
-1204959
-1206018
-1206170
-1205608
-1205330
-1206104
-1207093
-1207135
-1206533
-1206373
-1207053
-1208647
-1208313
-1207632
-1207388
-1207969
-1208847
-1209053
-1208528
-1208214
-1208994
-1209854
-1210135
-1209546
-1209255
-1209823
-1210865
-1211092
-1210435
-1210130
-1210664
-1211534
-1211847
-1211090
-1210698
-1211320
-1212150
-1212321
-1211510
-1210855
-1211325
-1211941
-1211631
-1210575
-1209776
-1209571
-1209942
-1209331
-1207885
-1206516
-1206272
-1206192
-1204931
-1203470
-1201989
-1201517
-1201203
-1200156
-1198283
-1196594
-1195959
-1195635
-1194485
-1192657
-1190905
-1190104
-1189730
-1188558
-1186808
-1184947
-1184469
-1184216
-1183222
-1181329
-1179970
-1179322
-1179231
-1178298
-1176699
-1175354
-1174830
-1174686
-1173893
-1172408
-1171125
-1170707
-1170635
-1169896
-1168380
-1167111
-1166976
-1167031
-1166159
-1164789
-1163623
-1163391
-1163416
-1162797
-1161352
-1160567
-1160520
-1160645
-1159959
-1158698
-1157718
-1157705
-1157927
-1157276
-1156156
-1155263
-1155240
-1155374
-1155004
-1153888
-1152982
-1152948
-1153284
-1152957
-1151862
-1150992
-1151146
-1151567
-1151209
-1150121
-1149353
-1149660
-1150031
-1149815
-1148633
-1148082
-1148327
-1148935
-1148565
-1147548
-1147106
-1147428
-1147882
-1147707
-1146875
-1146405
-1146817
-1147450
-1147297
-1146436
-1145941
-1146361
-1147195
-1146928
-1146361
-1145952
-1146499
-1147181
-1147219
-1146573
-1146256
-1146767
-1147596
-1147790
-1147098
-1146893
-1147525
-1148323
-1148425
-1147806
-1147539
-1148181
-1149230
-1149263
-1148622
-1148591
-1149280
-1150092
-1150089
-1149655
-1149580
-1150160
-1150998
-1151113
-1150474
-1150266
-1150979
-1151865
-1151817
-1151343
-1151185
-1151841
-1152541
-1152407
-1151817
-1151812
-1152481
-1153255
-1153350
-1152598
-1152500
-1153128
-1153878
-1153955
-1153391
-1153149
-1153879
-1154591
-1154588
-1153925
-1153692
-1154525
-1155372
-1155379
-1154641
-1154446
-1155155
-1156073
-1156083
-1155362
-1155201
-1155841
-1156640
-1156732
-1156146
-1156004
-1156713
-1157441
-1157475
-1156855
-1156711
-1157445
-1158192
-1158094
-1157469
-1157299
-1158059
-1158873
-1158882
-1158285
-1158245
-1158822
-1159713
-1159775
-1159067
-1159127
-1159833
-1161023
-1160816
-1160025
-1159926
-1160596
-1161379
-1161329
-1160849
-1160730
-1161525
-1161948
-1162045
-1161547
-1161444
-1162242
-1163266
-1163186
-1162615
-1162407
-1163084
-1164018
-1163994
-1163349
-1163256
-1164130
-1165030
-1164809
-1164386
-1163973
-1165014
-1165899
-1165924
-1165278
-1165325
-1166022
-1166992
-1167000
-1166318
-1166149
-1167055
-1167942
-1167774
-1167239
-1167226
-1167860
-1168849
-1168850
-1168307
-1168062
-1168868
-1169743
-1169660
-1169208
-1169095
-1169825
-1170788
-1170797
-1170073
-1170070
-1170860
-1171801
-1171639
-1171129
-1171089
-1171937
-1172815
-1172761
-1172115
-1172122
-1172976
-1173792
-1173631
-1172996
-1172965
-1173855
-1174474
-1174471
-1173880
-1173821
-1174650
-1175499
-1175442
-1174970
-1174936
-1175693
-1176324
-1176430
-1176019
-1175906
-1176802
-1177572
-1177471
-1177073
-1177039
-1177632
-1178589
-1178493
-1178022
-1177778
-1178667
-1179571
-1179566
-1178996
-1178987
-1179747
-1180492
-1180543
-1180000
-1179833
-1180751
-1181435
-1181519
-1180910
-1180933
-1181734
-1182591
-1182468
-1181919
-1182017
-1182764
-1183593
-1183431
-1182837
-1183466
-1183785
-1184414
-1184162
-1183560
-1183651
-1184601
-1185291
-1185307
-1184571
-1184556
-1185376
-1186331
-1186147
-1185575
-1185508
-1186238
-1187061
-1186927
-1186336
-1186361
-1187253
-1188072
-1187898
-1187272
-1187330
-1187905
-1188648
-1188441
-1187872
-1187887
-1188702
-1189651
-1189422
-1188816
-1188787
-1189361
-1190345
-1190147
-1189509
-1189585
-1190433
-1191208
-1191105
-1190414
-1190434
-1191231
-1191979
-1191804
-1191282
-1191119
-1191898
-1192727
-1192649
-1191979
-1191961
-1192837
-1193533
-1193365
-1192752
-1192865
-1193721
-1194589
-1194380
-1193768
-1193748
-1194638
-1195611
-1195306
-1194767
-1194694
-1195140
-1196154
-1196186
-1195479
-1195626
-1196458
-1197169
-1196996
-1196362
-1196461
-1197418
-1198131
-1197721
-1197314
-1197559
-1198327
-1199186
-1198957
-1198573
-1198429
-1199380
-1200033
-1199824
-1199244
-1199412
-1200170
-1201051
-1200819
-1200339
-1200445
-1201184
-1202031
-1201916
-1201361
-1201404
-1202244
-1203037
-1202723
-1202168
-1202104
-1202933
-1203646
-1203526
-1203790
-1203008
-1203578
-1204180
-1203864
-1202891
-1202749
-1203289
-1203628
-1202969
-1201719
-1201168
-1201279
-1201192
-1200049
-1198493
-1197666
-1197472
-1196767
-1195749
-1193889
-1192932
-1192436
-1191829
-1190489
-1188529
-1187375
-1186894
-1186442
-1184792
-1182883
-1181603
-1181221
-1180736
-1179145
-1177366
-1176157
-1175789
-1175467
-1174076
-1172353
-1171388
-1170979
-1170678
-1169361
-1167811
-1166771
-1166616
-1166430
-1165143
-1163434
-1162710
-1162650
-1162379
-1161276
-1159789
-1159013
-1158927
-1158826
-1157668
-1156202
-1155463
-1155518
-1155479
-1154451
-1153106
-1152414
-1152493
-1152523
-1151310
-1150151
-1149508
-1149776
-1149866
-1148894
-1147512
-1147039
-1147229
-1147319
-1146318
-1145242
-1144779
-1145073
-1145350
-1144582
-1143508
-1143075
-1143207
-1143447
-1142662
-1141503
-1141385
-1141688
-1142028
-1141226
-1140157
-1140111
-1140381
-1140565
-1140057
-1138870
-1138884
-1139387
-1139749
-1139147
-1138392
-1138165
-1138701
-1139219
-1138745
-1137915
-1137878
-1138540
-1138831
-1138414
-1137856
-1137801
-1138611
-1139026
-1138744
-1138090
-1138095
-1138871
-1139531
-1139270
-1138656
-1138813
-1139318
-1140156
-1140549
-1139632
-1139625
-1140665
-1141196
-1140979
-1140438
-1140674
-1141495
-1142139
-1141912
-1141364
-1141598
-1142528
-1143156
-1142761
-1141881
-1142315
-1143226
-1143787
-1143540
-1142877
-1143105
-1144030
-1144611
-1144215
-1143708
-1143929
-1144769
-1145247
-1145052
-1144469
-1144550
-1145320
-1146004
-1145698
-1144744
-1145211
-1145720
-1146586
-1146213
-1145647
-1145971
-1146714
-1147251
-1147010
-1146532
-1146733
-1147215
-1147952
-1147768
-1147159
-1147324
-1148233
-1148899
-1148565
-1147866
-1148183
-1149059
-1149673
-1149356
-1148837
-1149019
-1149888
-1150553
-1150207
-1149650
-1149921
-1150736
-1151271
-1150955
-1150473
-1150764
-1151510
-1152200
-1151875
-1151385
-1151604
-1152401
-1153071
-1152617
-1152153
-1152449
-1153289
-1153949
-1153658
-1153040
-1153431
-1154317
-1154950
-1154511
-1154007
-1154403
-1155149
-1155739
-1155400
-1154917
-1155219
-1156191
-1156801
-1156365
-1155921
-1156259
-1157145
-1157684
-1157487
-1156956
-1157260
-1158205
-1158725
-1158540
-1157876
-1158263
-1159200
-1159910
-1159471
-1158972
-1159295
-1160138
-1160834
-1160393
-1159954
-1160316
-1161257
-1161838
-1161400
-1160888
-1161313
-1162247
-1162917
-1162579
-1161927
-1162253
-1163296
-1163854
-1163492
-1163036
-1163323
-1165457
-1165202
-1164728
-1164060
-1164483
-1165393
-1166038
-1165741
-1165203
-1165490
-1166428
-1166931
-1166699
-1166223
-1166554
-1167414
-1168011
-1167626
-1167127
-1167454
-1168474
-1168945
-1168734
-1168203
-1168613
-1169463
-1170080
-1169677
-1169299
-1169536
-1170548
-1171101
-1170731
-1170231
-1170679
-1171557
-1172151
-1171815
-1171214
-1171559
-1172476
-1173055
-1172805
-1172276
-1172750
-1173644
-1174122
-1173667
-1173212
-1173558
-1174658
-1175154
-1174788
-1174148
-1174269
-1175392
-1175976
-1175703
-1175172
-1175655
-1176576
-1177085
-1176719
-1176222
-1176460
-1177415
-1177969
-1177687
-1177127
-1177496
-1178410
-1178897
-1178510
-1178036
-1178282
-1179375
-1179777
-1179451
-1178993
-1179286
-1180261
-1180737
-1180336
-1179788
-1180329
-1181172
-1181728
-1182134
-1181069
-1181207
-1182073
-1182446
-1181979
-1181632
-1181949
-1182898
-1183459
-1182939
-1182446
-1182912
-1183684
-1184260
-1183746
-1183285
-1183752
-1184768
-1185108
-1184513
-1184117
-1184657
-1185608
-1186104
-1185595
-1185103
-1185491
-1186557
-1187116
-1186692
-1186255
-1186512
-1187453
-1187967
-1187535
-1187117
-1187557
-1188441
-1189140
-1188590
-1188182
-1188687
-1189723
-1190084
-1189564
-1189150
-1189703
-1190684
-1191236
-1190644
-1190280
-1190753
-1191704
-1192225
-1191804
-1191306
-1191783
-1192712
-1192969
-1192693
-1192311
-1192745
-1193765
-1194219
-1193636
-1193184
-1193825
-1194666
-1195136
-1194718
-1194196
-1194667
-1195776
-1196172
-1195634
-1195288
-1195690
-1196559
-1197042
-1196383
-1195899
-1196246
-1196924
-1197254
-1196565
-1195917
-1195973
-1196485
-1196538
-1195436
-1194151
-1194035
-1194238
-1193853
-1192495
-1190997
-1190385
-1190276
-1189571
-1187977
-1186330
-1185506
-1185119
-1184333
-1182627
-1180978
-1179780
-1179503
-1178597
-1176913
-1175155
-1174322
-1174033
-1173058
-1171485
-1169780
-1169024
-1168717
-1168019
-1166543
-1164904
-1164261
-1164028
-1163455
-1161925
-1160426
-1159804
-1159718
-1159193
-1157708
-1156519
-1156011
-1155903
-1155354
-1153891
-1152645
-1152335
-1152388
-1151955
-1150499
-1149284
-1148934
-1148858
-1148449
-1147353
-1146048
-1145763
-1145955
-1145585
-1144491
-1143208
-1143163
-1143413
-1143090
-1141941
-1140854
-1140578
-1140589
-1140606
-1139507
-1138580
-1138554
-1138789
-1138573
-1137588
-1136596
-1136680
-1137027
-1136871
-1135869
-1135028
-1135126
-1135636
-1135526
-1134601
-1133646
-1133808
-1134178
-1134132
-1133360
-1132619
-1132668
-1133347
-1133310
-1132491
-1131765
-1131997
-1132635
-1132760
-1132049
-1131434
-1131739
-1132372
-1132479
-1131876
-1131296
-1131675
-1132333
-1132509
-1132023
-1131607
-1131998
-1132870
-1133201
-1132561
-1132258
-1132782
-1133678
-1133975
-1133568
-1133206
-1133637
-1134685
-1135045
-1134662
-1134260
-1134765
-1135799
-1136179
-1135698
-1135317
-1135857
-1137040
-1137300
-1136773
-1136231
-1136878
-1137797
-1138103
-1137574
-1137378
-1137823
-1138662
-1139097
-1138435
-1138145
-1138707
-1139607
-1139915
-1139422
-1138983
-1139464
-1140350
-1140669
-1140033
-1139679
-1140147
-1141067
-1141374
-1140835
-1140404
-1140819
-1141816
-1142062
-1141566
-1141177
-1141632
-1142470
-1142782
-1142269
-1141865
-1142419
-1143360
-1143483
-1143045
-1142695
-1143236
-1143967
-1144311
-1143875
-1143526
-1143944
-1145017
-1145256
-1144910
-1144540
-1145090
-1146030
-1146126
-1145629
-1145315
-1145786
-1146713
-1147097
-1146649
-1146298
-1146939
-1147911
-1148193
-1147693
-1147432
-1147970
-1148950
-1149169
-1148559
-1148044
-1148759
-1149741
-1150049
-1149522
-1149216
-1149821
-1150794
-1151151
-1150680
-1149953
-1150798
-1151756
-1152207
-1151757
-1151381
-1151752
-1152941
-1153279
-1152688
-1152329
-1153873
-1154158
-1154146
-1153451
-1152979
-1153669
-1154612
-1154795
-1154818
-1155718
-1156697
-1157018
-1156594
-1156200
-1156740
-1157496
-1157558
-1156968
-1156420
-1157028
-1157875
-1158195
-1157624
-1157456
-1158172
-1159068
-1159440
-1158940
-1158718
-1159636
-1160659
-1161086
-1160753
-1160401
-1161145
-1161983
-1162156
-1161532
-1161042
-1161629
-1162598
-1162675
-1162167
-1162000
-1162566
-1163552
-1163881
-1163334
-1163109
-1163609
-1164590
-1164858
-1164491
-1164149
-1164987
-1166072
-1166532
-1166099
-1165820
-1166355
-1167285
-1167353
-1166742
-1166316
-1166813
-1168511
-1168322
-1167628
-1167394
-1168241
-1169222
-1169402
-1168799
-1168509
-1169327
-1170316
-1170445
-1169898
-1169695
-1170320
-1171376
-1171567
-1171008
-1170804
-1171353
-1172117
-1172403
-1171849
-1171688
-1172220
-1173149
-1173392
-1173089
-1172734
-1173292
-1174222
-1174456
-1173827
-1173651
-1174434
-1175258
-1175531
-1174727
-1175450
-1176192
-1176314
-1175913
-1175687
-1176286
-1177103
-1177409
-1176806
-1176421
-1177254
-1178153
-1178342
-1177649
-1177335
-1178139
-1178944
-1179102
-1178543
-1178370
-1178938
-1179849
-1179994
-1179502
-1179240
-1180003
-1180881
-1180891
-1180426
-1180270
-1180899
-1181874
-1181966
-1181496
-1181186
-1181866
-1182821
-1183004
-1182451
-1182138
-1182865
-1183785
-1183861
-1183314
-1183270
-1184002
-1185012
-1185236
-1184498
-1184155
-1184960
-1185925
-1186118
-1185609
-1185408
-1186192
-1187199
-1187196
-1186596
-1186411
-1187240
-1188167
-1188226
-1187772
-1187388
-1188183
-1189210
-1189264
-1188910
-1188401
-1189244
-1190286
-1190426
-1189928
-1189703
-1190280
-1191245
-1191406
-1190928
-1190696
-1191452
-1192485
-1192525
-1191825
-1191778
-1192372
-1193132
-1193300
-1192847
-1192491
-1193208
-1194150
-1194189
-1193422
-1193118
-1193601
-1194325
-1194119
-1193212
-1192803
-1192965
-1193430
-1192833
-1191568
-1190599
-1190427
-1190578
-1189669
-1188102
-1186830
-1186327
-1186130
-1184910
-1183066
-1181548
-1181125
-1180825
-1179489
-1177617
-1176157
-1175557
-1175035
-1173802
-1171774
-1170336
-1169920
-1169591
-1168463
-1166661
-1165283
-1164815
-1164451
-1163425
-1161768
-1160544
-1160236
-1160062
-1159038
-1157282
-1156237
-1156001
-1155789
-1154924
-1153286
-1152286
-1152215
-1151972
-1151199
-1149752
-1148802
-1148579
-1148505
-1147834
-1146322
-1145357
-1145351
-1145447
-1144711
-1143406
-1142388
-1142340
-1142488
-1141756
-1140489
-1139641
-1139718
-1139960
-1139368
-1138080
-1137391
-1137489
-1137720
-1137100
-1135820
-1135127
-1135382
-1135683
-1135070
-1133884
-1133449
-1133559
-1133935
-1133567
-1132412
-1131883
-1132122
-1132451
-1132137
-1131209
-1130629
-1131118
-1131465
-1131212
-1130323
-1129742
-1130327
-1130761
-1130126
-1129595
-1129034
-1129555
-1130235
-1130007
-1129174
-1128914
-1129473
-1130153
-1130026
-1129299
-1129078
-1129692
-1130468
-1130273
-1129636
-1129506
-1130206
-1131004
-1130865
-1130365
-1130332
-1131041
-1131812
-1131871
-1131426
-1131376
-1132079
-1133109
-1133039
-1132543
-1132515
-1133277
-1134234
-1134233
-1133380
-1133541
-1134449
-1135340
-1135292
-1134827
-1134735
-1135533
-1136377
-1136451
-1135950
-1135902
-1136494
-1137101
-1137268
-1136786
-1136641
-1137413
-1138209
-1138059
-1137499
-1137369
-1138166
-1138914
-1138963
-1138302
-1138219
-1138817
-1139567
-1139624
-1139067
-1139007
-1139721
-1140369
-1140308
-1139831
-1139691
-1140552
-1141217
-1141242
-1140475
-1140454
-1141117
-1142079
-1141879
-1141431
-1141397
-1142192
-1142938
-1142956
-1142378
-1142273
-1142992
-1143881
-1143771
-1143284
-1143121
-1143857
-1144851
-1144779
-1144228
-1144144
-1145014
-1145736
-1145709
-1145019
-1145133
-1145958
-1146736
-1146590
-1146136
-1146182
-1146944
-1147726
-1147703
-1147075
-1146997
-1147898
-1148768
-1148620
-1148073
-1147974
-1148810
-1150187
-1149678
-1149193
-1149165
-1149989
-1150902
-1150824
-1150169
-1150174
-1151055
-1151919
-1151897
-1151184
-1151247
-1152090
-1153036
-1152870
-1153215
-1152730
-1153377
-1154161
-1154017
-1153518
-1154270
-1154577
-1155205
-1155223
-1154613
-1154558
-1155469
-1156261
-1156215
-1155604
-1155814
-1156615
-1157393
-1157327
-1156884
-1156740
-1157787
-1158535
-1158377
-1157839
-1157859
-1158909
-1159777
-1159574
-1158998
-1159161
-1159908
-1160855
-1160800
-1160269
-1160375
-1161149
-1161884
-1161870
-1161203
-1161313
-1162232
-1163138
-1163059
-1162519
-1162543
-1163514
-1164269
-1164116
-1163557
-1163709
-1164558
-1165397
-1165129
-1164698
-1164843
-1165541
-1166239
-1166308
-1165774
-1165780
-1166692
-1167564
-1167390
-1166837
-1166882
-1167733
-1168536
-1168483
-1167860
-1167996
-1168874
-1169766
-1169694
-1169149
-1169074
-1169834
-1170817
-1170581
-1169951
-1170148
-1170948
-1171852
-1171711
-1171077
-1171304
-1172048
-1172951
-1172663
-1171795
-1172130
-1173195
-1174007
-1173818
-1173209
-1173150
-1174193
-1175060
-1174868
-1174384
-1174468
-1175355
-1176076
-1175823
-1175275
-1175335
-1176213
-1176857
-1176811
-1176245
-1176318
-1177111
-1177971
-1177793
-1177118
-1177282
-1178203
-1178880
-1178718
-1178171
-1178179
-1179055
-1179938
-1179709
-1179073
-1179371
-1180220
-1181036
-1180728
-1180227
-1180362
-1181114
-1181981
-1181592
-1181049
-1180976
-1182048
-1182920
-1182643
-1182107
-1182288
-1183068
-1183807
-1183634
-1183125
-1183316
-1184264
-1184949
-1184738
-1184250
-1184440
-1185229
-1185916
-1185814
-1185339
-1185455
-1186280
-1187030
-1186973
-1186460
-1186513
-1187388
-1188105
-1187921
-1187387
-1187517
-1188397
-1189349
-1189082
-1188473
-1188561
-1189529
-1190315
-1190114
-1189465
-1189594
-1190501
-1191243
-1191101
-1190567
-1190641
-1191703
-1192442
-1192090
-1191619
-1191869
-1192734
-1193468
-1193223
-1192500
-1192761
-1193562
-1194352
-1193976
-1193357
-1193652
-1194497
-1195118
-1194760
-1194097
-1194249
-1194993
-1195485
-1194976
-1194029
-1193895
-1194417
-1194602
-1193772
-1193053
-1192116
-1192058
-1191858
-1190715
-1189046
-1188222
-1188088
-1187560
-1186023
-1184180
-1183088
-1182762
-1182091
-1180496
-1178664
-1177440
-1176944
-1176453
-1174733
-1172799
-1171767
-1171340
-1170787
-1169126
-1167335
-1166299
-1166047
-1165561
-1164084
-1162382
-1161438
-1161246
-1160944
-1159647
-1158103
-1157138
-1157072
-1156830
-1155445
-1153914
-1153098
-1153120
-1152807
-1151757
-1150289
-1149549
-1149557
-1149392
-1148256
-1146840
-1146092
-1146090
-1145994
-1145033
-1143586
-1143667
-1143446
-1143145
-1142080
-1140801
-1140279
-1140535
-1140431
-1139484
-1138342
-1137907
-1138089
-1138154
-1137292
-1136215
-1135836
-1136060
-1136218
-1135397
-1134229
-1133958
-1134401
-1134558
-1133708
-1132792
-1132541
-1132973
-1133236
-1132429
-1131317
-1131193
-1131770
-1131967
-1131262
-1130477
-1130299
-1130778
-1131267
-1130686
-1129874
-1129592
-1130234
-1130622
-1130185
-1129455
-1129433
-1130085
-1130533
-1129978
-1129303
-1129476
-1130140
-1130682
-1130301
-1129580
-1129756
-1130589
-1131285
-1130958
-1130314
-1130547
-1131480
-1132153
-1131733
-1131369
-1131701
-1132538
-1133209
-1132852
-1132468
-1132822
-1133564
-1134277
-1133980
-1133539
-1133723
-1134618
-1135162
-1134887
-1134442
-1134694
-1135698
-1136232
-1136001
-1135487
-1135712
-1136563
-1137169
-1136784
-1136317
-1136589
-1137431
-1138030
-1137574
-1136698
-1137085
-1138002
-1138575
-1138214
-1137671
-1138008
-1138824
-1139386
-1138987
-1138524
-1138773
-1139509
-1140127
-1139706
-1139233
-1139515
-1140294
-1140926
-1140488
-1139956
-1140264
-1140995
-1141658
-1141233
-1140683
-1140944
-1141924
-1142553
-1142176
-1141704
-1142007
-1142770
-1143401
-1143023
-1142428
-1142656
-1143672
-1144200
-1143967
-1143400
-1143785
-1144647
-1145239
-1144765
-1144311
-1144515
-1145448
-1146081
-1145724
-1145214
-1145474
-1146319
-1147091
-1146690
-1146103
-1146481
-1147350
-1147889
-1147534
-1147024
-1147556
-1148310
-1149019
-1148745
-1148210
-1148496
-1149365
-1149971
-1149681
-1149215
-1149485
-1150511
-1151097
-1150634
-1150223
-1150556
-1151560
-1152038
-1151704
-1151271
-1151628
-1152501
-1153057
-1152800
-1152206
-1152672
-1153720
-1154314
-1153907
-1153339
-1153847
-1154519
-1155087
-1154836
-1154324
-1154780
-1155726
-1156241
-1155940
-1155509
-1155973
-1156859
-1157438
-1157104
-1156530
-1156995
-1157654
-1158346
-1158015
-1157610
-1157954
-1158966
-1159519
-1159164
-1158681
-1159030
-1159954
-1160538
-1160195
-1159738
-1160070
-1161083
-1161656
-1161192
-1160782
-1161278
-1162090
-1162660
-1162185
-1161971
-1161888
-1163128
-1163654
-1163395
-1162804
-1163237
-1164296
-1164790
-1164368
-1164025
-1164469
-1165229
-1165929
-1165516
-1164918
-1165297
-1166377
-1166915
-1166497
-1166036
-1166377
-1167392
-1167881
-1167496
-1167059
-1167542
-1168457
-1168970
-1168503
-1168042
-1168419
-1169345
-1169861
-1169473
-1168993
-1169449
-1170422
-1170938
-1170508
-1169986
-1170490
-1171311
-1171900
-1171555
-1171065
-1171432
-1172402
-1172976
-1172539
-1171948
-1172461
-1173399
-1173908
-1173492
-1173016
-1173466
-1174419
-1174917
-1174497
-1173866
-1174280
-1175368
-1175750
-1175328
-1174916
-1175375
-1176335
-1176749
-1176332
-1175816
-1176305
-1177137
-1177732
-1177098
-1176690
-1177195
-1178109
-1178577
-1178158
-1177737
-1178021
-1179004
-1179498
-1178924
-1178558
-1178991
-1179935
-1180327
-1179710
-1180042
-1180051
-1180852
-1181335
-1180755
-1180407
-1180757
-1181650
-1182193
-1181723
-1181208
-1181783
-1182800
-1183140
-1182810
-1182367
-1182750
-1183562
-1184112
-1183640
-1183347
-1183816
-1184694
-1185256
-1184827
-1184088
-1184788
-1185833
-1186157
-1185793
-1185395
-1185921
-1186827
-1187299
-1186740
-1186430
-1186802
-1187786
-1188170
-1187700
-1187340
-1187912
-1188782
-1189252
-1188827
-1188447
-1188864
-1189722
-1190237
-1189785
-1189245
-1189688
-1190585
-1191014
-1190486
-1190048
-1190527
-1191363
-1191447
-1190743
-1189790
-1189861
-1190445
-1190740
-1190615
-1190319
-1190900
-1191835
-1192306
-1191664
-1191065
-1191045
-1191715
-1191711
-1190891
-1190075
-1190118
-1190595
-1190548
-1189612
-1188427
-1188063
-1188227
-1187717
-1186230
-1184655
-1183967
-1183686
-1182768
-1181044
-1179320
-1178622
-1178322
-1177261
-1175481
-1173817
-1172873
-1172484
-1171343
-1169559
-1167720
-1166931
-1166748
-1165761
-1164039
-1162309
-1161650
-1161437
-1160615
-1159170
-1157474
-1157596
-1156984
-1156005
-1154492
-1153165
-1152537
-1152472
-1152001
-1150413
-1149083
-1148689
-1148700
-1148074
-1146716
-1145427
-1145161
-1145033
-1144601
-1143291
-1142073
-1141861
-1142025
-1141552
-1140259
-1139106
-1138940
-1139090
-1138641
-1137410
-1136351
-1136196
-1136415
-1136072
-1135070
-1134003
-1133854
-1134285
-1133906
-1132847
-1131859
-1131975
-1132276
-1132053
-1131049
-1130233
-1130297
-1130582
-1130504
-1129516
-1128761
-1128824
-1129269
-1129079
-1128189
-1127561
-1127653
-1128267
-1128263
-1127333
-1126626
-1126784
-1127486
-1127423
-1126695
-1126096
-1126307
-1126887
-1126970
-1126404
-1125836
-1126173
-1126862
-1126944
-1126371
-1125778
-1126272
-1127127
-1127244
-1126695
-1126236
-1126785
-1127567
-1127775
-1127336
-1127127
-1127598
-1128539
-1128850
-1128341
-1127873
-1128541
-1129470
-1129770
-1129364
-1129028
-1129731
-1130562
-1130781
-1130357
-1130120
-1130739
-1131517
-1131733
-1131200
-1131088
-1131673
-1132476
-1132796
-1132294
-1131920
-1132458
-1133381
-1133572
-1133048
-1132640
-1133283
-1134056
-1134235
-1133712
-1133403
-1133986
-1134776
-1135007
-1134276
-1134061
-1134529
-1135429
-1135658
-1135109
-1134607
-1135312
-1136078
-1136308
-1135802
-1135145
-1135898
-1136806
-1136934
-1136424
-1136208
-1136775
-1137648
-1137830
-1137199
-1136967
-1137517
-1138278
-1138616
-1138077
-1137771
-1138292
-1139288
-1139495
-1138896
-1138648
-1139147
-1140033
-1140266
-1139695
-1139468
-1140035
-1140882
-1141136
-1140484
-1140265
-1140810
-1141747
-1142013
-1141428
-1141146
-1141754
-1142714
-1142766
-1142312
-1141912
-1142635
-1143446
-1143638
-1143175
-1142834
-1143571
-1144457
-1144571
-1144038
-1143774
-1144297
-1145405
-1145654
-1145139
-1144772
-1145409
-1146395
-1146495
-1146013
-1145691
-1146369
-1147231
-1147506
-1146953
-1147340
-1147653
-1148302
-1148571
-1148130
-1147790
-1148454
-1149423
-1149539
-1149144
-1148814
-1149443
-1150272
-1150610
-1149983
-1149890
-1150463
-1151514
-1151620
-1150852
-1150853
-1151561
-1152487
-1152535
-1152157
-1151938
-1152412
-1153455
-1153585
-1153178
-1152991
-1153685
-1154549
-1154722
-1154235
-1153945
-1154604
-1155575
-1155585
-1155200
-1154948
-1155669
-1156637
-1156720
-1156227
-1155886
-1156506
-1157458
-1157704
-1157053
-1156936
-1157516
-1158562
-1158627
-1158249
-1157891
-1158433
-1159456
-1159688
-1159080
-1159025
-1159687
-1160441
-1160696
-1160097
-1159880
-1160598
-1161500
-1161757
-1161080
-1160792
-1161479
-1162519
-1162540
-1161957
-1161915
-1162673
-1163587
-1163709
-1162981
-1162854
-1163517
-1164422
-1164537
-1164131
-1163826
-1164532
-1165506
-1165655
-1165144
-1164761
-1165427
-1166369
-1166542
-1165975
-1165847
-1166547
-1167429
-1167565
-1167084
-1166730
-1167448
-1168399
-1168509
-1167880
-1167687
-1168428
-1169384
-1169346
-1168909
-1168693
-1169357
-1170381
-1170371
-1169893
-1169687
-1170438
-1171217
-1171214
-1170658
-1170552
-1171227
-1172024
-1172273
-1171677
-1171422
-1172148
-1173052
-1173102
-1172481
-1173008
-1173225
-1174049
-1174141
-1173222
-1173023
-1173901
-1174745
-1174826
-1174179
-1174054
-1174604
-1175601
-1175568
-1175154
-1174883
-1175595
-1176477
-1176636
-1175896
-1175754
-1176556
-1177249
-1177464
-1176853
-1176606
-1177338
-1178125
-1178202
-1177742
-1177361
-1178213
-1179101
-1179156
-1178588
-1178510
-1179272
-1180125
-1180116
-1179467
-1179421
-1180243
-1181078
-1181141
-1180626
-1180384
-1181141
-1182149
-1182196
-1181468
-1181435
-1182130
-1183060
-1183238
-1182684
-1182483
-1183154
-1184168
-1183565
-1183467
-1184082
-1185168
-1185132
-1184561
-1184488
-1185320
-1186171
-1186561
-1185567
-1185429
-1186213
-1187128
-1187118
-1186683
-1186524
-1187188
-1188140
-1188170
-1187647
-1187443
-1188192
-1188971
-1188907
-1188481
-1188232
-1188920
-1189781
-1189798
-1189035
-1188780
-1189155
-1189782
-1189443
-1188549
-1188107
-1188175
-1188398
-1187908
-1186420
-1185421
-1185273
-1185209
-1184019
-1182404
-1181081
-1180568
-1180214
-1178853
-1177016
-1175276
-1174930
-1174434
-1173245
-1171226
-1169835
-1169200
-1168794
-1167352
-1165577
-1164077
-1163626
-1163295
-1162011
-1160288
-1158900
-1158461
-1158257
-1157072
-1155383
-1154160
-1153803
-1153677
-1152696
-1151147
-1150024
-1149836
-1149715
-1148727
-1147295
-1146288
-1146176
-1145956
-1145027
-1143648
-1142717
-1142653
-1142665
-1141780
-1140339
-1139570
-1139485
-1139678
-1138862
-1137635
-1136693
-1136705
-1137039
-1136186
-1134927
-1134266
-1134316
-1134578
-1133935
-1132712
-1132012
-1132222
-1132439
-1131893
-1130682
-1130039
-1130233
-1130642
-1130073
-1129049
-1128788
-1129191
-1128672
-1127467
-1127100
-1127583
-1128084
-1127604
-1126513
-1126159
-1126606
-1127030
-1126600
-1125820
-1125386
-1125916
-1126393
-1126088
-1125349
-1125060
-1125537
-1126239
-1125895
-1125210
-1124990
-1125587
-1126177
-1125907
-1125198
-1125191
-1125881
-1126627
-1126505
-1126594
-1125929
-1126490
-1127300
-1127163
-1126651
-1126620
-1127281
-1128238
-1128106
-1127708
-1127568
-1128473
-1129287
-1129149
-1128588
-1128550
-1129289
-1130200
-1130042
-1129372
-1129307
-1130073
-1130899
-1130796
-1130195
-1130114
-1130956
-1131730
-1131500
-1130876
-1130826
-1131688
-1132354
-1132284
-1131646
-1131663
-1132294
-1132917
-1132768
-1132270
-1132169
-1132967
-1133543
-1133537
-1132859
-1132722
-1133473
-1134197
-1134010
-1133505
-1133400
-1134098
-1134705
-1134778
-1134140
-1134138
-1134914
-1135745
-1135398
-1134839
-1135434
-1135710
-1136431
-1136265
-1135700
-1135609
-1136423
-1137099
-1137034
-1136397
-1136445
-1137173
-1137917
-1137877
-1137174
-1137104
-1137923
-1138636
-1138480
-1137925
-1137949
-1138692
-1139523
-1139486
-1138802
-1138872
-1139687
-1140457
-1140339
-1139730
-1139683
-1140435
-1141208
-1141137
-1140498
-1140574
-1141346
-1142140
-1141995
-1141384
-1141453
-1142242
-1143080
-1142987
-1142390
-1142417
-1143212
-1143984
-1143881
-1143364
-1143455
-1144086
-1145007
-1144848
-1144349
-1144370
-1145096
-1145859
-1145868
-1145327
-1145200
-1146182
-1146980
-1146895
-1146265
-1146230
-1147045
-1147774
-1147818
-1147237
-1147361
-1148122
-1148829
-1148148
-1148187
-1149168
-1149991
-1149848
-1149247
-1149236
-1150047
-1150906
-1150669
-1150128
-1150363
-1151012
-1151812
-1151740
-1151046
-1151270
-1152038
-1152881
-1152793
-1152240
-1152149
-1153058
-1153813
-1153629
-1153071
-1153112
-1153924
-1154695
-1154640
-1154036
-1154101
-1154867
-1155684
-1155653
-1155119
-1155828
-1156247
-1156760
-1156462
-1155858
-1156027
-1156856
-1158185
-1157759
-1157093
-1157084
-1157972
-1158674
-1158575
-1158017
-1157968
-1158906
-1159727
-1159346
-1158870
-1159044
-1159777
-1160689
-1160499
-1159944
-1160004
-1160768
-1161555
-1161463
-1160759
-1160875
-1161723
-1162614
-1162329
-1161769
-1161785
-1162794
-1163398
-1163362
-1162767
-1164543
-1164294
-1163653
-1163652
-1164664
-1165390
-1165232
-1164673
-1165272
-1165778
-1166317
-1166014
-1165443
-1165499
-1166514
-1167146
-1166879
-1166273
-1166516
-1167387
-1167714
-1168352
-1167185
-1167203
-1168093
-1168776
-1168613
-1167901
-1167990
-1168987
-1169700
-1169407
-1168857
-1168929
-1169728
-1170597
-1170237
-1169703
-1169768
-1170597
-1171277
-1171198
-1170447
-1170533
-1171477
-1172103
-1172082
-1171324
-1171482
-1172454
-1173197
-1172946
-1172281
-1172506
-1173412
-1174178
-1174002
-1173172
-1173342
-1174331
-1175055
-1174715
-1174185
-1174261
-1175145
-1175952
-1175799
-1175165
-1175358
-1176196
-1177009
-1176758
-1176227
-1176435
-1177187
-1178007
-1177838
-1177144
-1177230
-1178228
-1178962
-1178627
-1178148
-1178252
-1179284
-1179884
-1179729
-1179178
-1179296
-1180128
-1181797
-1180922
-1180114
-1180317
-1181051
-1181970
-1181735
-1181121
-1181260
-1182025
-1182858
-1182641
-1181887
-1182104
-1182928
-1183640
-1183411
-1182842
-1183008
-1184576
-1184492
-1183643
-1182982
-1182872
-1183611
-1183966
-1183157
-1181837
-1181644
-1182014
-1182028
-1180914
-1179475
-1178552
-1178363
-1178048
-1176634
-1174831
-1173838
-1173544
-1172845
-1171217
-1169431
-1168320
-1167929
-1167298
-1165702
-1163727
-1162630
-1162114
-1161504
-1159983
-1158179
-1157094
-1156823
-1156202
-1154709
-1152944
-1152017
-1151762
-1151157
-1149872
-1148256
-1147459
-1147259
-1146935
-1145601
-1143990
-1143161
-1143075
-1142707
-1141560
-1140060
-1139346
-1139367
-1138943
-1137801
-1136518
-1135783
-1135741
-1135651
-1134505
-1133118
-1132579
-1132723
-1132536
-1131594
-1130295
-1129776
-1129898
-1129794
-1128705
-1127610
-1127213
-1127423
-1127256
-1126384
-1125223
-1124790
-1124675
-1125119
-1124302
-1123246
-1122928
-1123211
-1123232
-1122479
-1121458
-1121163
-1121589
-1121744
-1120940
-1119962
-1119831
-1120226
-1120487
-1119760
-1118895
-1118707
-1119232
-1119398
-1118860
-1117981
-1117813
-1118446
-1118831
-1118095
-1117447
-1117359
-1118048
-1118379
-1117990
-1117360
-1117389
-1117977
-1118299
-1117982
-1117378
-1117486
-1118356
-1118900
-1118550
-1117982
-1118198
-1118947
-1119539
-1119221
-1118812
-1119003
-1120528
-1120758
-1120318
-1119785
-1120107
-1120913
-1121745
-1122236
-1120813
-1121177
-1122049
-1122718
-1122482
-1122021
-1122351
-1123163
-1123688
-1123337
-1122947
-1123145
-1124073
-1124632
-1124182
-1123672
-1124060
-1125044
-1125572
-1125249
-1124651
-1124890
-1125749
-1126232
-1125849
-1125350
-1125449
-1126327
-1126956
-1126557
-1125862
-1126207
-1127048
-1127556
-1127159
-1126816
-1127053
-1127686
-1128407
-1128079
-1127536
-1127722
-1128551
-1129099
-1128873
-1128361
-1128629
-1129369
-1130124
-1129620
-1129009
-1129329
-1130250
-1130908
-1130488
-1129931
-1130335
-1131171
-1131593
-1131337
-1130788
-1131049
-1132018
-1132550
-1132237
-1131630
-1131969
-1132871
-1133404
-1133015
-1132510
-1132848
-1133730
-1134300
-1134069
-1133573
-1133947
-1134797
-1135334
-1134940
-1134406
-1134811
-1135598
-1136277
-1135936
-1135316
-1135776
-1136670
-1137329
-1136794
-1136281
-1136643
-1137615
-1138166
-1137689
-1137233
-1137628
-1138632
-1139211
-1138718
-1138230
-1138749
-1139623
-1140284
-1140015
-1139523
-1139785
-1140702
-1141333
-1141055
-1140591
-1140825
-1141768
-1142339
-1141939
-1141528
-1141789
-1142710
-1143422
-1143061
-1142609
-1142928
-1143805
-1144341
-1144045
-1143632
-1143914
-1144902
-1145500
-1145124
-1144645
-1144957
-1145963
-1146591
-1146229
-1145777
-1146117
-1147016
-1147589
-1147300
-1146864
-1147318
-1148261
-1148627
-1148367
-1147937
-1148214
-1149194
-1149804
-1149375
-1148912
-1149434
-1150424
-1150963
-1150621
-1150158
-1150464
-1151356
-1152011
-1151473
-1151100
-1151438
-1152440
-1152893
-1152581
-1152049
-1152573
-1153384
-1153939
-1153534
-1153225
-1153546
-1154490
-1154998
-1154748
-1154283
-1154708
-1155968
-1156148
-1155743
-1155209
-1155596
-1156511
-1157122
-1156657
-1156138
-1156671
-1157507
-1158028
-1157671
-1157330
-1157563
-1158539
-1159114
-1158814
-1158278
-1158704
-1159609
-1160022
-1159654
-1159241
-1159553
-1160438
-1160924
-1160699
-1160136
-1160634
-1161424
-1161929
-1161405
-1161082
-1161457
-1162305
-1162582
-1162277
-1161850
-1162387
-1163358
-1163715
-1163438
-1162968
-1164312
-1164562
-1164854
-1164517
-1163813
-1164109
-1165095
-1165612
-1165129
-1164511
-1165553
-1166193
-1166478
-1166124
-1165692
-1166104
-1166781
-1167478
-1167011
-1166575
-1167052
-1168052
-1168386
-1168050
-1167616
-1167980
-1168947
-1169454
-1168938
-1168583
-1169055
-1169883
-1170336
-1170003
-1169484
-1169968
-1170879
-1171316
-1170917
-1170523
-1171091
-1172071
-1172490
-1172080
-1171671
-1172106
-1173129
-1173529
-1173154
-1172663
-1173187
-1174135
-1174659
-1174247
-1173740
-1174202
-1174965
-1175596
-1175175
-1174778
-1175279
-1176207
-1176548
-1176130
-1175634
-1176165
-1177144
-1177271
-1177027
-1176667
-1177392
-1178109
-1178193
-1178001
-1177667
-1178078
-1178913
-1179282
-1178892
-1178200
-1178670
-1179422
-1179630
-1178935
-1178173
-1178405
-1178914
-1178894
-1177712
-1176666
-1176485
-1176712
-1176240
-1174794
-1173294
-1172696
-1172483
-1171823
-1170176
-1168444
-1167697
-1167232
-1166452
-1164670
-1162801
-1162060
-1161538
-1160537
-1158805
-1157057
-1156160
-1155815
-1154882
-1153118
-1151506
-1150774
-1150431
-1149438
-1147876
-1145970
-1145576
-1145388
-1144520
-1142985
-1141571
-1140939
-1140826
-1140203
-1138736
-1137322
-1136720
-1136632
-1136155
-1134659
-1133283
-1132847
-1132951
-1132450
-1130920
-1129671
-1129435
-1129261
-1128870
-1127635
-1126355
-1126014
-1126116
-1125664
-1124502
-1123247
-1122915
-1123241
-1122914
-1121655
-1120607
-1120434
-1120427
-1120362
-1119192
-1118116
-1118131
-1118449
-1118152
-1117022
-1116150
-1116138
-1116489
-1116351
-1115158
-1114267
-1114478
-1114837
-1114633
-1113724
-1112873
-1112942
-1113358
-1113259
-1112356
-1111560
-1111652
-1112123
-1111946
-1111253
-1110587
-1110828
-1111387
-1111455
-1110834
-1110145
-1110527
-1111117
-1111215
-1110448
-1109987
-1110340
-1111060
-1111122
-1110526
-1110060
-1110540
-1111387
-1111564
-1111124
-1110686
-1111169
-1112095
-1112275
-1111773
-1111455
-1112118
-1113077
-1113400
-1112972
-1112646
-1113260
-1114211
-1114469
-1114080
-1113764
-1114336
-1115243
-1115721
-1115335
-1114893
-1115481
-1116344
-1116740
-1116220
-1115964
-1116608
-1117246
-1117692
-1117044
-1116895
-1117552
-1118386
-1118639
-1118249
-1117837
-1118279
-1118961
-1119414
-1118996
-1118603
-1119063
-1119990
-1120380
-1119773
-1120019
-1120044
-1120835
-1121169
-1120540
-1120229
-1120689
-1121481
-1121759
-1121859
-1121152
-1121588
-1122465
-1122634
-1122265
-1121833
-1122340
-1123175
-1123432
-1122766
-1122656
-1123289
-1124063
-1124354
-1123926
-1123646
-1124130
-1125018
-1125269
-1124846
-1124512
-1125097
-1125957
-1125973
-1126955
-1127234
-1126746
-1126496
-1127126
-1127943
-1128248
-1127724
-1127333
-1127982
-1128874
-1129081
-1128536
-1128390
-1129008
-1129954
-1130190
-1129820
-1129481
-1130045
-1130863
-1131241
-1130767
-1130477
-1131098
-1131835
-1132122
-1131778
-1131484
-1132035
-1133042
-1133303
-1132883
-1132498
-1133167
-1134162
-1134288
-1133929
-1133676
-1134082
-1135112
-1135483
-1134994
-1134616
-1135243
-1136194
-1137250
-1136244
-1135804
-1136439
-1137404
-1137639
-1137007
-1136800
-1137499
-1138473
-1138671
-1138202
-1137984
-1138665
-1139616
-1139830
-1139379
-1139090
-1139698
-1140533
-1140766
-1140393
-1140059
-1140827
-1141745
-1141952
-1141488
-1141285
-1141866
-1142846
-1143126
-1142490
-1142228
-1142892
-1143944
-1144052
-1143655
-1143358
-1144058
-1144994
-1145260
-1144804
-1144537
-1145014
-1145920
-1146148
-1145614
-1145521
-1146205
-1147202
-1147303
-1146774
-1146482
-1147208
-1148064
-1148341
-1147813
-1147650
-1148265
-1149287
-1149459
-1148882
-1148567
-1149251
-1150247
-1150404
-1149990
-1149743
-1150404
-1151288
-1151498
-1151057
-1150717
-1151391
-1152357
-1152465
-1152075
-1151757
-1152455
-1153234
-1153482
-1152884
-1152676
-1153397
-1154276
-1154508
-1154099
-1153753
-1154398
-1155290
-1155426
-1154903
-1154657
-1155329
-1156220
-1156433
-1155827
-1155634
-1156210
-1157076
-1157332
-1156827
-1156647
-1157291
-1158215
-1158388
-1157788
-1157488
-1158219
-1159111
-1159182
-1158643
-1158399
-1159137
-1160033
-1160166
-1159520
-1159403
-1159997
-1160981
-1161049
-1160548
-1160294
-1161012
-1161853
-1162088
-1161571
-1161168
-1161844
-1162645
-1162920
-1162412
-1162171
-1162813
-1163414
-1163926
-1163438
-1163221
-1164788
-1165063
-1164397
-1164274
-1164930
-1165979
-1165916
-1165533
-1165276
-1165942
-1166911
-1167027
-1166434
-1166325
-1166935
-1167977
-1168064
-1167600
-1167421
-1168144
-1169103
-1169166
-1168692
-1168144
-1169014
-1169951
-1170074
-1169698
-1169332
-1170086
-1170948
-1171098
-1170649
-1170449
-1171076
-1171998
-1172017
-1171552
-1171533
-1172140
-1173054
-1173096
-1172561
-1172362
-1173154
-1174148
-1174108
-1173499
-1173271
-1174003
-1174475
-1174705
-1174179
-1173832
-1174451
-1175063
-1175049
-1174117
-1173597
-1173740
-1174097
-1173767
-1172500
-1171461
-1171428
-1171516
-1170414
-1168775
-1167645
-1167233
-1167067
-1165556
-1163831
-1162401
-1161826
-1161304
-1160096
-1158199
-1156703
-1156056
-1155603
-1154373
-1152284
-1150906
-1151219
-1150245
-1148694
-1146880
-1145510
-1144933
-1144645
-1143439
-1141722
-1140436
-1140063
-1139953
-1138822
-1137188
-1135967
-1135656
-1135514
-1134671
-1132998
-1131774
-1131578
-1131585
-1130519
-1129254
-1128111
-1127942
-1127984
-1127178
-1125769
-1124847
-1124611
-1124661
-1123908
-1122612
-1121656
-1121472
-1121603
-1120921
-1119611
-1118729
-1118743
-1118928
-1118294
-1117086
-1116272
-1116308
-1116515
-1115981
-1114900
-1114152
-1114238
-1114387
-1113859
-1112919
-1112240
-1112444
-1112621
-1112351
-1111202
-1110678
-1110811
-1111397
-1110844
-1109951
-1109383
-1109808
-1110072
-1108858
-1108428
-1108836
-1109313
-1109116
-1108036
-1107692
-1108135
-1108790
-1108465
-1107755
-1107375
-1107854
-1108512
-1108415
-1107675
-1107314
-1108033
-1108676
-1108537
-1108014
-1107783
-1108387
-1109247
-1109263
-1108685
-1108553
-1109289
-1110147
-1110292
-1109683
-1109512
-1110217
-1111216
-1111309
-1110814
-1110700
-1111349
-1112295
-1112242
-1111845
-1111730
-1112408
-1114242
-1113703
-1113042
-1112825
-1113603
-1114401
-1114516
-1114002
-1113909
-1114594
-1115485
-1115517
-1114929
-1114821
-1115426
-1116379
-1116283
-1115769
-1115597
-1116251
-1117131
-1116750
-1116382
-1116372
-1117103
-1117974
-1117796
-1117296
-1117140
-1117830
-1118649
-1118598
-1118050
-1117855
-1118441
-1119255
-1119363
-1118681
-1118631
-1119307
-1120090
-1119999
-1119468
-1119231
-1120002
-1120703
-1120647
-1120150
-1119885
-1120508
-1121387
-1121350
-1120820
-1120611
-1121151
-1121990
-1122075
-1121544
-1121366
-1122204
-1122964
-1122973
-1122332
-1122318
-1123115
-1123848
-1123782
-1123087
-1123100
-1123968
-1124832
-1124729
-1124200
-1124150
-1124914
-1125836
-1125840
-1125248
-1125065
-1125978
-1126876
-1126860
-1126238
-1126263
-1126993
-1127867
-1127860
-1127372
-1127218
-1128056
-1128963
-1128754
-1128289
-1128321
-1129051
-1129923
-1129941
-1129380
-1129316
-1130124
-1131033
-1131076
-1130508
-1130390
-1131343
-1132165
-1132139
-1131655
-1131681
-1132286
-1133247
-1133294
-1132751
-1132802
-1133425
-1134403
-1134442
-1133852
-1133664
-1134479
-1135383
-1135435
-1134891
-1134856
-1135748
-1136476
-1136439
-1135940
-1135888
-1136809
-1137685
-1137519
-1136951
-1136984
-1137745
-1138568
-1138600
-1138169
-1138034
-1138822
-1139814
-1139771
-1139252
-1139229
-1140076
-1140847
-1140493
-1140210
-1140293
-1140995
-1141901
-1141784
-1141274
-1141256
-1142147
-1142940
-1143017
-1142434
-1142343
-1143168
-1144060
-1143933
-1143512
-1143538
-1144357
-1145092
-1145073
-1144549
-1144652
-1145475
-1146280
-1146040
-1145580
-1145593
-1146392
-1147327
-1147278
-1146708
-1146754
-1147678
-1148432
-1148170
-1147650
-1147752
-1148604
-1149487
-1149357
-1148728
-1148876
-1149666
-1150493
-1150265
-1149703
-1149899
-1150686
-1151624
-1151508
-1150959
-1150921
-1151690
-1152556
-1152512
-1151932
-1151964
-1152743
-1153595
-1153518
-1152917
-1152975
-1153667
-1154546
-1154419
-1153835
-1153769
-1154553
-1155463
-1155371
-1154807
-1154796
-1155646
-1156442
-1156220
-1155532
-1155694
-1156481
-1157205
-1157132
-1156462
-1156527
-1157402
-1158203
-1157892
-1157473
-1157401
-1158104
-1158993
-1158751
-1158238
-1158328
-1159060
-1159786
-1159678
-1159035
-1159227
-1160143
-1161008
-1160663
-1160165
-1160131
-1161001
-1161883
-1161711
-1160976
-1161099
-1162015
-1162714
-1162543
-1162128
-1162188
-1162838
-1163792
-1163579
-1163124
-1163253
-1164061
-1164886
-1164639
-1164164
-1164240
-1165024
-1165945
-1165766
-1165194
-1165234
-1166193
-1166936
-1166643
-1166222
-1166351
-1167282
-1167909
-1167840
-1168267
-1168937
-1168749
-1168036
-1168222
-1169310
-1170085
-1169962
-1169389
-1169361
-1170192
-1170997
-1171042
-1170309
-1170360
-1171300
-1171927
-1171692
-1171231
-1171307
-1172046
-1172822
-1172450
-1171726
-1171734
-1172323
-1172403
-1171462
-1171188
-1171386
-1171585
-1170689
-1169355
-1168612
-1168449
-1168238
-1167058
-1165321
-1164368
-1164084
-1163583
-1162062
-1160096
-1158997
-1158401
-1157977
-1156313
-1154491
-1153200
-1152801
-1152117
-1150697
-1148863
-1147706
-1147346
-1146685
-1145267
-1143518
-1142489
-1142082
-1141672
-1140380
-1138697
-1137793
-1137610
-1137217
-1135947
-1134330
-1133513
-1133379
-1133198
-1132054
-1130535
-1129682
-1129693
-1129495
-1128333
-1127003
-1126304
-1126233
-1126152
-1125148
-1123885
-1123237
-1123230
-1123135
-1122396
-1121035
-1120367
-1120598
-1120607
-1119754
-1118464
-1117852
-1118139
-1118208
-1117389
-1116020
-1115555
-1115775
-1115901
-1115227
-1114209
-1113747
-1114025
-1114200
-1113475
-1112384
-1112189
-1112379
-1112749
-1112000
-1111090
-1110756
-1111137
-1111551
-1110909
-1110023
-1109821
-1110115
-1110425
-1109811
-1109036
-1108939
-1109542
-1109907
-1109356
-1108666
-1108547
-1109148
-1109654
-1109191
-1108557
-1108483
-1109201
-1109678
-1109361
-1108774
-1108729
-1109583
-1110045
-1109924
-1109395
-1109423
-1110275
-1110908
-1110539
-1110012
-1110293
-1111261
-1112011
-1111663
-1111127
-1111411
-1112248
-1113007
-1112744
-1112341
-1112662
-1113411
-1114202
-1114007
-1113489
-1113604
-1114366
-1115161
-1114855
-1114315
-1114548
-1115392
-1116031
-1115738
-1115116
-1115332
-1116305
-1116800
-1116593
-1115976
-1116075
-1116866
-1117537
-1117240
-1116689
-1116947
-1118520
-1118663
-1118080
-1117465
-1117669
-1118508
-1118949
-1118716
-1118108
-1118436
-1119269
-1119935
-1119620
-1118981
-1119220
-1120114
-1120707
-1120446
-1119882
-1120067
-1121390
-1121152
-1120623
-1120899
-1121494
-1122263
-1122117
-1122337
-1122060
-1122709
-1123271
-1122864
-1122450
-1122759
-1123461
-1124224
-1124051
-1123356
-1123678
-1124479
-1125159
-1124872
-1124370
-1124621
-1125380
-1126128
-1125829
-1125318
-1125542
-1126331
-1127021
-1126727
-1126237
-1126503
-1127289
-1127940
-1127734
-1127355
-1127462
-1128311
-1128972
-1128719
-1128197
-1128545
-1129366
-1129989
-1129712
-1129148
-1129461
-1130292
-1131063
-1130809
-1130339
-1130627
-1131487
-1132110
-1131713
-1131295
-1131649
-1132379
-1133031
-1132814
-1132311
-1132571
-1133490
-1134096
-1133756
-1133395
-1133602
-1134512
-1135045
-1134857
-1134240
-1134613
-1135614
-1136268
-1135988
-1135381
-1135623
-1136519
-1137131
-1136929
-1136332
-1136626
-1137498
-1138249
-1137940
-1137522
-1137800
-1138765
-1139336
-1139071
-1138455
-1138429
-1139644
-1140326
-1139991
-1139575
-1139931
-1140841
-1141517
-1141237
-1140616
-1140827
-1141741
-1142434
-1142150
-1141557
-1141932
-1142917
-1143470
-1143158
-1142804
-1143013
-1143976
-1144580
-1144249
-1143678
-1144127
-1144895
-1145584
-1145339
-1144728
-1145030
-1145905
-1146629
-1146222
-1145803
-1145995
-1147020
-1147575
-1147287
-1146875
-1147150
-1148155
-1148735
-1148392
-1148003
-1148280
-1149143
-1149722
-1149349
-1148734
-1149190
-1150088
-1150666
-1150285
-1149827
-1150133
-1151119
-1151796
-1151468
-1150939
-1151316
-1152207
-1152762
-1152253
-1151726
-1152069
-1152982
-1153671
-1153432
-1152765
-1153266
-1154041
-1154666
-1154404
-1153768
-1154117
-1154979
-1155645
-1155144
-1154802
-1155084
-1155920
-1155593
-1155879
-1156950
-1157463
-1157091
-1156600
-1156758
-1157724
-1158198
-1157851
-1157402
-1157690
-1158680
-1159142
-1158670
-1158203
-1158608
-1159589
-1160192
-1159792
-1159313
-1159684
-1160438
-1160920
-1160531
-1160029
-1160524
-1161534
-1161996
-1161611
-1161131
-1161540
-1162528
-1162913
-1162516
-1162067
-1162544
-1163353
-1164012
-1163555
-1163198
-1163630
-1164492
-1165091
-1164586
-1164201
-1164434
-1165440
-1166044
-1165739
-1165181
-1165457
-1166191
-1166606
-1165866
-1166554
-1167465
-1168129
-1167219
-1167628
-1168568
-1169153
-1168726
-1168281
-1168682
-1169608
-1170031
-1169628
-1169232
-1169636
-1170664
-1171064
-1170644
-1170045
-1170528
-1171491
-1172120
-1171762
-1171282
-1171641
-1172473
-1173112
-1172644
-1172106
-1172347
-1173209
-1173531
-1172872
-1172339
-1172513
-1173129
-1173205
-1172376
-1171340
-1171308
-1171518
-1171185
-1169953
-1168637
-1168059
-1168003
-1167413
-1165923
-1164307
-1163379
-1163216
-1162482
-1160639
-1158948
-1157944
-1157517
-1156834
-1154918
-1153118
-1152252
-1151889
-1151054
-1149217
-1147609
-1146819
-1146554
-1145819
-1144151
-1142552
-1141692
-1141586
-1140974
-1139508
-1137938
-1137296
-1137058
-1136642
-1135214
-1133671
-1133104
-1133169
-1132656
-1131374
-1129937
-1129514
-1129517
-1128971
-1127609
-1126455
-1126024
-1126210
-1125724
-1124469
-1123246
-1122883
-1123057
-1122773
-1121611
-1120385
-1120153
-1120244
-1120000
-1118915
-1117879
-1117640
-1117902
-1117520
-1116213
-1115419
-1115397
-1115705
-1115514
-1114541
-1113578
-1113461
-1113926
-1113695
-1112754
-1111834
-1111877
-1112220
-1112250
-1111359
-1110505
-1110572
-1110997
-1110956
-1110084
-1109303
-1109484
-1110011
-1109901
-1109219
-1108517
-1108807
-1109263
-1109462
-1108715
-1108150
-1108278
-1108881
-1109079
-1108577
-1107987
-1108147
-1109048
-1109270
-1108741
-1108204
-1108591
-1109447
-1109704
-1109218
-1108820
-1109161
-1110073
-1110455
-1110162
-1109661
-1110192
-1111122
-1111538
-1111181
-1110623
-1111181
-1112202
-1112800
-1112357
-1111952
-1112496
-1113478
-1113835
-1113393
-1113227
-1113738
-1114505
-1114934
-1114527
-1114045
-1114758
-1115649
-1115945
-1115497
-1115116
-1115709
-1116502
-1116933
-1116493
-1115928
-1116445
-1117380
-1117701
-1117271
-1116755
-1117408
-1118227
-1118494
-1118001
-1117518
-1118028
-1118882
-1119319
-1118829
-1118415
-1118846
-1119796
-1120172
-1119753
-1119404
-1119772
-1120609
-1120947
-1120599
-1120232
-1120712
-1121520
-1121818
-1121354
-1121042
-1121603
-1122382
-1122785
-1122378
-1122068
-1122544
-1123397
-1123822
-1123338
-1122879
-1123419
-1124256
-1124728
-1124203
-1123826
-1124335
-1125284
-1125606
-1125029
-1124782
-1125226
-1126235
-1126540
-1126068
-1125788
-1126262
-1127089
-1128375
-1127431
-1126849
-1127176
-1128230
-1128484
-1128027
-1127683
-1128025
-1129216
-1129592
-1129119
-1128846
-1129415
-1130261
-1130508
-1130233
-1129909
-1130390
-1131306
-1131746
-1131382
-1131047
-1131466
-1132438
-1132785
-1132421
-1132064
-1132611
-1133498
-1133892
-1133368
-1133146
-1133798
-1134580
-1135024
-1134678
-1134381
-1134818
-1135709
-1136086
-1135588
-1135380
-1135950
-1136906
-1137301
-1136800
-1136535
-1137106
-1138089
-1138472
-1137968
-1137602
-1138266
-1139525
-1139127
-1138714
-1139403
-1140280
-1140638
-1140212
-1139892
-1140522
-1141439
-1141695
-1141300
-1140830
-1141559
-1142544
-1142783
-1142413
-1141962
-1142667
-1143555
-1143844
-1143422
-1143167
-1143721
-1144748
-1145052
-1144451
-1144181
-1144833
-1145737
-1146042
-1145572
-1145381
-1145929
-1146831
-1147235
-1146715
-1146338
-1146945
-1147830
-1148089
-1147666
-1147322
-1148116
-1148928
-1149256
-1148891
-1148591
-1149241
-1150140
-1150322
-1149891
-1149572
-1150255
-1151062
-1151428
-1150996
-1150585
-1151223
-1152251
-1152531
-1152039
-1151770
-1152292
-1153167
-1153411
-1153086
-1152694
-1153325
-1154226
-1154460
-1154044
-1153667
-1154398
-1155239
-1155520
-1155007
-1154728
-1155239
-1156165
-1156487
-1156073
-1155684
-1156314
-1157305
-1157417
-1156922
-1156725
-1157141
-1158158
-1158325
-1157884
-1157643
-1158204
-1158948
-1159288
-1158766
-1158362
-1158957
-1159997
-1160224
-1159734
-1159411
-1159915
-1160869
-1162043
-1160885
-1160354
-1160517
-1161793
-1162032
-1161666
-1161423
-1161958
-1162936
-1163241
-1162685
-1162312
-1163016
-1163886
-1164001
-1163491
-1164024
-1164099
-1165032
-1165256
-1164631
-1164404
-1165031
-1165863
-1166052
-1165700
-1165424
-1166046
-1167054
-1167291
-1166797
-1166652
-1167196
-1168135
-1168315
-1167839
-1167443
-1168130
-1169135
-1169499
-1168881
-1168562
-1169202
-1170129
-1170351
-1169916
-1169567
-1170132
-1171116
-1171528
-1170993
-1170728
-1171375
-1172270
-1172609
-1171860
-1171724
-1172449
-1173281
-1173389
-1172871
-1172540
-1173201
-1174216
-1174199
-1173670
-1173296
-1173606
-1174655
-1174789
-1174067
-1173546
-1173752
-1174295
-1174168
-1173106
-1172254
-1172167
-1172234
-1171723
-1170359
-1169101
-1168662
-1168565
-1167710
-1165901
-1164458
-1163749
-1163513
-1162481
-1160530
-1158776
-1158144
-1157825
-1156572
-1154825
-1153178
-1152501
-1152070
-1150812
-1149002
-1147638
-1147057
-1146686
-1145581
-1143894
-1142517
-1141950
-1141771
-1140820
-1139217
-1137882
-1137446
-1137169
-1136323
-1134841
-1133573
-1133230
-1133294
-1132321
-1130926
-1129822
-1129564
-1129526
-1128801
-1127270
-1126168
-1125947
-1125974
-1125240
-1123946
-1122958
-1122673
-1122795
-1122307
-1121032
-1120096
-1119965
-1119971
-1119431
-1118305
-1117244
-1117153
-1117337
-1116917
-1115766
-1115048
-1115441
-1114731
-1113670
-1112703
-1112941
-1113360
-1113007
-1111968
-1111153
-1111351
-1111704
-1111412
-1110434
-1109585
-1109856
-1110215
-1109756
-1108792
-1108249
-1108613
-1108988
-1108813
-1107855
-1107341
-1107618
-1108216
-1107865
-1106992
-1106387
-1106546
-1106949
-1106084
-1104899
-1104068
-1104433
-1105336
-1105505
-1104871
-1104782
-1105297
-1106085
-1106043
-1105367
-1104992
-1105639
-1106217
-1106380
-1105942
-1105706
-1106452
-1107364
-1107598
-1107215
-1107018
-1107757
-1108670
-1108842
-1108364
-1108043
-1108848
-1109644
-1109855
-1109369
-1109260
-1110216
-1111021
-1111087
-1110390
-1110505
-1111261
-1112052
-1112090
-1111633
-1111592
-1112113
-1113057
-1113099
-1112675
-1112507
-1112884
-1113936
-1114148
-1113563
-1113485
-1114020
-1114798
-1114886
-1114429
-1114207
-1114869
-1115712
-1115764
-1115156
-1115115
-1115742
-1116302
-1116501
-1116082
-1115898
-1116655
-1117448
-1117415
-1116915
-1116763
-1117570
-1118396
-1118482
-1117811
-1117751
-1118440
-1119342
-1119352
-1118791
-1118730
-1119339
-1120866
-1120484
-1119873
-1119701
-1120367
-1121180
-1121132
-1120756
-1120793
-1121581
-1122466
-1122661
-1122192
-1121998
-1122836
-1123676
-1123635
-1123019
-1123033
-1123597
-1124594
-1124708
-1124167
-1124026
-1124701
-1125501
-1125584
-1125026
-1124982
-1125742
-1126647
-1126568
-1125968
-1125897
-1126691
-1127645
-1127685
-1127114
-1127019
-1127757
-1128781
-1128677
-1128186
-1128235
-1128767
-1129722
-1129711
-1129188
-1129157
-1129796
-1130692
-1130980
-1130318
-1130185
-1131060
-1131838
-1131986
-1131360
-1131298
-1132178
-1132954
-1133155
-1132537
-1132335
-1133126
-1134155
-1134131
-1133651
-1133509
-1134309
-1135146
-1135332
-1134667
-1134512
-1135427
-1136333
-1135841
-1135668
-1135563
-1136403
-1137378
-1137400
-1136932
-1136776
-1137540
-1138457
-1138570
-1137997
-1137940
-1138680
-1140287
-1139886
-1139189
-1139072
-1139900
-1140800
-1140756
-1140239
-1140147
-1140923
-1141816
-1141748
-1141418
-1141025
-1141686
-1142710
-1142786
-1142269
-1142102
-1142966
-1143925
-1143918
-1143382
-1143361
-1144059
-1145032
-1145112
-1144411
-1144420
-1145267
-1146006
-1146066
-1145381
-1145494
-1146174
-1147067
-1147084
-1146526
-1146459
-1147128
-1148074
-1148010
-1147416
-1147374
-1148260
-1149032
-1149008
-1148452
-1148375
-1149326
-1150023
-1150109
-1149475
-1149527
-1150136
-1151122
-1151064
-1150597
-1150512
-1151242
-1152158
-1152106
-1151399
-1151571
-1152220
-1153232
-1153054
-1152389
-1152379
-1153225
-1154003
-1154018
-1153635
-1153573
-1154417
-1155099
-1155186
-1154659
-1154610
-1155377
-1156138
-1155974
-1155349
-1155339
-1155997
-1156753
-1156472
-1156002
-1156065
-1156801
-1157664
-1157496
-1157020
-1157183
-1157859
-1158606
-1158655
-1158151
-1158053
-1158888
-1159672
-1159724
-1158923
-1158887
-1159626
-1160536
-1160484
-1159998
-1159929
-1160680
-1161607
-1161524
-1160995
-1161052
-1161675
-1162515
-1162460
-1161967
-1161981
-1162659
-1163683
-1163613
-1162930
-1162904
-1163802
-1164673
-1164448
-1163990
-1163982
-1164773
-1165534
-1165410
-1164938
-1164881
-1165778
-1166707
-1166494
-1165888
-1165749
-1166713
-1167706
-1167571
-1167107
-1167115
-1167998
-1168783
-1168710
-1168162
-1168061
-1168993
-1169796
-1169644
-1169094
-1169139
-1170032
-1170784
-1170721
-1170006
-1169998
-1170904
-1171706
-1171434
-1170805
-1170812
-1171711
-1172506
-1172350
-1171810
-1171729
-1172270
-1172893
-1172693
-1171771
-1172298
-1171583
-1170377
-1169773
-1169747
-1169815
-1168612
-1167282
-1166344
-1166051
-1165787
-1164506
-1162584
-1161060
-1160781
-1160450
-1158845
-1157033
-1155667
-1155237
-1154553
-1153125
-1151230
-1149688
-1149371
-1148938
-1147535
-1145743
-1144436
-1144098
-1143683
-1142363
-1140498
-1139335
-1139086
-1138712
-1137620
-1135987
-1135003
-1134729
-1134395
-1133141
-1131653
-1130634
-1130614
-1130428
-1129283
-1127758
-1127072
-1126974
-1126808
-1125749
-1124099
-1123584
-1124055
-1123565
-1122515
-1121115
-1120325
-1120378
-1120335
-1119525
-1118093
-1117580
-1117657
-1117636
-1116782
-1115549
-1115082
-1115210
-1115427
-1114609
-1114082
-1112992
-1113182
-1113323
-1112485
-1111398
-1111030
-1111166
-1111363
-1110829
-1109712
-1109338
-1109677
-1109926
-1109216
-1108328
-1107919
-1108307
-1108594
-1108080
-1107221
-1106893
-1107431
-1107716
-1107289
-1106461
-1106166
-1106694
-1107041
-1106704
-1105831
-1105783
-1106386
-1106822
-1106446
-1105659
-1105565
-1106228
-1107025
-1106578
-1105975
-1106002
-1106728
-1107470
-1107207
-1106618
-1106691
-1107456
-1108096
-1107947
-1107556
-1107586
-1108567
-1109324
-1109224
-1108570
-1108787
-1109576
-1110373
-1110107
-1109585
-1109769
-1110565
-1111329
-1111336
-1110720
-1110765
-1111784
-1112537
-1112330
-1111670
-1111899
-1112642
-1113401
-1113076
-1112633
-1112824
-1113638
-1114341
-1114105
-1113611
-1113788
-1114512
-1115069
-1114817
-1114355
-1114309
-1115030
-1115936
-1115866
-1115355
-1115390
-1116172
-1116822
-1116635
-1115982
-1116011
-1116968
-1117542
-1117399
-1116788
-1116941
-1117762
-1118502
-1118178
-1117631
-1117843
-1118605
-1119342
-1119127
-1118591
-1118729
-1119577
-1120209
-1119838
-1119292
-1119611
-1120479
-1121167
-1120933
-1120359
-1120447
-1121268
-1122026
-1121876
-1121340
-1121561
-1122348
-1122996
-1122600
-1122214
-1122321
-1123134
-1123899
-1123656
-1123107
-1123266
-1124158
-1125042
-1124632
-1124219
-1124358
-1125188
-1125955
-1125819
-1125054
-1125464
-1126265
-1127007
-1126725
-1126181
-1126423
-1127260
-1128075
-1127849
-1127231
-1127584
-1128345
-1129040
-1128894
-1128318
-1128502
-1129460
-1130170
-1129800
-1129238
-1129674
-1130578
-1131368
-1130988
-1130475
-1130728
-1131619
-1132292
-1132100
-1131474
-1132713
-1132919
-1133988
-1133369
-1132780
-1132943
-1133850
-1134435
-1134128
-1133321
-1133880
-1134803
-1135528
-1135346
-1134890
-1135086
-1135894
-1136728
-1136570
-1135990
-1136258
-1137210
-1137898
-1137553
-1137011
-1137117
-1138119
-1138753
-1138499
-1138035
-1138297
-1139092
-1139848
-1139533
-1138981
-1139343
-1140236
-1140998
-1140745
-1140201
-1140437
-1141265
-1141902
-1141611
-1141250
-1141367
-1142336
-1143063
-1142761
-1141862
-1142506
-1143518
-1144032
-1143915
-1143321
-1143616
-1144423
-1145202
-1144912
-1144270
-1144651
-1145480
-1145995
-1145834
-1145365
-1145528
-1146492
-1147109
-1146787
-1146297
-1146696
-1147458
-1148180
-1147843
-1147340
-1147620
-1148623
-1149229
-1149000
-1148470
-1148609
-1149621
-1150279
-1150033
-1149527
-1149673
-1150613
-1151170
-1150571
-1150336
-1150720
-1151703
-1152304
-1152085
-1151428
-1151703
-1152709
-1153218
-1152806
-1152361
-1152476
-1153519
-1154146
-1153590
-1153170
-1153473
-1154519
-1155146
-1154765
-1154280
-1154611
-1155297
-1155994
-1155756
-1155161
-1155433
-1156305
-1156821
-1156511
-1156839
-1156487
-1157279
-1157764
-1157388
-1156738
-1156976
-1157978
-1158569
-1158225
-1157668
-1157978
-1158769
-1159332
-1158996
-1158518
-1158886
-1159684
-1159973
-1159756
-1159250
-1159657
-1160621
-1161307
-1160919
-1160294
-1160488
-1161593
-1162148
-1161847
-1161205
-1161527
-1162419
-1163050
-1162695
-1162137
-1162534
-1163290
-1164086
-1163772
-1163141
-1163491
-1164170
-1164923
-1164694
-1164237
-1164593
-1166166
-1166279
-1165832
-1165209
-1165619
-1166406
-1167048
-1166629
-1166252
-1166543
-1167427
-1168107
-1167734
-1166977
-1167443
-1168405
-1169005
-1168553
-1167928
-1168531
-1169500
-1170080
-1169714
-1169248
-1169568
-1170496
-1171136
-1170741
-1169919
-1170505
-1171381
-1171957
-1171673
-1171178
-1171455
-1172411
-1172874
-1172437
-1171966
-1172176
-1172857
-1173412
-1172961
-1172256
-1172355
-1172870
-1173060
-1172145
-1171138
-1170785
-1170959
-1170692
-1169624
-1168160
-1167542
-1167252
-1166815
-1165208
-1163585
-1162717
-1162399
-1161698
-1159972
-1158183
-1157132
-1156669
-1155733
-1154085
-1152387
-1151407
-1150938
-1150136
-1148448
-1146644
-1145787
-1145213
-1144743
-1143065
-1141387
-1140733
-1140406
-1140418
-1138457
-1136870
-1136176
-1135997
-1135433
-1134033
-1132506
-1131603
-1131761
-1131420
-1130088
-1128740
-1128142
-1128096
-1127751
-1126496
-1125050
-1124699
-1124780
-1124345
-1123062
-1121900
-1121502
-1121563
-1121351
-1120192
-1118947
-1118590
-1118837
-1118626
-1117438
-1116356
-1116097
-1116325
-1115786
-1114944
-1114068
-1113871
-1114126
-1113967
-1113009
-1112069
-1111828
-1112227
-1111877
-1111207
-1110434
-1110269
-1110830
-1110686
-1109815
-1108911
-1108988
-1109420
-1109595
-1108800
-1107919
-1108004
-1108439
-1108487
-1107797
-1107075
-1108006
-1107284
-1106681
-1106852
-1107523
-1107785
-1107230
-1106680
-1106898
-1107552
-1107890
-1107458
-1106623
-1107125
-1107973
-1108505
-1108116
-1107533
-1107989
-1109003
-1109037
-1108763
-1108469
-1109007
-1109805
-1110237
-1109883
-1109482
-1109998
-1110909
-1111254
-1110884
-1110476
-1110905
-1111905
-1112343
-1111901
-1111358
-1111845
-1112732
-1113232
-1112775
-1112419
-1112586
-1113501
-1114131
-1114835
-1113585
-1113761
-1114546
-1114882
-1114364
-1113990
-1114346
-1115288
-1115603
-1115222
-1114712
-1115187
-1115997
-1116290
-1115838
-1115533
-1115791
-1116677
-1117125
-1116698
-1116238
-1116718
-1117630
-1117924
-1117478
-1117028
-1117435
-1118256
-1118711
-1118222
-1117964
-1118426
-1119192
-1119647
-1119116
-1118692
-1119153
-1120141
-1120439
-1120002
-1119155
-1119949
-1121004
-1121284
-1120846
-1120438
-1120850
-1121859
-1122169
-1121848
-1121420
-1121984
-1122866
-1123254
-1122788
-1122403
-1122853
-1123778
-1124237
-1123700
-1123418
-1123798
-1124645
-1125087
-1124723
-1124336
-1124715
-1125735
-1126052
-1125564
-1125361
-1125684
-1126598
-1127818
-1126899
-1126323
-1126868
-1127633
-1128181
-1127749
-1127302
-1127882
-1128815
-1129176
-1128786
-1128304
-1128684
-1129445
-1129949
-1129525
-1129210
-1129842
-1130797
-1131173
-1130676
-1130381
-1130858
-1131884
-1132253
-1131850
-1131466
-1131994
-1132894
-1133298
-1132783
-1132418
-1133018
-1133996
-1134344
-1133874
-1133481
-1133999
-1134784
-1135247
-1134798
-1134436
-1134933
-1135963
-1136306
-1135943
-1135448
-1136164
-1137060
-1137343
-1136801
-1136366
-1137108
-1138134
-1138341
-1137995
-1137680
-1138232
-1139218
-1139420
-1139019
-1138780
-1139282
-1140175
-1140596
-1139969
-1139650
-1140169
-1141168
-1141471
-1140994
-1140777
-1141206
-1142158
-1142510
-1142006
-1141886
-1142425
-1143263
-1143648
-1143172
-1142779
-1143304
-1144149
-1144605
-1144147
-1143796
-1144400
-1145326
-1145718
-1145266
-1144900
-1145299
-1146073
-1146517
-1146062
-1145923
-1146505
-1147382
-1147648
-1147246
-1146826
-1147414
-1148374
-1148644
-1148304
-1147921
-1148377
-1149350
-1149712
-1149261
-1148833
-1149525
-1150449
-1150717
-1150354
-1149970
-1150502
-1151953
-1151887
-1151212
-1150965
-1151631
-1152533
-1152818
-1152351
-1152028
-1152550
-1153499
-1153656
-1153302
-1152989
-1153464
-1154482
-1154758
-1154193
-1153809
-1154451
-1155273
-1155523
-1155092
-1154815
-1155339
-1156356
-1156549
-1156620
-1155851
-1156259
-1157233
-1157530
-1156906
-1156586
-1157087
-1158046
-1157997
-1157649
-1157493
-1158084
-1158981
-1159179
-1158604
-1158234
-1158839
-1159809
-1160082
-1159504
-1159245
-1159761
-1160721
-1161028
-1160445
-1160062
-1160782
-1161627
-1161808
-1161316
-1161142
-1161666
-1162500
-1162805
-1162369
-1162193
-1162763
-1163556
-1163511
-1163143
-1162880
-1163726
-1164667
-1164799
-1164214
-1164084
-1164739
-1165530
-1165923
-1165209
-1165042
-1165665
-1166587
-1166854
-1166396
-1166210
-1166892
-1167796
-1167947
-1167373
-1167128
-1167909
-1168718
-1169017
-1168455
-1168196
-1168925
-1169743
-1170018
-1169488
-1169178
-1169962
-1170732
-1171101
-1170590
-1170221
-1170767
-1171641
-1171665
-1171302
-1171160
-1171837
-1172752
-1172851
-1172462
-1172007
-1172574
-1173524
-1173695
-1173082
-1172624
-1173227
-1174004
-1173655
-1173098
-1172575
-1172784
-1173152
-1172850
-1171763
-1170693
-1170614
-1170716
-1169922
-1168436
-1167203
-1166752
-1166526
-1165462
-1163741
-1162129
-1161498
-1161180
-1159983
-1158155
-1156569
-1155858
-1155409
-1154259
-1152391
-1150700
-1149947
-1149561
-1148541
-1146745
-1145208
-1144580
-1144097
-1143046
-1141249
-1139867
-1139474
-1139147
-1138237
-1136537
-1135322
-1134935
-1134812
-1133857
-1132260
-1130945
-1130766
-1130563
-1129776
-1128361
-1127051
-1126899
-1126828
-1125935
-1124504
-1123912
-1123431
-1123304
-1122684
-1121230
-1120299
-1120120
-1120110
-1119439
-1118197
-1117236
-1117018
-1116879
-1116515
-1115320
-1114479
-1115436
-1115073
-1114232
-1113077
-1112237
-1112232
-1112509
-1112113
-1110930
-1110120
-1110367
-1110653
-1110194
-1109159
-1108575
-1108640
-1109059
-1108676
-1107791
-1106933
-1107181
-1107691
-1107441
-1106497
-1105868
-1106189
-1106693
-1106539
-1105761
-1105204
-1105482
-1106066
-1105998
-1105095
-1104773
-1105155
-1105808
-1105689
-1104926
-1104445
-1105100
-1105972
-1105849
-1105277
-1104842
-1105537
-1106294
-1106401
-1105834
-1105582
-1106344
-1107202
-1107152
-1106675
-1106625
-1107376
-1108211
-1108317
-1107933
-1107770
-1108433
-1109416
-1109605
-1109187
-1109023
-1109733
-1110662
-1110819
-1110239
-1110146
-1110857
-1111778
-1111871
-1111463
-1111182
-1112032
-1112785
-1112898
-1112395
-1112376
-1112979
-1113739
-1113840
-1114023
-1114598
-1115490
-1115552
-1115024
-1114834
-1115560
-1116368
-1116494
-1115983
-1115726
-1116283
-1117259
-1117147
-1116740
-1116566
-1117313
-1118141
-1118798
-1117842
-1117577
-1118186
-1119027
-1119159
-1118463
-1118212
-1118950
-1119786
-1120007
-1119444
-1119220
-1119995
-1120763
-1120857
-1120354
-1120171
-1120865
-1121782
-1121754
-1121385
-1120967
-1121880
-1122815
-1122887
-1121940
-1122054
-1122918
-1123454
-1123643
-1123358
-1123149
-1123861
-1124752
-1124898
-1124262
-1124210
-1125008
-1125840
-1125884
-1125285
-1125275
-1125983
-1126899
-1126818
-1126405
-1126295
-1127091
-1127865
-1128054
-1127501
-1127446
-1128252
-1129114
-1130193
-1129619
-1129637
-1130348
-1131305
-1131346
-1130804
-1130622
-1131529
-1132474
-1132380
-1131813
-1131871
-1132611
-1133454
-1133551
-1133099
-1132970
-1133578
-1134181
-1134466
-1134122
-1134186
-1134816
-1135543
-1135731
-1135268
-1135282
-1135979
-1136763
-1136877
-1136443
-1136387
-1136814
-1137929
-1137860
-1137454
-1137467
-1138257
-1138980
-1139170
-1138495
-1138096
-1139162
-1140202
-1140253
-1139607
-1139666
-1140440
-1141252
-1141174
-1140766
-1140731
-1141533
-1142366
-1142374
-1141802
-1141860
-1142567
-1143217
-1143371
-1142857
-1142735
-1143423
-1144404
-1144164
-1143655
-1143419
-1143894
-1144233
-1143811
-1142479
-1142188
-1143013
-1144173
-1144384
-1143890
-1144024
-1144821
-1145436
-1145307
-1144541
-1144465
-1145243
-1145888
-1145793
-1145262
-1145342
-1146281
-1147396
-1147426
-1146801
-1146899
-1147638
-1148401
-1148226
-1147491
-1147536
-1148514
-1149337
-1149318
-1148826
-1148698
-1149669
-1150432
-1150452
-1149818
-1149741
-1150572
-1151374
-1151307
-1150767
-1150637
-1151396
-1152418
-1152292
-1151625
-1151836
-1152503
-1152935
-1153043
-1152683
-1152620
-1153484
-1154150
-1154180
-1153565
-1153513
-1154202
-1155149
-1155117
-1154514
-1154463
-1155189
-1156050
-1156019
-1155234
-1155331
-1156101
-1156877
-1156762
-1156362
-1156323
-1157054
-1157812
-1157880
-1157222
-1158069
-1158913
-1158850
-1158266
-1158246
-1158892
-1159766
-1159735
-1159210
-1159121
-1160084
-1160915
-1160682
-1160223
-1160259
-1161094
-1161899
-1161795
-1161189
-1161270
-1162014
-1162945
-1162503
-1162187
-1162260
-1163067
-1163893
-1163723
-1163181
-1163185
-1164128
-1164952
-1164781
-1164276
-1164400
-1165210
-1166079
-1165998
-1165320
-1165221
-1166196
-1166985
-1166810
-1166301
-1166299
-1167097
-1167929
-1167907
-1167370
-1167474
-1168337
-1169135
-1169056
-1168427
-1168423
-1169280
-1169972
-1169903
-1169298
-1169278
-1169914
-1170719
-1171517
-1170244
-1170119
-1170772
-1171449
-1171205
-1170331
-1169981
-1170483
-1170822
-1170312
-1169248
-1168599
-1168791
-1168765
-1167597
-1166314
-1165373
-1165150
-1164873
-1163617
-1161840
-1160718
-1160281
-1159781
-1158316
-1156317
-1155144
-1154514
-1153988
-1152459
-1150619
-1149289
-1148764
-1146643
-1142690
-1141186
-1138093
-1133565
-1130030
-1129057
-1128856
-1128671
-1127391
-1125898
-1125160
-1125057
-1124982
-1123675
-1122280
-1121456
-1121296
-1121252
-1120232
-1118699
-1118109
-1118052
-1118031
-1117076
-1115770
-1114956
-1114951
-1114924
-1114156
-1112895
-1112292
-1112418
-1112380
-1111568
-1110365
-1109759
-1110063
-1110057
-1109321
-1108192
-1107848
-1107934
-1108064
-1107490
-1106347
-1105929
-1106310
-1106487
-1105829
-1104914
-1104711
-1104978
-1105328
-1104690
-1103633
-1103402
-1103883
-1104058
-1103650
-1102691
-1102621
-1103074
-1103397
-1102921
-1102141
-1101998
-1102615
-1103136
-1102666
-1101804
-1101737
-1102430
-1102958
-1102678
-1101932
-1101881
-1102648
-1103315
-1103066
-1102495
-1103112
-1103497
-1103998
-1103848
-1103244
-1103467
-1104336
-1105010
-1104917
-1104549
-1104711
-1105550
-1106270
-1105841
-1105578
-1105940
-1106797
-1107415
-1107339
-1106806
-1107075
-1107848
-1108563
-1108479
-1108017
-1108138
-1109034
-1109842
-1109665
-1109043
-1109230
-1109961
-1110693
-1110451
-1109954
-1110276
-1111135
-1111823
-1111179
-1110915
-1111080
-1111909
-1112582
-1112365
-1111923
-1112103
-1112763
-1113542
-1113218
-1112709
-1112935
-1113803
-1114429
-1114181
-1113526
-1113673
-1114670
-1115237
-1114983
-1114374
-1114601
-1115427
-1116062
-1115813
-1115406
-1115510
-1116350
-1117002
-1116827
-1116224
-1116474
-1117350
-1118000
-1117755
-1117122
-1117412
-1118261
-1118818
-1118570
-1118005
-1118325
-1119240
-1119551
-1119518
-1118577
-1119080
-1120047
-1120700
-1120634
-1120090
-1120453
-1121147
-1121708
-1121535
-1121060
-1121421
-1122241
-1122817
-1122498
-1122127
-1122350
-1123229
-1123816
-1123644
-1122990
-1123408
-1124201
-1124971
-1124678
-1124220
-1124610
-1125405
-1126082
-1125800
-1125314
-1125664
-1126235
-1127134
-1126838
-1126346
-1126595
-1127522
-1128265
-1127948
-1127596
-1127957
-1128638
-1129354
-1129129
-1128633
-1128954
-1129715
-1130475
-1130130
-1130015
-1131616
-1131329
-1130776
-1131165
-1131961
-1132616
-1132346
-1132353
-1132401
-1133299
-1133926
-1133493
-1133061
-1133309
-1134283
-1134938
-1134729
-1134158
-1134372
-1135352
-1136094
-1135543
-1135101
-1135505
-1136392
-1137003
-1136697
-1136315
-1136594
-1137564
-1138028
-1137838
-1137356
-1137737
-1138481
-1139277
-1138912
-1138314
-1138620
-1139585
-1140344
-1140021
-1139498
-1139745
-1140730
-1141390
-1141067
-1140711
-1141081
-1142304
-1142666
-1142228
-1141718
-1142103
-1143069
-1143590
-1143232
-1142787
-1143252
-1144133
-1144664
-1144419
-1143904
-1144185
-1145033
-1145754
-1145391
-1144973
-1145223
-1146296
-1146519
-1146465
-1145978
-1146083
-1147235
-1147800
-1147532
-1147104
-1147393
-1148497
-1149078
-1148636
-1148273
-1148628
-1149559
-1150057
-1149741
-1149163
-1149506
-1150588
-1151071
-1150719
-1150217
-1150620
-1151618
-1152052
-1151706
-1150953
-1151505
-1152522
-1153211
-1153898
-1152575
-1152745
-1153635
-1154147
-1153767
-1153224
-1153472
-1154361
-1155103
-1154609
-1154169
-1154614
-1155506
-1155946
-1155453
-1155049
-1155327
-1156313
-1156800
-1156492
-1155929
-1156431
-1157261
-1157680
-1157446
-1156859
-1157161
-1158206
-1158734
-1158292
-1157760
-1158164
-1159192
-1159666
-1159367
-1158867
-1159182
-1160136
-1160665
-1160274
-1159710
-1160120
-1160968
-1161486
-1161244
-1160805
-1160778
-1161978
-1162559
-1162278
-1161867
-1162156
-1162995
-1163506
-1163295
-1162684
-1163828
-1164316
-1164589
-1164273
-1163870
-1164215
-1165051
-1165625
-1165194
-1164848
-1165202
-1166055
-1166642
-1166286
-1165734
-1166230
-1167188
-1167639
-1167255
-1166879
-1167246
-1168228
-1168742
-1168292
-1167919
-1168129
-1169007
-1169690
-1169247
-1168792
-1169277
-1170113
-1170672
-1170124
-1169743
-1170038
-1170932
-1171454
-1170957
-1170569
-1170906
-1171681
-1172111
-1171538
-1170808
-1170924
-1171494
-1171658
-1170752
-1169977
-1169848
-1170003
-1169894
-1168455
-1167187
-1166592
-1166586
-1165830
-1164416
-1162533
-1162085
-1161589
-1160903
-1159152
-1157543
-1156681
-1156123
-1155313
-1153474
-1151808
-1150720
-1150254
-1149408
-1147611
-1145863
-1145068
-1144596
-1144002
-1142325
-1140573
-1139840
-1139485
-1138863
-1137342
-1135839
-1135173
-1134965
-1134179
-1132798
-1131395
-1130725
-1130488
-1129956
-1128613
-1127190
-1126773
-1126731
-1126258
-1124852
-1123379
-1123026
-1123131
-1122697
-1121362
-1120061
-1119610
-1119647
-1119434
-1118164
-1116997
-1116655
-1116983
-1116684
-1115432
-1114375
-1114196
-1114448
-1114103
-1113965
-1112293
-1111870
-1112092
-1111980
-1110942
-1109996
-1109833
-1110232
-1110040
-1108940
-1108154
-1108081
-1108632
-1108664
-1107759
-1106764
-1106900
-1107349
-1107289
-1106377
-1105693
-1105846
-1106293
-1106471
-1105595
-1104927
-1105180
-1105635
-1105647
-1105107
-1104480
-1104692
-1105470
-1105609
-1104945
-1104365
-1104652
-1105518
-1105738
-1105251
-1104641
-1105091
-1105862
-1106243
-1105676
-1105333
-1105899
-1106750
-1107162
-1106770
-1106274
-1106900
-1107923
-1108263
-1107773
-1107517
-1107996
-1108949
-1109457
-1109014
-1108567
-1109141
-1110033
-1110432
-1110138
-1109768
-1110287
-1111308
-1111813
-1111252
-1110993
-1111493
-1112372
-1112602
-1112270
-1111968
-1112338
-1113234
-1113647
-1113243
-1112801
-1113389
-1114228
-1114451
-1113967
-1113609
-1114227
-1115102
-1115372
-1114937
-1114421
-1115049
-1115803
-1116179
-1116256
-1115524
-1115817
-1116658
-1117042
-1116548
-1116178
-1116723
-1117714
-1118021
-1117382
-1116976
-1117585
-1118311
-1118775
-1118304
-1117939
-1118321
-1119328
-1119584
-1119171
-1118766
-1119381
-1120246
-1120519
-1120112
-1119782
-1120245
-1121109
-1121305
-1120912
-1120605
-1121224
-1122010
-1122429
-1121896
-1121661
-1122060
-1123051
-1123207
-1122750
-1122496
-1123056
-1123912
-1124287
-1123674
-1123345
-1123986
-1124797
-1125036
-1124683
-1124454
-1124914
-1125939
-1126135
-1125717
-1125035
-1125785
-1126736
-1127048
-1126642
-1126312
-1126988
-1127819
-1128119
-1127800
-1127354
-1127953
-1128885
-1129094
-1128659
-1128409
-1129010
-1129907
-1130371
-1129811
-1129557
-1130100
-1131105
-1131420
-1130945
-1130530
-1131206
-1132192
-1132464
-1131932
-1131667
-1132315
-1133134
-1133566
-1133099
-1132671
-1133161
-1134226
-1134192
-1133894
-1133734
-1134388
-1135144
-1135531
-1135063
-1134678
-1135349
-1136341
-1136479
-1136005
-1135829
-1136451
-1137411
-1137693
-1137213
-1136812
-1137423
-1138452
-1138703
-1138233
-1137881
-1138572
-1139484
-1139881
-1139742
-1139088
-1139625
-1140493
-1140856
-1140426
-1140110
-1141367
-1141916
-1141938
-1141324
-1141069
-1141748
-1142576
-1142738
-1142356
-1142144
-1142704
-1143686
-1144002
-1143439
-1143188
-1143753
-1144546
-1144787
-1144364
-1144094
-1144765
-1145753
-1145835
-1145441
-1145238
-1145858
-1146806
-1146987
-1146569
-1146204
-1146757
-1147785
-1147801
-1147471
-1147233
-1147851
-1148787
-1148960
-1148462
-1148258
-1149855
-1149965
-1149945
-1149399
-1149128
-1149705
-1150766
-1150880
-1150416
-1150189
-1150862
-1151749
-1151969
-1151387
-1151193
-1151667
-1152648
-1152867
-1152345
-1152168
-1152642
-1153572
-1153607
-1153188
-1152886
-1153582
-1154400
-1154479
-1153979
-1153656
-1154302
-1155189
-1155273
-1154846
-1154472
-1155115
-1156008
-1156264
-1155600
-1155258
-1155927
-1156877
-1157015
-1156346
-1156104
-1156579
-1157659
-1157715
-1157214
-1156814
-1157542
-1158469
-1158619
-1157896
-1157745
-1158328
-1159182
-1159380
-1158882
-1158702
-1159326
-1160157
-1160304
-1159764
-1159488
-1160232
-1161093
-1160414
-1161096
-1161919
-1162139
-1161609
-1161348
-1161943
-1162793
-1162847
-1162413
-1162300
-1162914
-1163958
-1163942
-1163505
-1163243
-1163932
-1164920
-1164938
-1164441
-1164257
-1164829
-1165781
-1165917
-1165560
-1165338
-1165984
-1166879
-1167023
-1166466
-1166196
-1166911
-1167883
-1167899
-1167419
-1167259
-1167912
-1168861
-1169011
-1168437
-1167920
-1168836
-1169687
-1169911
-1169320
-1169108
-1169801
-1170692
-1170723
-1170186
-1169925
-1170619
-1171312
-1171196
-1170628
-1170186
-1170659
-1171319
-1171272
-1170204
-1169576
-1169741
-1170003
-1169442
-1168118
-1167047
-1166939
-1166872
-1165956
-1164255
-1162921
-1162539
-1162254
-1160947
-1159078
-1157605
-1157089
-1156640
-1155357
-1153344
-1151989
-1151397
-1150798
-1149589
-1147591
-1146183
-1145549
-1145172
-1143947
-1142216
-1140864
-1140414
-1140051
-1138965
-1137134
-1135892
-1135654
-1135431
-1134249
-1132700
-1131548
-1131227
-1131048
-1130085
-1128624
-1127446
-1128047
-1127243
-1126231
-1124880
-1123815
-1123551
-1123633
-1122645
-1121285
-1120361
-1120223
-1120399
-1119616
-1118228
-1117248
-1117142
-1117213
-1116543
-1115465
-1114427
-1114547
-1114650
-1114162
-1112915
-1112131
-1112289
-1112544
-1111748
-1110647
-1110014
-1110225
-1110453
-1110035
-1108970
-1108330
-1108489
-1108711
-1108339
-1107573
-1106878
-1107156
-1107534
-1106930
-1106149
-1105520
-1105954
-1106445
-1105947
-1105111
-1104631
-1105050
-1105674
-1105403
-1104473
-1104084
-1104634
-1105167
-1104968
-1104287
-1103915
-1104441
-1105203
-1104976
-1104354
-1104035
-1104754
-1105418
-1105347
-1104632
-1104492
-1105363
-1106262
-1106127
-1105628
-1105672
-1106328
-1107193
-1107238
-1106763
-1106677
-1107513
-1108374
-1108359
-1107864
-1107804
-1108546
-1109467
-1109507
-1108930
-1108963
-1109760
-1110551
-1110417
-1109920
-1109821
-1110684
-1111477
-1111449
-1110953
-1110872
-1111465
-1112336
-1112304
-1111807
-1111727
-1112361
-1113196
-1112994
-1112485
-1112502
-1113179
-1113963
-1113967
-1113315
-1113180
-1113998
-1114655
-1114612
-1113976
-1114059
-1114651
-1115427
-1115368
-1114801
-1114841
-1115540
-1116230
-1116228
-1115706
-1115663
-1116400
-1117130
-1117005
-1116510
-1116530
-1117187
-1118059
-1117870
-1117314
-1117273
-1118067
-1118814
-1118865
-1118301
-1118323
-1119017
-1119786
-1119737
-1119248
-1119282
-1120020
-1120618
-1120717
-1120077
-1120172
-1120900
-1121769
-1121706
-1120991
-1121136
-1121831
-1122731
-1122617
-1122062
-1122109
-1122913
-1123658
-1123699
-1122983
-1123073
-1123873
-1124800
-1124489
-1124028
-1124036
-1124904
-1125685
-1125687
-1125061
-1125169
-1125878
-1126720
-1126649
-1126115
-1126183
-1126906
-1127866
-1127632
-1127177
-1127214
-1127944
-1128737
-1128705
-1128218
-1128377
-1129037
-1129918
-1129779
-1129238
-1129318
-1130164
-1131027
-1130710
-1130323
-1130426
-1131218
-1132016
-1131927
-1131432
-1131389
-1132191
-1133029
-1133064
-1132409
-1132545
-1133342
-1134047
-1133941
-1133599
-1133646
-1134367
-1135160
-1135083
-1134480
-1134514
-1135467
-1136316
-1136129
-1135633
-1135794
-1136572
-1137403
-1137286
-1136656
-1136799
-1137769
-1138421
-1138317
-1137717
-1137864
-1138755
-1139450
-1139309
-1138760
-1138890
-1139607
-1140547
-1140324
-1139790
-1139880
-1140784
-1141623
-1141508
-1140832
-1140990
-1141812
-1142619
-1142446
-1141899
-1142119
-1142943
-1143590
-1143504
-1142818
-1143094
-1143795
-1144655
-1144480
-1144007
-1144205
-1144967
-1145717
-1145638
-1145047
-1145190
-1145911
-1146658
-1146438
-1146012
-1146159
-1147005
-1147740
-1147455
-1147011
-1147194
-1148031
-1148775
-1148627
-1148072
-1148209
-1148899
-1149677
-1149520
-1148889
-1148730
-1149690
-1150527
-1150342
-1149710
-1149835
-1150586
-1151385
-1151311
-1150794
-1150872
-1151612
-1152474
-1152131
-1151674
-1151793
-1152658
-1153248
-1153025
-1152503
-1152703
-1153523
-1154215
-1153994
-1153447
-1153473
-1154346
-1155012
-1154932
-1154325
-1154397
-1155222
-1155980
-1155690
-1155131
-1155315
-1156107
-1156995
-1156659
-1156175
-1156249
-1157163
-1157959
-1157629
-1157794
-1157465
-1158294
-1158999
-1158741
-1158249
-1158367
-1159241
-1159915
-1159787
-1159153
-1159272
-1160077
-1161004
-1160772
-1160267
-1160445
-1161337
-1161984
-1161714
-1161137
-1161334
-1162292
-1163048
-1162719
-1162246
-1162521
-1163393
-1163988
-1163738
-1163143
-1163480
-1164279
-1165089
-1164876
-1164320
-1164528
-1165291
-1166069
-1165732
-1165182
-1165345
-1166235
-1167103
-1166829
-1166233
-1166491
-1167216
-1167932
-1167651
-1166995
-1167113
-1167854
-1168540
-1168125
-1167273
-1167343
-1167822
-1168232
-1167641
-1166561
-1166331
-1166645
-1166655
-1165498
-1163989
-1163511
-1163410
-1163011
-1161591
-1160120
-1159223
-1158968
-1158319
-1156813
-1154935
-1153954
-1153556
-1152873
-1151200
-1149285
-1147951
-1147766
-1147865
-1145766
-1143794
-1142639
-1142295
-1141723
-1140226
-1138449
-1137519
-1137156
-1136575
-1135163
-1133461
-1132657
-1132485
-1131937
-1130623
-1129063
-1128150
-1128002
-1127695
-1126490
-1124967
-1124186
-1124089
-1123785
-1122556
-1121251
-1120619
-1120573
-1120406
-1119105
-1117769
-1117198
-1117275
-1117101
-1115889
-1114707
-1113803
-1114187
-1114196
-1113153
-1111976
-1111458
-1111669
-1111529
-1110549
-1109347
-1108997
-1109200
-1109219
-1108429
-1107245
-1107050
-1107354
-1107333
-1106497
-1105504
-1105179
-1105494
-1105533
-1104759
-1104104
-1103746
-1104139
-1104237
-1103513
-1102502
-1102545
-1102872
-1103079
-1102511
-1101750
-1101594
-1102184
-1102408
-1101799
-1100974
-1101154
-1101737
-1102087
-1101495
-1100793
-1100874
-1101549
-1102038
-1101625
-1100912
-1101167
-1101970
-1102449
-1101988
-1101478
-1101778
-1102709
-1103255
-1102877
-1102403
-1102563
-1103592
-1104245
-1103910
-1103424
-1103861
-1104854
-1105468
-1105100
-1104837
-1105194
-1106008
-1106761
-1106335
-1105966
-1106302
-1107386
-1107987
-1107590
-1107210
-1107638
-1108494
-1108644
-1108525
-1108122
-1108431
-1109473
-1110029
-1109710
-1109104
-1109462
-1110469
-1111058
-1110667
-1110177
-1110444
-1111256
-1111888
-1111494
-1111005
-1111420
-1112209
-1112777
-1112404
-1111816
-1112122
-1113115
-1113646
-1113194
-1112720
-1113064
-1113917
-1114530
-1114091
-1113664
-1113974
-1114821
-1115386
-1115054
-1114459
-1114919
-1115644
-1116230
-1115981
-1115512
-1115836
-1116805
-1117326
-1116987
-1116485
-1116936
-1117717
-1118248
-1117842
-1117503
-1117819
-1118617
-1119132
-1118836
-1118443
-1118852
-1119838
-1120335
-1119954
-1119528
-1119874
-1120857
-1121387
-1121059
-1120562
-1120996
-1121869
-1122467
-1122025
-1121459
-1121837
-1122924
-1123333
-1123072
-1122693
-1123123
-1123945
-1124474
-1124104
-1123698
-1124101
-1125006
-1125580
-1125204
-1124942
-1125354
-1126142
-1126681
-1126376
-1126062
-1126412
-1127393
-1127873
-1127570
-1127145
-1127546
-1128377
-1129000
-1128578
-1128204
-1128781
-1129695
-1130187
-1129847
-1129359
-1129849
-1130687
-1131163
-1130775
-1130384
-1130979
-1131854
-1132370
-1132784
-1131765
-1132159
-1133113
-1133501
-1133075
-1132698
-1133208
-1133858
-1134476
-1134187
-1133730
-1134229
-1135199
-1135597
-1135255
-1134775
-1135441
-1136347
-1136793
-1136488
-1136031
-1136475
-1137401
-1137899
-1137346
-1137068
-1137621
-1138522
-1138965
-1138516
-1138174
-1138602
-1139576
-1139990
-1139657
-1139221
-1139686
-1140595
-1141122
-1140665
-1140154
-1140674
-1141649
-1142125
-1141682
-1141322
-1141727
-1142649
-1143136
-1142808
-1142302
-1142919
-1143922
-1144233
-1143877
-1143364
-1143916
-1144883
-1145322
-1144893
-1144510
-1145020
-1145990
-1146365
-1145798
-1145487
-1145873
-1146956
-1147307
-1146932
-1146540
-1147033
-1147997
-1148304
-1147881
-1147466
-1147866
-1148756
-1149238
-1148719
-1148332
-1148776
-1149838
-1150136
-1149684
-1149322
-1149825
-1150673
-1150980
-1150482
-1150076
-1150700
-1151544
-1151935
-1151333
-1151075
-1151643
-1152578
-1152902
-1152409
-1152052
-1152578
-1153333
-1153773
-1153274
-1152981
-1153404
-1154394
-1154764
-1154331
-1153865
-1154382
-1155299
-1155685
-1155087
-1154710
-1155236
-1156242
-1156540
-1156163
-1155849
-1156385
-1157367
-1157686
-1157146
-1156884
-1157310
-1158331
-1158675
-1158162
-1157871
-1158536
-1159448
-1159810
-1159232
-1158823
-1159479
-1160343
-1160750
-1160256
-1159964
-1160409
-1161489
-1161819
-1161385
-1160834
-1161574
-1162542
-1162806
-1162431
-1161958
-1162617
-1163568
-1163809
-1163425
-1162960
-1163622
-1164489
-1165500
-1164538
-1163979
-1164555
-1165409
-1165800
-1165264
-1164784
-1165534
-1166354
-1166572
-1166009
-1165624
-1166229
-1167052
-1167356
-1166548
-1166085
-1166424
-1167041
-1167013
-1166368
-1165545
-1165564
-1165924
-1165541
-1164304
-1163101
-1162822
-1162755
-1162092
-1160560
-1159164
-1158448
-1158244
-1157212
-1155552
-1153942
-1153217
-1151855
-1148340
-1147463
-1147107
-1146178
-1144344
-1142639
-1141899
-1141516
-1140505
-1138806
-1137304
-1136694
-1136403
-1135477
-1134008
-1132543
-1132054
-1131769
-1130975
-1129498
-1128193
-1127722
-1127567
-1126827
-1125449
-1124132
-1123681
-1123703
-1122973
-1121650
-1120388
-1120219
-1120005
-1119506
-1118059
-1117021
-1116775
-1116819
-1116354
-1115026
-1114054
-1113881
-1114063
-1113436
-1112325
-1111388
-1111187
-1111368
-1110952
-1109845
-1108865
-1108878
-1109186
-1108768
-1107658
-1106698
-1106481
-1106980
-1106748
-1105650
-1104919
-1104948
-1105300
-1104976
-1103988
-1103338
-1103414
-1103855
-1103629
-1102710
-1101951
-1102368
-1102853
-1102665
-1101757
-1101156
-1101555
-1102094
-1101883
-1101087
-1100594
-1100750
-1101598
-1101619
-1100755
-1100414
-1100912
-1101620
-1101682
-1100948
-1100588
-1101156
-1101884
-1101944
-1101351
-1101045
-1101685
-1102589
-1102812
-1102229
-1101999
-1102753
-1103559
-1103833
-1103391
-1103203
-1103800
-1104861
-1105048
-1104571
-1104341
-1105057
-1106017
-1106272
-1105790
-1105692
-1106231
-1107122
-1107386
-1106841
-1106731
-1107391
-1108195
-1108460
-1108057
-1107853
-1108385
-1109342
-1109509
-1108985
-1108716
-1109389
-1110566
-1110423
-1109900
-1109563
-1110284
-1111216
-1111288
-1110698
-1110594
-1111285
-1112093
-1112227
-1111593
-1111396
-1112108
-1112945
-1113087
-1112563
-1112250
-1112988
-1113896
-1113977
-1113355
-1113152
-1114003
-1114755
-1114935
-1114335
-1114096
-1114674
-1115680
-1115880
-1115337
-1115173
-1115823
-1116691
-1116683
-1116155
-1115992
-1116677
-1117657
-1117687
-1117273
-1117050
-1117636
-1118505
-1118702
-1118212
-1118093
-1118714
-1119653
-1119715
-1119304
-1119014
-1119825
-1120742
-1120758
-1120250
-1120230
-1120875
-1121758
-1121852
-1121297
-1121079
-1121810
-1122698
-1122864
-1122510
-1123062
-1123233
-1124000
-1124026
-1123550
-1123437
-1124149
-1124934
-1125079
-1124532
-1125222
-1125986
-1126142
-1125804
-1125727
-1126404
-1127275
-1127292
-1126871
-1126805
-1127444
-1128423
-1128440
-1128115
-1128016
-1128670
-1129552
-1129662
-1129081
-1129078
-1129811
-1130537
-1130587
-1130169
-1129974
-1130831
-1131778
-1131864
-1131365
-1131278
-1132023
-1132959
-1132906
-1132487
-1132271
-1133027
-1134050
-1134053
-1133561
-1133471
-1134298
-1135056
-1135173
-1134522
-1134619
-1135380
-1136306
-1136347
-1135820
-1135691
-1136343
-1137355
-1137403
-1136893
-1136779
-1137631
-1138497
-1138485
-1137526
-1137841
-1138689
-1139616
-1139510
-1138966
-1138874
-1139815
-1140670
-1140662
-1140184
-1139965
-1140529
-1141584
-1141612
-1141181
-1142050
-1142273
-1142858
-1142901
-1142317
-1142105
-1143034
-1143888
-1143885
-1143299
-1143279
-1143900
-1144815
-1144914
-1144271
-1144309
-1145100
-1145868
-1145874
-1145377
-1145471
-1146044
-1146810
-1146607
-1146254
-1146332
-1147111
-1147991
-1147915
-1147341
-1147402
-1148073
-1148914
-1148981
-1148265
-1148200
-1149145
-1149955
-1149841
-1149336
-1149218
-1150107
-1150990
-1150907
-1150327
-1150282
-1151070
-1151673
-1151712
-1151101
-1151243
-1151863
-1152748
-1152715
-1152114
-1152121
-1153070
-1153806
-1153730
-1153024
-1152950
-1153632
-1155177
-1154540
-1153980
-1153988
-1154659
-1155394
-1155305
-1154839
-1154896
-1155699
-1156502
-1156473
-1155637
-1155711
-1156610
-1157397
-1157339
-1156750
-1156757
-1157571
-1158533
-1158467
-1157848
-1157676
-1158687
-1159568
-1159452
-1158930
-1158907
-1159756
-1160484
-1160456
-1159946
-1160036
-1160730
-1161651
-1161592
-1161047
-1161094
-1161692
-1162690
-1162521
-1161951
-1162000
-1162827
-1163686
-1163664
-1162987
-1163079
-1164887
-1164811
-1164152
-1164297
-1164998
-1165752
-1165808
-1165153
-1165260
-1166153
-1166807
-1166659
-1166226
-1166174
-1167058
-1167852
-1167708
-1167024
-1167122
-1167967
-1168760
-1168503
-1167861
-1167805
-1168420
-1168877
-1167745
-1167522
-1167806
-1168065
-1167311
-1166114
-1165498
-1165452
-1165532
-1164297
-1162840
-1161908
-1161592
-1161290
-1159968
-1158246
-1156892
-1156528
-1156066
-1154472
-1152680
-1151372
-1150862
-1150293
-1148801
-1146953
-1145863
-1145320
-1144901
-1143377
-1141615
-1140421
-1140158
-1139665
-1138456
-1136710
-1135653
-1135412
-1135161
-1133820
-1132238
-1131405
-1130983
-1130796
-1129645
-1128176
-1127321
-1127940
-1127148
-1125861
-1124103
-1123650
-1123711
-1123542
-1122456
-1121068
-1120445
-1120321
-1120304
-1119271
-1118014
-1117291
-1117266
-1117296
-1116389
-1115222
-1114665
-1114756
-1114836
-1114013
-1112816
-1112296
-1112539
-1112579
-1111702
-1110655
-1110184
-1110344
-1110587
-1109759
-1108723
-1108324
-1108696
-1108931
-1108203
-1107255
-1106934
-1107196
-1107618
-1107036
-1105907
-1105675
-1106279
-1106607
-1106054
-1105130
-1104882
-1105422
-1105820
-1105310
-1104491
-1104380
-1104933
-1105475
-1104928
-1104218
-1104234
-1104792
-1105443
-1104902
-1104339
-1104464
-1105129
-1105699
-1105537
-1104982
-1105107
-1105772
-1106424
-1106279
-1105723
-1105877
-1106752
-1107578
-1107330
-1106837
-1107760
-1108193
-1108840
-1108643
-1107965
-1108286
-1109128
-1109828
-1109751
-1109179
-1109432
-1110275
-1111001
-1110840
-1110237
-1110456
-1111402
-1112207
-1111818
-1111325
-1111598
-1112317
-1113076
-1112701
-1112233
-1112304
-1113100
-1113699
-1113434
-1112905
-1113093
-1113858
-1114588
-1114393
-1113850
-1113848
-1114810
-1115522
-1115216
-1114533
-1114639
-1115564
-1116178
-1115860
-1115316
-1115565
-1116332
-1117061
-1116745
-1116087
-1116458
-1117266
-1117961
-1117703
-1117184
-1117433
-1118294
-1118914
-1118638
-1118091
-1118310
-1119166
-1119709
-1119423
-1119019
-1119244
-1120031
-1120621
-1120404
-1119908
-1120222
-1121037
-1121676
-1121304
-1120875
-1120814
-1121896
-1122497
-1122310
-1121791
-1122062
-1122990
-1123643
-1123373
-1122845
-1123089
-1123872
-1124510
-1124181
-1123641
-1123951
-1124806
-1125538
-1125299
-1124788
-1124978
-1125943
-1126562
-1126197
-1125758
-1126020
-1126826
-1127567
-1127258
-1126798
-1127086
-1127886
-1128679
-1128363
-1127694
-1128150
-1129111
-1129713
-1129405
-1128857
-1129093
-1129990
-1130586
-1130399
-1129975
-1130305
-1131164
-1131739
-1131494
-1130975
-1131220
-1132089
-1132810
-1132424
-1131974
-1132396
-1133264
-1133885
-1133483
-1133086
-1133415
-1134182
-1134980
-1134686
-1134155
-1134373
-1135318
-1135719
-1135634
-1135244
-1135469
-1136472
-1136933
-1136656
-1136243
-1136482
-1137328
-1138092
-1137783
-1137302
-1138385
-1138640
-1139109
-1138700
-1138258
-1138712
-1139204
-1140061
-1139792
-1139417
-1139731
-1140647
-1141201
-1140713
-1140297
-1140622
-1141483
-1142225
-1141789
-1141390
-1141601
-1142530
-1143256
-1142904
-1142302
-1142443
-1143620
-1144200
-1143823
-1143365
-1143801
-1144650
-1145198
-1144748
-1144379
-1144738
-1145752
-1146198
-1145835
-1145471
-1145701
-1146695
-1147239
-1146709
-1146389
-1146843
-1147706
-1148287
-1147879
-1147239
-1147599
-1148593
-1149060
-1148753
-1148182
-1148534
-1149510
-1150052
-1149718
-1149048
-1149485
-1150517
-1150953
-1150485
-1149929
-1150367
-1151179
-1151682
-1151268
-1150840
-1151246
-1151910
-1152438
-1152118
-1151527
-1152678
-1153100
-1153459
-1152759
-1152269
-1152782
-1153699
-1154175
-1153368
-1153060
-1153532
-1154312
-1154868
-1154444
-1153900
-1154468
-1155324
-1155822
-1155456
-1155106
-1155104
-1156294
-1156842
-1156452
-1155824
-1156242
-1157174
-1157667
-1157304
-1156861
-1157166
-1158142
-1158598
-1158211
-1157799
-1158288
-1159244
-1159751
-1159350
-1159606
-1159405
-1160255
-1161304
-1160516
-1159930
-1160312
-1161271
-1161901
-1161281
-1160898
-1161201
-1162183
-1162598
-1161874
-1161658
-1162157
-1163124
-1163590
-1163238
-1162693
-1163188
-1164072
-1164365
-1164057
-1163822
-1164218
-1165133
-1165319
-1165013
-1164715
-1165073
-1166116
-1166439
-1165962
-1165409
-1165937
-1166348
-1166926
-1167174
-1166212
-1166457
-1167066
-1167191
-1166376
-1165539
-1165688
-1166100
-1165937
-1165935
-1163803
-1163463
-1163467
-1162963
-1161509
-1159950
-1159128
-1159810
-1158703
-1156826
-1155208
-1154469
-1154058
-1153141
-1151345
-1149677
-1148826
-1148992
-1147772
-1145849
-1144088
-1143400
-1143024
-1142054
-1140536
-1138861
-1138184
-1137829
-1136999
-1135461
-1134050
-1133090
-1132978
-1132486
-1131052
-1129612
-1129095
-1129061
-1128067
-1126922
-1125617
-1125276
-1124838
-1124507
-1123006
-1121836
-1121528
-1121480
-1121032
-1119774
-1118504
-1118215
-1118200
-1117771
-1116540
-1115479
-1115182
-1115319
-1114936
-1113567
-1112612
-1112479
-1112699
-1112238
-1111102
-1109979
-1109832
-1110209
-1109937
-1108796
-1108429
-1107923
-1108000
-1107750
-1106545
-1105741
-1105709
-1106719
-1106205
-1105106
-1104203
-1104312
-1104927
-1104489
-1103436
-1102696
-1102618
-1103448
-1103350
-1102480
-1101714
-1101934
-1102533
-1102449
-1101227
-1100759
-1100805
-1101713
-1102148
-1101105
-1101238
-1101087
-1101587
-1101739
-1101026
-1100362
-1100779
-1101665
-1101924
-1101337
-1100907
-1101427
-1102175
-1102199
-1101599
-1101620
-1102272
-1103212
-1103452
-1102810
-1102730
-1103261
-1104300
-1104586
-1104177
-1103890
-1104531
-1105354
-1105716
-1105032
-1105036
-1105680
-1106600
-1106959
-1106514
-1106228
-1106659
-1107704
-1107861
-1107494
-1107102
-1107772
-1108759
-1108804
-1108462
-1108156
-1108624
-1109440
-1109720
-1109957
-1109285
-1109263
-1110328
-1110474
-1110142
-1109807
-1110233
-1110745
-1111135
-1110832
-1110610
-1111195
-1111995
-1112214
-1111711
-1111327
-1111919
-1112952
-1112959
-1112450
-1112187
-1112653
-1113684
-1113836
-1113211
-1113092
-1113727
-1114488
-1114740
-1114185
-1113918
-1114501
-1115399
-1115604
-1115184
-1114942
-1115589
-1116481
-1116639
-1116149
-1115944
-1116440
-1117467
-1117718
-1117270
-1117603
-1118400
-1118664
-1118196
-1117976
-1118493
-1119540
-1119740
-1119119
-1119018
-1119523
-1120501
-1120703
-1120245
-1120005
-1120475
-1121398
-1121712
-1121336
-1121110
-1121775
-1122627
-1122872
-1122278
-1122071
-1122777
-1123622
-1123943
-1123341
-1123147
-1123719
-1124565
-1124764
-1124360
-1124217
-1124828
-1125721
-1125935
-1125482
-1125198
-1126014
-1126969
-1127127
-1126619
-1126439
-1127016
-1127961
-1128111
-1127729
-1127482
-1128121
-1129131
-1129235
-1128812
-1128520
-1129286
-1130177
-1130246
-1129842
-1129679
-1130315
-1131389
-1131483
-1130930
-1130767
-1131556
-1132417
-1132674
-1132178
-1131964
-1132598
-1133493
-1133668
-1133113
-1133099
-1133758
-1134700
-1134743
-1134258
-1134013
-1134715
-1135577
-1135896
-1135422
-1135238
-1135980
-1136919
-1136920
-1136359
-1136161
-1136982
-1137934
-1137977
-1137497
-1137392
-1138030
-1138971
-1138973
-1138560
-1138422
-1139134
-1140014
-1140160
-1139670
-1139434
-1140080
-1140910
-1141230
-1140742
-1140537
-1141217
-1142105
-1142067
-1141682
-1141435
-1142120
-1143163
-1143281
-1142679
-1142402
-1143162
-1144041
-1144099
-1143608
-1143571
-1144208
-1145144
-1144675
-1144475
-1145225
-1146030
-1146051
-1145567
-1145463
-1146195
-1147009
-1146497
-1146225
-1147108
-1147834
-1147926
-1147376
-1147180
-1147836
-1148803
-1148839
-1148332
-1148171
-1148915
-1149677
-1149656
-1149130
-1149115
-1149837
-1150671
-1150721
-1150018
-1150027
-1150612
-1151606
-1151548
-1151129
-1150955
-1151686
-1152545
-1152627
-1152175
-1151944
-1152636
-1153559
-1153622
-1153005
-1152985
-1153741
-1154697
-1154529
-1154098
-1154041
-1154797
-1155669
-1155711
-1155193
-1155121
-1155757
-1156535
-1156573
-1156157
-1156121
-1156901
-1157754
-1157636
-1157207
-1157048
-1157851
-1158690
-1158708
-1158124
-1158156
-1158966
-1159667
-1159773
-1159180
-1159163
-1159809
-1160720
-1160732
-1160210
-1160204
-1160857
-1161659
-1161622
-1161124
-1161028
-1161832
-1162700
-1162690
-1162036
-1161742
-1162449
-1163272
-1163126
-1162621
-1162356
-1163042
-1163855
-1163631
-1162799
-1162510
-1163040
-1163396
-1162942
-1161850
-1161320
-1161450
-1161570
-1160569
-1159231
-1158292
-1157982
-1157861
-1156772
-1155083
-1153741
-1153392
-1152836
-1151576
-1149652
-1148320
-1147979
-1147483
-1145951
-1144112
-1142848
-1142275
-1141914
-1140540
-1138703
-1137362
-1136880
-1136505
-1135256
-1133510
-1132360
-1131537
-1130432
-1128809
-1127558
-1127306
-1127081
-1125915
-1124497
-1123450
-1123152
-1122861
-1121827
-1120364
-1119331
-1119184
-1119014
-1118105
-1116660
-1115659
-1115693
-1115539
-1114698
-1113328
-1112541
-1112461
-1112284
-1111442
-1109993
-1109373
-1109297
-1109395
-1108489
-1107244
-1106573
-1106524
-1106759
-1106064
-1104768
-1104231
-1104189
-1104256
-1103626
-1102469
-1101914
-1101991
-1102256
-1101474
-1100554
-1099983
-1100259
-1100566
-1099873
-1098747
-1098464
-1098767
-1099144
-1098474
-1097608
-1097212
-1097542
-1097906
-1097334
-1096514
-1096189
-1096620
-1097131
-1096567
-1095804
-1095535
-1096068
-1096547
-1096237
-1095429
-1095267
-1095959
-1096540
-1096364
-1095723
-1095685
-1096347
-1096934
-1096719
-1096102
-1096299
-1097028
-1097661
-1097550
-1096994
-1097131
-1097981
-1098814
-1098591
-1098081
-1098317
-1099195
-1099835
-1099775
-1099373
-1099364
-1100140
-1101122
-1101095
-1100529
-1100624
-1101500
-1102282
-1102095
-1101546
-1101667
-1102503
-1103354
-1103194
-1102671
-1102795
-1103543
-1104228
-1104003
-1103471
-1103586
-1104324
-1105241
-1104954
-1104376
-1104490
-1105278
-1105891
-1105715
-1105296
-1105288
-1106235
-1106849
-1106573
-1106156
-1106245
-1107093
-1107623
-1107487
-1106874
-1107080
-1107821
-1108553
-1108369
-1107834
-1107926
-1108702
-1109566
-1109337
-1108700
-1108891
-1109650
-1110456
-1110276
-1109801
-1109741
-1110629
-1111256
-1111048
-1110647
-1110752
-1111667
-1112386
-1112208
-1111628
-1111771
-1112463
-1113291
-1113151
-1112510
-1112675
-1113630
-1114423
-1114031
-1113498
-1113767
-1114719
-1115327
-1115117
-1114501
-1114839
-1115607
-1116371
-1116102
-1115689
-1115986
-1116798
-1117431
-1117295
-1116723
-1116971
-1117834
-1118596
-1118345
-1117836
-1118091
-1118932
-1119723
-1119541
-1118927
-1119102
-1120008
-1120748
-1120512
-1120004
-1120397
-1121239
-1122052
-1121740
-1121176
-1121582
-1122470
-1123049
-1122937
-1122372
-1122679
-1123624
-1124207
-1123978
-1123510
-1123679
-1124664
-1125332
-1125175
-1124581
-1124938
-1125844
-1126521
-1126262
-1125759
-1126071
-1126896
-1127626
-1127428
-1126914
-1127219
-1128032
-1128727
-1128489
-1127939
-1128383
-1129197
-1129865
-1129594
-1129089
-1129324
-1130273
-1130956
-1130664
-1130185
-1130622
-1131533
-1132254
-1131936
-1131304
-1131587
-1132517
-1133172
-1132996
-1132478
-1132783
-1133711
-1134353
-1134019
-1133596
-1133835
-1134764
-1135293
-1135158
-1134515
-1134778
-1135595
-1136376
-1136209
-1135715
-1135990
-1136910
-1137533
-1137227
-1136640
-1137034
-1137860
-1138454
-1138300
-1137739
-1138024
-1138973
-1139594
-1139250
-1138766
-1138962
-1140019
-1140601
-1140249
-1139795
-1140145
-1141056
-1141530
-1141272
-1140852
-1141040
-1141997
-1142484
-1142152
-1141726
-1142042
-1142922
-1143567
-1143120
-1142743
-1142878
-1143848
-1144356
-1144054
-1143602
-1144071
-1144761
-1145439
-1145065
-1144607
-1144972
-1145751
-1146372
-1145992
-1145523
-1145841
-1146634
-1147348
-1147058
-1146432
-1146818
-1147795
-1148297
-1147824
-1147307
-1147761
-1148757
-1149186
-1148979
-1148406
-1148686
-1149613
-1150274
-1150036
-1149552
-1149851
-1150815
-1151347
-1150969
-1150545
-1150834
-1151792
-1152495
-1151998
-1151680
-1152014
-1152936
-1153590
-1153216
-1152894
-1153186
-1154096
-1154595
-1154137
-1153869
-1154099
-1155104
-1155623
-1155376
-1155014
-1155250
-1156277
-1156837
-1156385
-1155919
-1156459
-1157251
-1157875
-1157469
-1156999
-1157301
-1158281
-1158737
-1158418
-1158057
-1158298
-1159288
-1159786
-1159482
-1158956
-1159236
-1160077
-1160806
-1160282
-1159878
-1160046
-1160858
-1161273
-1160803
-1160211
-1160416
-1161162
-1161186
-1160411
-1159569
-1159428
-1159836
-1159718
-1158511
-1157285
-1156857
-1156740
-1156274
-1154936
-1153387
-1152561
-1152334
-1151684
-1150153
-1148250
-1147449
-1147165
-1146289
-1144651
-1142687
-1141866
-1141528
-1140703
-1138917
-1137206
-1136365
-1136064
-1135431
-1133839
-1132105
-1131407
-1131142
-1130555
-1128994
-1127402
-1126833
-1126463
-1126006
-1124594
-1123197
-1122589
-1122478
-1121963
-1120454
-1119048
-1118535
-1118612
-1118169
-1116741
-1115554
-1114975
-1114925
-1114592
-1113357
-1112061
-1111643
-1111747
-1111332
-1110226
-1109103
-1108823
-1108882
-1108489
-1107408
-1106364
-1106015
-1106311
-1106057
-1104970
-1103838
-1103495
-1103892
-1103590
-1102629
-1101620
-1101414
-1101733
-1101706
-1100749
-1099817
-1099664
-1100083
-1099889
-1099051
-1098078
-1098207
-1098662
-1098604
-1097702
-1096909
-1096843
-1097374
-1097404
-1096648
-1095962
-1096045
-1096675
-1096694
-1096022
-1095182
-1095458
-1096146
-1096287
-1095480
-1094976
-1095194
-1095870
-1096228
-1095621
-1095175
-1095467
-1096329
-1096620
-1095980
-1095689
-1096140
-1096937
-1097300
-1096940
-1096573
-1096939
-1097894
-1098299
-1097909
-1097668
-1098173
-1099046
-1099532
-1099066
-1098816
-1099376
-1100405
-1100739
-1100379
-1100631
-1101585
-1101811
-1102759
-1103152
-1102706
-1102180
-1102739
-1103692
-1104019
-1103589
-1103249
-1103748
-1104610
-1104837
-1104483
-1104145
-1104481
-1105343
-1105735
-1105243
-1104906
-1105407
-1106232
-1106453
-1106076
-1105730
-1106238
-1107039
-1107447
-1106966
-1106643
-1107172
-1108063
-1108257
-1107864
-1107448
-1107926
-1108918
-1109162
-1108741
-1108465
-1108875
-1109819
-1110086
-1109617
-1109412
-1109845
-1110841
-1111142
-1110690
-1110370
-1110908
-1111721
-1112130
-1111729
-1111271
-1111763
-1112796
-1113107
-1112736
-1112294
-1112895
-1113677
-1114001
-1113620
-1113312
-1113884
-1114755
-1115162
-1114660
-1114388
-1115010
-1115959
-1116175
-1115781
-1115475
-1116131
-1116983
-1117213
-1116737
-1116564
-1117121
-1117995
-1118226
-1117845
-1117649
-1118308
-1119201
-1119398
-1118909
-1118634
-1119399
-1120377
-1120484
-1120163
-1119784
-1120529
-1121488
-1121737
-1121273
-1121033
-1121640
-1122570
-1122780
-1122420
-1122100
-1122837
-1123697
-1123933
-1123489
-1123262
-1123856
-1124902
-1125141
-1124752
-1124508
-1125027
-1125857
-1126211
-1125713
-1125541
-1126268
-1127237
-1127341
-1126990
-1126590
-1127343
-1128224
-1128568
-1127923
-1127828
-1128557
-1129369
-1129661
-1129107
-1128994
-1129402
-1130500
-1130767
-1130386
-1130088
-1130771
-1131682
-1131860
-1131409
-1131129
-1131871
-1132452
-1132890
-1132602
-1132269
-1132970
-1133969
-1134261
-1133793
-1133366
-1133964
-1134963
-1135131
-1135523
-1136297
-1137261
-1137357
-1136896
-1136609
-1137221
-1138298
-1138447
-1137908
-1137758
-1138440
-1139270
-1139526
-1139054
-1138870
-1139452
-1140426
-1140543
-1140011
-1139847
-1140586
-1141525
-1141676
-1141199
-1140854
-1141614
-1142496
-1142684
-1142240
-1142038
-1142586
-1143469
-1143576
-1143188
-1143024
-1143500
-1144482
-1144576
-1144143
-1143857
-1144655
-1145535
-1145529
-1145106
-1144912
-1145432
-1146416
-1146577
-1146063
-1145853
-1146338
-1147246
-1147446
-1146833
-1146680
-1147358
-1148306
-1148393
-1147795
-1148677
-1149376
-1150228
-1150376
-1149880
-1149657
-1150372
-1151312
-1151386
-1150743
-1150687
-1151450
-1152240
-1152397
-1151703
-1151590
-1152378
-1153252
-1153375
-1152875
-1152681
-1153379
-1154470
-1154637
-1154046
-1153922
-1154557
-1155424
-1155671
-1155023
-1154964
-1155624
-1156601
-1156626
-1156220
-1156109
-1156687
-1157617
-1157678
-1157106
-1157057
-1157856
-1158896
-1158816
-1158321
-1158272
-1158981
-1159803
-1159834
-1159390
-1159238
-1159867
-1160818
-1160940
-1160357
-1161352
-1161369
-1161906
-1161880
-1161249
-1161192
-1161785
-1162554
-1162495
-1161863
-1161587
-1162148
-1162964
-1162681
-1161811
-1161282
-1161551
-1161964
-1161202
-1160127
-1159183
-1158990
-1159107
-1158185
-1156496
-1155257
-1155018
-1154693
-1153446
-1151792
-1150458
-1149954
-1149388
-1148204
-1146417
-1144928
-1144393
-1144055
-1142721
-1140953
-1139610
-1138935
-1138687
-1137560
-1135779
-1134605
-1134179
-1133810
-1132692
-1131087
-1130033
-1129686
-1129401
-1128375
-1126817
-1125901
-1125593
-1125084
-1124422
-1123070
-1121998
-1121776
-1121803
-1120912
-1119365
-1118545
-1118482
-1118490
-1117569
-1116218
-1115395
-1115226
-1115307
-1114628
-1113301
-1112501
-1112512
-1112496
-1111847
-1110635
-1109861
-1109973
-1110026
-1109295
-1108205
-1107565
-1107745
-1108000
-1107262
-1106111
-1105395
-1105510
-1105879
-1105170
-1104262
-1103771
-1103910
-1104242
-1103685
-1102575
-1101897
-1102415
-1102861
-1102324
-1101423
-1100971
-1101378
-1101735
-1101353
-1100553
-1100121
-1100533
-1101120
-1100796
-1099921
-1099600
-1100166
-1100760
-1100556
-1099849
-1099623
-1100184
-1100802
-1100714
-1100081
-1099931
-1100600
-1101185
-1101126
-1100546
-1100416
-1101056
-1101797
-1101764
-1101086
-1101223
-1102103
-1102835
-1102894
-1102320
-1102392
-1103167
-1104003
-1104023
