PPG
-537265
-537235
-537441
-537678
-537338
-536998
-537079
-537378
-537561
-537140
-536830
-536780
-537214
-537250
-536868
-536569
-536630
-536963
-537066
-536669
-536460
-536514
-536901
-537130
-536863
-536397
-536659
-537035
-537217
-536941
-536660
-536778
-537267
-537370
-537090
-536777
-536916
-537283
-537508
-537260
-536930
-537059
-537493
-537669
-537443
-537068
-537657
-537758
-537904
-537608
-537368
-537486
-538006
-538193
-537973
-537686
-537918
-538259
-538443
-538207
-537966
-538174
-538596
-538834
-538651
-538362
-538573
-538869
-539109
-538932
-538601
-538748
-539234
-539393
-539194
-538908
-538979
-539369
-539573
-539292
-538996
-539133
-539389
-539591
-539295
-539069
-539165
-539558
-539718
-539455
-539144
-539270
-539631
-539848
-539567
-539284
-539381
-539815
-539995
-539718
-539463
-539830
-540103
-539898
-539613
-539664
-540084
-540272
-540308
-539976
-540103
-540434
-540667
-540454
-540209
-540301
-540763
-541009
-540741
-540533
-540645
-541100
-541250
-541055
-540842
-541069
-541459
-541713
-541537
-541235
-541502
-541942
-542171
-541975
-541650
-541885
-542392
-542584
-542335
-542123
-542369
-542795
-543038
-542725
-542464
-542681
-543082
-543385
-543191
-542880
-543058
-543897
-543830
-543584
-543327
-543480
-543974
-544141
-543901
-543691
-543889
-544420
-544624
-544460
-544126
-544291
-544840
-545064
-544867
-544609
-544844
-545312
-545481
-545273
-545144
-545343
-545792
-545990
-545734
-545605
-545778
-546290
-546532
-546343
-546017
-546300
-546819
-547014
-546850
-546593
-546853
-547277
-547468
-547212
-546986
-547256
-547680
-547937
-547666
-547438
-547616
-548127
-548361
-548159
-547969
-548115
-548576
-548813
-548675
-548434
-548652
-549161
-549366
-549183
-548993
-549284
-549757
-550102
-549874
-549682
-549986
-550464
-550679
-550507
-550383
-550650
-551080
-551342
-551176
-550908
-551102
-551623
-551887
-551579
-551469
-551677
-552083
-552401
-552149
-551855
-552126
-552524
-552649
-552505
-552297
-552487
-552897
-553031
-552744
-552547
-552652
-552971
-553046
-552792
-552412
-552506
-552660
-552707
-552153
-551786
-551632
-551827
-551671
-551016
-550306
-550361
-550034
-549617
-548734
-547803
-547372
-547105
-546570
-545667
-544597
-544077
-543843
-543285
-542550
-541370
-540763
-540355
-539819
-538753
-537700
-537056
-536670
-536011
-534765
-533686
-533092
-532717
-531993
-530894
-529855
-529337
-529032
-528380
-527384
-526475
-525934
-525671
-525101
-524113
-523252
-522772
-522514
-521988
-521090
-520250
-519828
-519560
-519092
-518262
-517443
-517102
-516854
-516508
-515698
-514918
-514578
-514561
-514142
-513700
-512759
-512407
-512251
-511948
-511213
-510541
-510314
-510269
-509929
-509352
-508647
-508464
-508576
-508395
-508112
-507326
-507149
-507245
-507122
-506620
-506173
-506151
-506307
-506234
-505811
-505444
-505611
-505750
-505819
-505461
-505140
-505280
-505465
-505587
-505359
-504996
-505189
-505608
-505651
-505439
-505269
-505393
-505762
-505856
-505647
-505464
-505672
-506130
-506350
-506077
-505961
-506273
-506737
-506879
-506758
-506527
-506796
-507359
-507532
-507363
-507182
-507479
-507855
-508163
-507939
-507775
-508070
-508539
-508697
-508497
-508318
-508596
-509038
-509272
-509045
-508811
-509080
-509539
-509747
-509506
-509384
-509562
-510049
-510158
-509951
-509656
-509917
-510375
-510521
-510325
-510135
-510356
-510853
-510894
-510640
-510460
-510657
-511049
-511197
-510933
-510721
-510919
-511271
-511414
-511132
-510828
-511081
-511432
-511528
-511312
-511057
-511291
-511682
-511828
-511496
-511301
-511606
-511928
-512096
-511888
-511660
-512069
-512406
-512583
-512355
-512209
-512479
-512962
-513074
-512899
-512621
-512961
-513400
-513599
-513359
-513225
-513499
-514011
-514088
-513970
-513903
-514071
-514600
-514758
-514566
-514409
-514650
-515082
-515275
-515116
-515011
-515300
-515702
-515891
-515697
-515421
-515803
-516227
-516364
-516145
-516050
-516219
-516670
-516771
-516580
-516475
-516731
-517185
-517460
-517233
-517091
-517312
-517791
-517985
-517800
-517633
-517910
-518429
-518541
-518277
-518192
-518482
-519012
-519190
-518980
-518914
-519192
-519770
-519945
-519619
-519648
-519916
-520391
-520569
-520295
-520227
-520551
-520981
-521088
-520922
-520972
-521189
-521661
-521842
-521703
-521545
-521915
-522400
-522527
-522250
-522237
-522597
-523070
-523342
-523155
-523085
-523471
-523981
-524251
-524144
-524087
-524418
-524848
-524986
-524836
-524831
-525106
-525551
-525727
-525641
-525588
-525939
-526477
-526654
-526425
-526348
-526625
-527182
-527323
-527129
-527028
-527265
-527814
-527969
-527743
-527675
-527989
-528439
-528603
-528326
-527799
-528477
-529013
-529177
-528957
-528820
-529193
-529551
-529770
-529493
-529361
-529689
-530161
-530198
-530014
-529927
-530231
-530690
-530824
-530605
-530525
-530781
-531286
-531401
-531180
-530964
-531287
-531781
-531782
-531708
-531544
-531826
-532311
-532494
-532296
-532087
-532374
-532822
-532953
-532670
-532559
-532815
-533319
-533469
-533203
-532998
-533337
-533825
-533917
-533658
-533497
-533786
-534194
-534273
-534109
-533951
-534269
-534710
-534724
-534489
-534364
-534666
-535100
-535175
-534901
-534824
-535089
-535508
-535677
-535393
-535310
-535678
-536091
-536281
-536104
-535960
-536260
-536747
-536866
-536615
-537036
-537097
-537448
-537557
-537347
-537277
-537626
-538052
-538208
-537956
-537924
-538227
-538704
-538812
-538557
-538451
-538807
-539307
-539468
-539028
-539032
-539269
-539699
-539889
-539658
-539484
-539816
-540264
-540391
-540122
-539840
-540161
-540651
-540763
-540424
-540268
-540629
-541066
-541147
-540852
-540791
-541155
-541551
-541629
-541411
-541344
-541723
-542178
-542277
-541996
-541917
-542250
-542742
-542901
-542629
-542565
-542892
-543364
-543567
-543348
-543258
-543579
-543995
-544208
-543976
-543803
-544167
-544660
-544830
-544587
-544418
-544732
-545187
-545318
-545010
-544845
-545189
-545609
-545673
-545474
-545357
-545630
-546048
-546078
-545813
-545706
-545969
-546382
-546501
-546137
-546066
-546360
-546713
-546824
-546462
-546242
-546497
-546888
-546943
-546617
-546444
-546608
-546910
-546831
-546417
-546198
-546308
-546652
-546399
-545805
-545426
-545408
-545497
-545186
-544405
-543891
-543675
-543571
-543026
-542109
-541442
-541030
-540765
-540076
-539044
-538106
-537721
-537338
-536540
-535427
-534512
-534084
-533690
-533090
-532112
-531229
-530788
-530525
-529904
-528857
-528027
-527648
-527418
-526742
-525534
-524826
-524486
-524118
-523517
-522550
-521783
-521406
-521168
-520565
-519649
-518936
-518593
-518484
-517938
-517046
-516416
-516222
-516111
-515585
-514805
-514215
-514121
-513991
-513588
-512954
-512387
-512214
-512251
-511929
-511257
-510722
-510739
-510774
-510571
-510019
-509545
-509622
-509756
-509566
-509055
-508621
-508736
-508992
-508880
-508389
-508072
-508244
-508443
-508392
-507995
-507728
-507970
-508250
-508288
-507927
-507720
-508055
-508347
-508304
-508085
-508005
-508357
-508763
-508716
-508437
-508462
-508879
-509367
-509440
-509293
-509226
-509711
-510179
-510324
-510203
-510284
-510650
-511298
-511412
-511305
-511317
-511865
-512335
-512611
-512411
-512519
-512997
-513621
-513712
-513588
-513592
-514016
-514536
-514797
-514618
-514596
-515020
-515567
-515718
-515477
-515566
-515959
-516528
-516526
-516339
-516345
-517076
-517255
-517253
-517085
-517005
-517442
-517929
-517893
-517608
-517559
-518030
-518440
-518555
-518380
-518282
-518730
-519080
-519145
-518925
-518866
-519207
-519609
-519653
-519400
-519420
-519821
-520320
-520342
-520060
-519924
-520284
-520748
-520772
-520565
-520461
-520816
-521212
-521305
-520974
-520931
-521301
-521771
-521795
-521498
-521466
-521820
-522268
-522199
-521891
-521835
-522194
-522738
-522917
-522815
-522553
-522881
-523454
-523635
-523443
-523325
-523752
-524277
-524359
-524163
-524097
-524408
-524861
-524969
-524770
-524751
-525066
-525519
-525654
-525365
-525347
-525754
-526225
-526324
-526122
-526078
-526491
-527033
-527163
-526965
-526930
-527326
-527854
-527931
-527718
-527770
-528229
-528724
-528854
-528659
-528660
-529005
-529462
-529509
-529166
-529164
-529554
-530114
-530183
-530008
-529893
-530313
-530658
-530751
-530429
-530554
-530858
-531326
-531334
-531149
-531129
-531537
-531993
-532159
-531971
-532017
-532563
-533110
-533329
-533148
-533207
-533738
-534233
-534477
-534243
-534395
-534971
-535534
-535630
-535462
-535550
-535921
-536509
-536612
-536331
-536348
-536901
-537308
-537386
-537132
-536959
-537322
-537785
-537850
-537568
-537428
-537772
-538187
-538223
-537883
-537904
-538232
-538654
-538615
-538300
-538211
-538607
-539095
-539073
-538826
-538799
-539234
-539713
-539860
-539879
-540012
-540346
-540738
-540701
-540449
-540535
-541115
-541641
-541616
-541218
-541270
-541647
-542022
-542095
-541948
-541859
-542300
-542730
-542778
-542553
-542517
-542940
-543394
-543213
-543271
-543679
-544193
-544208
-543958
-544033
-544430
-544940
-544980
-544718
-544813
-545280
-545749
-545684
-545608
-545929
-546175
-546611
-546542
-546384
-546401
-546752
-547348
-547276
-547025
-547115
-547586
-548027
-548032
-547857
-547843
-548263
-548869
-548806
-548600
-548655
-549529
-549597
-549591
-549243
-549320
-549762
-550166
-550201
-549839
-549937
-550183
-550532
-550522
-550288
-550358
-550805
-551275
-551308
-550904
-550956
-551481
-551923
-552251
-551777
-551658
-552120
-552614
-552650
-552357
-552402
-552805
-553207
-553145
-552905
-552959
-553464
-553920
-553883
-553632
-553682
-554055
-554529
-554550
-554338
-554310
-554675
-555118
-555137
-554913
-554948
-555282
-555785
-555790
-555562
-555710
-556135
-556584
-556504
-556309
-556367
-556836
-557378
-557331
-557080
-556873
-557517
-558047
-558049
-557847
-557971
-558412
-558793
-558865
-558593
-558577
-558944
-559404
-559282
-558946
-558997
-559463
-559891
-559881
-559606
-559637
-559999
-560497
-560461
-560239
-560159
-560571
-561016
-560978
-560659
-560693
-561006
-561454
-561393
-561053
-561097
-561465
-561786
-561838
-561511
-561534
-561887
-562233
-562205
-561908
-561834
-562262
-562666
-562570
-562271
-562186
-562402
-562886
-562815
-562480
-562357
-562609
-562843
-562679
-562200
-561995
-562171
-562352
-561981
-561386
-561038
-561101
-560514
-559660
-559042
-558764
-558599
-557810
-556808
-556063
-555651
-555305
-554514
-553366
-552436
-552086
-551644
-550690
-549653
-548738
-548219
-547608
-546718
-545550
-544588
-544054
-543531
-542525
-541353
-540423
-539955
-539469
-538548
-537369
-536503
-536172
-535840
-535020
-534017
-533268
-533419
-532846
-532088
-531074
-530480
-530227
-529979
-529395
-528502
-527841
-527680
-527507
-526884
-526092
-525580
-525382
-525269
-524721
-523892
-523470
-523332
-523241
-522779
-521997
-521657
-521614
-521539
-521159
-520385
-520056
-520090
-520222
-519856
-519252
-519029
-519162
-519270
-519090
-518534
-518353
-518556
-518889
-518604
-518218
-518026
-518304
-518587
-518394
-518028
-517978
-518220
-518567
-518411
-518123
-518126
-518455
-518957
-518746
-518583
-518760
-519165
-519582
-519656
-519408
-519516
-519940
-520363
-520710
-520332
-520434
-520948
-521357
-521440
-521176
-521365
-521803
-522189
-522173
-521933
-522092
-522616
-522973
-522993
-522728
-522783
-523188
-523550
-523518
-523253
-523269
-523662
-523965
-523898
-523620
-523691
-524054
-524438
-524280
-523894
-523990
-524232
-524711
-524617
-524235
-524405
-524793
-525147
-525095
-524838
-524890
-525270
-525584
-525577
-525235
-525365
-525737
-526143
-525947
-525714
-525717
-526082
-526502
-526450
-526133
-526270
-526676
-526980
-526851
-526518
-526497
-526914
-527172
-527073
-526697
-526721
-526987
-527363
-527177
-526903
-526883
-527252
-527547
-527422
-527183
-527174
-527587
-527886
-527787
-527439
-527559
-527937
-528324
-528094
-527891
-527945
-528357
-528762
-528724
-528500
-528541
-528965
-529372
-529268
-528961
-529047
-529578
-529955
-529940
-529725
-529897
-530297
-530616
-530415
-530313
-530367
-530929
-531248
-531234
-530769
-531054
-531441
-531857
-531805
-531532
-531675
-532165
-532623
-532472
-532303
-532367
-532871
-533223
-533114
-532782
-532999
-533414
-533855
-533695
-533899
-533651
-534064
-534435
-534319
-534059
-534182
-534658
-535102
-534863
-534623
-534756
-535099
-535472
-535467
-535269
-535258
-535681
-536078
-536073
-535875
-535952
-536421
-536782
-536706
-536470
-536612
-537048
-537306
-537201
-536916
-537102
-537507
-537845
-537785
-537415
-537551
-537997
-538325
-538200
-537926
-538050
-538471
-538789
-538665
-538425
-538573
-539333
-540068
-540069
-539648
-539540
-539899
-540025
-540052
-539990
-540222
-540706
-541014
-540711
-540356
-540380
-540821
-541256
-541318
-541052
-541143
-541481
-541838
-541725
-541384
-541331
-541917
-542302
-542161
-541941
-542045
-542528
-542878
-542772
-542524
-542712
-543162
-543609
-543587
-543373
-543552
-543961
-544402
-544417
-544227
-544435
-544810
-545288
-545207
-544871
-545154
-545684
-546064
-545992
-545807
-545975
-546450
-546810
-546685
-546495
-546617
-547098
-547414
-547344
-547092
-547148
-547563
-547937
-547731
-547592
-547665
-548095
-548422
-548213
-548038
-548151
-548519
-548942
-548769
-548475
-548654
-549176
-549444
-549348
-549153
-549318
-549692
-550081
-549850
-549697
-549563
-550121
-550542
-550518
-550317
-550398
-550853
-551150
-551025
-550799
-551030
-551457
-551823
-551673
-551371
-551597
-551966
-552336
-552204
-551942
-552063
-552574
-552867
-552523
-552464
-552740
-553169
-553484
-553418
-553174
-553280
-553720
-554141
-554027
-553624
-553771
-554180
-554508
-554379
-554065
-554123
-554487
-554829
-554676
-554301
-554400
-554679
-554980
-554749
-554371
-554447
-554799
-554992
-554744
-554309
-554663
-554985
-554779
-554405
-554518
-554861
-555125
-554831
-554448
-554476
-555135
-555125
-554900
-554560
-554594
-554934
-555232
-554972
-554736
-554756
-555163
-555414
-555297
-554916
-555040
-555501
-555684
-555447
-555191
-555293
-555794
-556541
-557037
-557190
-557293
-557682
-557901
-557754
-557476
-557553
-557980
-558172
-558021
-557582
-557611
-558016
-558265
-558041
-557692
-557831
-558261
-558558
-558358
-557989
-558048
-558308
-558514
-558121
-557644
-557547
-558054
-557726
-557098
-556316
-555920
-555888
-555539
-553876
-553266
-553022
-552591
-551652
-550720
-550077
-549862
-549499
-548665
-547657
-547045
-546351
-545125
-543962
-543011
-542315
-541623
-540790
-539800
-538605
-538040
-537682
-537292
-536368
-535336
-534630
-534353
-533866
-532982
-532132
-531590
-531371
-531003
-530192
-529271
-528886
-528807
-528621
-527902
-527079
-526681
-526398
-526136
-525335
-524462
-524047
-523970
-523637
-522866
-522069
-521739
-521639
-521380
-520620
-519866
-519469
-519340
-519140
-518519
-517857
-517568
-517557
-517440
-516905
-516240
-516134
-516323
-516286
-515953
-515618
-516325
-517534
-517938
-517540
-516928
-516832
-516965
-517004
-516751
-516363
-516594
-517080
-517537
-517438
-517413
-517720
-518265
-518678
-518640
-518569
-518995
-519531
-519965
-519974
-519760
-520179
-520752
-521264
-521281
-521231
-521518
-522039
-522464
-522417
-522298
-522648
-523192
-523605
-523554
-523320
-523662
-524177
-524530
-524424
-524274
-524467
-524916
-525224
-525082
-524786
-525013
-525428
-525791
-525652
-525212
-525429
-525833
-525999
-525788
-525509
-525640
-526011
-526161
-526279
-525721
-525744
-526109
-526311
-526057
-525641
-525836
-526216
-526441
-526190
-525883
-525945
-526369
-526651
-526320
-526110
-526204
-526544
-526793
-526632
-526334
-526503
-526933
-527158
-527024
-526827
-527073
-527480
-527787
-527561
-527413
-527570
-528004
-528258
-528089
-527870
-528224
-528651
-528931
-528790
-528632
-528870
-529376
-529698
-529580
-529336
-529658
-530041
-530497
-530428
-530225
-530509
-531068
-531400
-531331
-531206
-531625
-532188
-532645
-532541
-532458
-532787
-533414
-533711
-533622
-533566
-533895
-534537
-534855
-534781
-534676
-535071
-535679
-535972
-536012
-535991
-536243
-536891
-537230
-537173
-537133
-537567
-538171
-538597
-538584
-538449
-538790
-539536
-539936
-539938
-539892
-540314
-541022
-541423
-541413
-541351
-541860
-542426
-542838
-542709
-542661
-543011
-543597
-544017
-544012
-543848
-544052
-544681
-544917
-544847
-544614
-544944
-545515
-545820
-545701
-545624
-545885
-546087
-545502
-545114
-544954
-545681
-546273
-546658
-546724
-546669
-546898
-547443
-547659
-547435
-547183
-547417
-547925
-548117
-547846
-547615
-547693
-548229
-548396
-548137
-547994
-548228
-548690
-548884
-548606
-548332
-548608
-549003
-549215
-549092
-548896
-549129
-549576
-549693
-549424
-549152
-549453
-549930
-550144
-549796
-549517
-549792
-550201
-550504
-550304
-550088
-550714
-550890
-550996
-550837
-550642
-550864
-551344
-551588
-551311
-551101
-551428
-551921
-552080
-551967
-551764
-552063
-552523
-552681
-552535
-552324
-552672
-553169
-553420
-553183
-553051
-553423
-553901
-554094
-553991
-553812
-554075
-554613
-554794
-554584
-554495
-554853
-555314
-555564
-555193
-555081
-555384
-555898
-556021
-555712
-555732
-556029
-556571
-556838
-556633
-556450
-556810
-557263
-557450
-557290
-557056
-557350
-557918
-558059
-557858
-557524
-558014
-558444
-558748
-558575
-558417
-558768
-559238
-559511
-559332
-559287
-559632
-560085
-560377
-560191
-560012
-560347
-560836
-561136
-560808
-560684
-561026
-561584
-561808
-561478
-561380
-561614
-562110
-562271
-562026
-561946
-562218
-562711
-562938
-562748
-562551
-562848
-563298
-563508
-563274
-563031
-563248
-563779
-564020
-563695
-563646
-563781
-564350
-564668
-564491
-564351
-564651
-565034
-565312
-565067
-564973
-565276
-565762
-566073
-565819
-565745
-566085
-566592
-566711
-566481
-566336
-566586
-567065
-567244
-567057
-566966
-567211
-567632
-567775
-567585
-567397
-567698
-568152
-568302
-568075
-567871
-568158
-568643
-568772
-568507
-568366
-568587
-568995
-569124
-568918
-568724
-568807
-569268
-569460
-569187
-568878
-569164
-569648
-569792
-569488
-569320
-569530
-569848
-569872
-569355
-568973
-569103
-569153
-569014
-568458
-567904
-567741
-567683
-567369
-566544
-565851
-565608
-565426
-564892
-563957
-563038
-562565
-562180
-561517
-560320
-559227
-558610
-558061
-557234
-556000
-554817
-554032
-553484
-552724
-551490
-550389
-549746
-549371
-548625
-547386
-546526
-546365
-545715
-544976
-543952
-542957
-542527
-542219
-541520
-540531
-539787
-539465
-539125
-538595
-537727
-537032
-536609
-536483
-535924
-535076
-534399
-534100
-534030
-533534
-532861
-532205
-531971
-531959
-531595
-530894
-530322
-530143
-530104
-529864
-529215
-528718
-528673
-528783
-528523
-527889
-527497
-527507
-527718
-527526
-526999
-526639
-526688
-526917
-526736
-526222
-525887
-526117
-526331
-526228
-525810
-525550
-525749
-526085
-526114
-525764
-525594
-525855
-526272
-526036
-525980
-525894
-526277
-526634
-526704
-526486
-526525
-526898
-527356
-527500
-527287
-527259
-527705
-528290
-528450
-528312
-528411
-528750
-529201
-529400
-529245
-529182
-529698
-530254
-530362
-530095
-530120
-530479
-531022
-531187
-530938
-530842
-531162
-531718
-531780
-531591
-531521
-531901
-532111
-532328
-531976
-531914
-532169
-532535
-532630
-532316
-532202
-532527
-533425
-533182
-532748
-532531
-532803
-533244
-533322
-532973
-532833
-533217
-533629
-533688
-533337
-533228
-533541
-533955
-533957
-533709
-533461
-533812
-534234
-534291
-533976
-533907
-534211
-534634
-534621
-534309
-534162
-534526
-534915
-535015
-534699
-534510
-534836
-535260
-535221
-534958
-534702
-534989
-535376
-535393
-535095
-534967
-535200
-535636
-535738
-535428
-535275
-535496
-535992
-535927
-535674
-535563
-535855
-536280
-536221
-535940
-535849
-536047
-536540
-536556
-536344
-536252
-536581
-536964
-536958
-536720
-536640
-537116
-538098
-538698
-538442
-537961
-538130
-538421
-538863
-538945
-538902
-538956
-539279
-539518
-539594
-539690
-539809
-539957
-539825
-539874
-540227
-540586
-540815
-540659
-540271
-540226
-540799
-541594
-541688
-541415
-541246
-541583
-541998
-542004
-541762
-541881
-542453
-542976
-542988
-542973
-543104
-543629
-544255
-544372
-544201
-544462
-544966
-545542
-545689
-545605
-545741
-546253
-546822
-547029
-546791
-546943
-547445
-548088
-548142
-548057
-548061
-548666
-549124
-549347
-549130
-549139
-549669
-550193
-550263
-550186
-550136
-550623
-551095
-551156
-551018
-551042
-551495
-551990
-552166
-551990
-551974
-552396
-552890
-552942
-552788
-552712
-553210
-553693
-553735
-553511
-553470
-553810
-554280
-554306
-554092
-554155
-554557
-555039
-555091
-554806
-554822
-555172
-555665
-555691
-555461
-555447
-555888
-556346
-556452
-556171
-556213
-556639
-557062
-557097
-556837
-556854
-557168
-557616
-557572
-557259
-557096
-557184
-557274
-557210
-556831
-556902
-557441
-558007
-558173
-557922
-557938
-558380
-558931
-558911
-558730
-558728
-559237
-559715
-559608
-559266
-559332
-559686
-560134
-560040
-559750
-559769
-560073
-560191
-559924
-559446
-559466
-559909
-560436
-560456
-560329
-560395
-560828
-561282
-561316
-561128
-561141
-561533
-561961
-561995
-561705
-561737
-562133
-562557
-562594
-562359
-562456
-562981
-563358
-563342
-563124
-563149
-563657
-564110
-564147
-563865
-563947
-564353
-564790
-564522
-563802
-563446
-563672
-564039
-564156
-564141
-564269
-565187
-565403
-565316
-565038
-565139
-565426
-565969
-565903
-565638
-565724
-566133
-566531
-566441
-566165
-566148
-566624
-567080
-566909
-566752
-566802
-567095
-567512
-567505
-567172
-567300
-567737
-568122
-568008
-567585
-567614
-567956
-568345
-568346
-568386
-568087
-568438
-568752
-568654
-568348
-568370
-568764
-569110
-569069
-568817
-568799
-569178
-569554
-569556
-569236
-569193
-569560
-569961
-569919
-569571
-569572
-569922
-570341
-570220
-569999
-570006
-570744
-570700
-570377
-570072
-570042
-570177
-570375
-570129
-569574
-569347
-569234
-569490
-569132
-568475
-567986
-567971
-567847
-567124
-566300
-565645
-565317
-565075
-564138
-563126
-562353
-561766
-561391
-560469
-559276
-558421
-557952
-557412
-556357
-555111
-554200
-553681
-553173
-552240
-551031
-550139
-549686
-549219
-548199
-545890
-545462
-544661
-543713
-543027
-542846
-542512
-541800
-540852
-540373
-540211
-539913
-539253
-538510
-537943
-537864
-537756
-537048
-536300
-535885
-535917
-535845
-535274
-534643
-534349
-534307
-534222
-533860
-533183
-532838
-532930
-533006
-532551
-531833
-531655
-531722
-531335
-530860
-530664
-530817
-530990
-530665
-530158
-529983
-530242
-530459
-530095
-529667
-529609
-529793
-530066
-529898
-529451
-529523
-529813
-530118
-529961
-529693
-529720
-530127
-530516
-530357
-530176
-530185
-530708
-531189
-531147
-530909
-531169
-531696
-532158
-532174
-532048
-532237
-532726
-533191
-533132
-532967
-533234
-533779
-534234
-534215
-533990
-534186
-534648
-535001
-534934
-534770
-534924
-535387
-536129
-535834
-534905
-535397
-535930
-536343
-536304
-536098
-536099
-536632
-536604
-536745
-537034
-537305
-537170
-536975
-537037
-537397
-537778
-537568
-537276
-537347
-537612
-537983
-537864
-537597
-537714
-538066
-538342
-538281
-537913
-538002
-538387
-538720
-538561
-538340
-538350
-538842
-539133
-538944
-538683
-538779
-539164
-539451
-539383
-539066
-539112
-539541
-539910
-539761
-539454
-539556
-539581
-539328
-538830
-538553
-538648
-539198
-539613
-539612
-539434
-539689
-540104
-540378
-540182
-539927
-540064
-540542
-540890
-540708
-540458
-540592
-540949
-541337
-540957
-540394
-540388
-540882
-541197
-541157
-540962
-541151
-541661
-541953
-541849
-541607
-541764
-542191
-542543
-542387
-542212
-542323
-542732
-543193
-542987
-542748
-542908
-543349
-543635
-543419
-543142
-543176
-543659
-543882
-543725
-543355
-543474
-543948
-544157
-543936
-543715
-543793
-544221
-544460
-544287
-544001
-544078
-544427
-544576
-544338
-544110
-544183
-544643
-544757
-544596
-544159
-544347
-544789
-544898
-544701
-544483
-544645
-545082
-545291
-545034
-544827
-544909
-545321
-545576
-545413
-545101
-545314
-545695
-545954
-545741
-545509
-545702
-546053
-546368
-546179
-545890
-546049
-546455
-546743
-546589
-546231
-546393
-546889
-547178
-547035
-546733
-546906
-547388
-547550
-547370
-547151
-547336
-547731
-547938
-547708
-547538
-547653
-548019
-548245
-548035
-547828
-547779
-547787
-547702
-547471
-547225
-547523
-548055
-548340
-548095
-547874
-548096
-548429
-548649
-548425
-548144
-548348
-548762
-548921
-548658
-548405
-548508
-548929
-549079
-548727
-548425
-548439
-548913
-549094
-548783
-548531
-548653
-548975
-549152
-548897
-548539
-548670
-549031
-549211
-549003
-548762
-548931
-549345
-549405
-549175
-549017
-549192
-549625
-549811
-549618
-549429
-549542
-550158
-550330
-550152
-549941
-550202
-550712
-550941
-550719
-550550
-550797
-551042
-551488
-551211
-551024
-551238
-551642
-551383
-550618
-550340
-550779
-551303
-551672
-551443
-551239
-551260
-551566
-551705
-551521
-551446
-551778
-552286
-552560
-552467
-552222
-552518
-552918
-553200
-553065
-552855
-553144
-553601
-553741
-553418
-553144
-553473
-553994
-554200
-554019
-553799
-554108
-554532
-554718
-554445
-554392
-554628
-555126
-555334
-555078
-554831
-554926
-555462
-555600
-555335
-554977
-555113
-555586
-555621
-555237
-554930
-555149
-555503
-555527
-555232
-554976
-555097
-555411
-555461
-555045
-554733
-554970
-555227
-555330
-554927
-554663
-554975
-555974
-556418
-556023
-555481
-555530
-555882
-556329
-556470
-556145
-556026
-556245
-556145
-555704
-555568
-555888
-556160
-556013
-555466
-554924
-554858
-554999
-554835
-554501
-554187
-553987
-553880
-553453
-552540
-551733
-551321
-551463
-551208
-550365
-549520
-549173
-548855
-548257
-547303
-546464
-546037
-545818
-545396
-544516
-543742
-543385
-543247
-542776
-542012
-541180
-540944
-540844
-540390
-539658
-538924
-538664
-538640
-538180
-537491
-536903
-536676
-536652
-536348
-535595
-534922
-534757
-535037
-534427
-533689
-532978
-532920
-532919
-532651
-531982
-531423
-531263
-531191
-531081
-529956
-529804
-529932
-529751
-529200
-528619
-528637
-528717
-528545
-527829
-527423
-527477
-527599
-527277
-526724
-526302
-526348
-526482
-526281
-525896
-525641
-525615
-525890
-525839
-525384
-525104
-525313
-525561
-525585
-525275
-524996
-525183
-525569
-525678
-525341
-525150
-525398
-525919
-525976
-525749
-525596
-525968
-526474
-526639
-526478
-526432
-526826
-527346
-527606
-527489
-527475
-527848
-528405
-528701
-528627
-528682
-529096
-529748
-529996
-529880
-529953
-530424
-531034
-531228
-531031
-530927
-531320
-531902
-532040
-531834
-531745
-532070
-532420
-532441
-532220
-532089
-532291
-532762
-532763
-532494
-532299
-532561
-533041
-533087
-532723
-532497
-532751
-533166
-533148
-532745
-532617
-533008
-533322
-533422
-533118
-532974
-533283
-533639
-533665
-533433
-533279
-533627
-533989
-534061
-533755
-533726
-534093
-534561
-534610
-534405
-534228
-534608
-535072
-535166
-534846
-534732
-535080
-535499
-535518
-535263
-535094
-535417
-535903
-535999
-535683
-535654
-535890
-536326
-536407
-536138
-536081
-536411
-536933
-536945
-536736
-536666
-537053
-537514
-537660
-537479
-537403
-537772
-538308
-538434
-538258
-538219
-538568
-539029
-539218
-538940
-538956
-539256
-539707
-539683
-539828
-539474
-539763
-540316
-540338
-540038
-539947
-540359
-540804
-541308
-540842
-540584
-540856
-541281
-541336
-541121
-541087
-541429
-541827
-541927
-541618
-541675
-542002
-542474
-542543
-542248
-542255
-542683
-543100
-543172
-542804
-542824
-543206
-543737
-543662
-543364
-543309
-543747
-544150
-544178
-543882
-543853
-544180
-544600
-544654
-544441
-544321
-544762
-545256
-545311
-545087
-544982
-545448
-545874
-545901
-545662
-545746
-546143
-546570
-546660
-546473
-546537
-546974
-547482
-547515
-547291
-547290
-547738
-548294
-548332
-548216
-548137
-548636
-548968
-548985
-548756
-548766
-549126
-549532
-549662
-549444
-549489
-549888
-550293
-550346
-550066
-550087
-550471
-551004
-550949
-550617
-550656
-551047
-551448
-551352
-551024
-551397
-551814
-551747
-551449
-551392
-551769
-552184
-552211
-552020
-552034
-552379
-552780
-552757
-552539
-552410
-552862
-553258
-553194
-552857
-552929
-553310
-553785
-553729
-553458
-553519
-553961
-554397
-554355
-554087
-554191
-554559
-554965
-554895
-554621
-554677
-555077
-555549
-555460
-555226
-555271
-555708
-556109
-556131
-555877
-555911
-556329
-556764
-556838
-556496
-556470
-556978
-557402
-557393
-557203
-557230
-557577
-557978
-558330
-557877
-557916
-558304
-558749
-558777
-558465
-558478
-558973
-559365
-559268
-558969
-559045
-559518
-559960
-559893
-559536
-559694
-560080
-560474
-560464
-560112
-560156
-560651
-561074
-561018
-560799
-560875
-561294
-561775
-561707
-561510
-561598
-562053
-562388
-562482
-562102
-562175
-562646
-563171
-563107
-562888
-562967
-563425
-563777
-563837
-563612
-563742
-564210
-564729
-564679
-564497
-564591
-565150
-565538
-565534
-565325
-565443
-565961
-566398
-566341
-566095
-566246
-566671
-567194
-567141
-566879
-567042
-567614
-568069
-567898
-567660
-567768
-568319
-568718
-568646
-568359
-568458
-568874
-569300
-569242
-568979
-569030
-569331
-569286
-568648
-568140
-568052
-568663
-569134
-569163
-568889
-569029
-569434
-569696
-569454
-569164
-569194
-569506
-569755
-569595
-569110
-569066
-569367
-569523
-569234
-568766
-568618
-568846
-568888
-568426
-567632
-567365
-567171
-566931
-566224
-565651
-564802
-564322
-563788
-562756
-561641
-560839
-560308
-559690
-558593
-557344
-556487
-555930
-555301
-554162
-552939
-552067
-551528
-550880
-549706
-548568
-547851
-547376
-546887
-545953
-544856
-544181
-543825
-543379
-542478
-541510
-540886
-540621
-540251
-539359
-538495
-537938
-537679
-537440
-536650
-535827
-535292
-535182
-534930
-534264
-533503
-533052
-532969
-532785
-532210
-531462
-531050
-530964
-530814
-530247
-529518
-529170
-529251
-529173
-528547
-527902
-527614
-527781
-527665
-527245
-526609
-526423
-526378
-526376
-525974
-525368
-525274
-525367
-525410
-525032
-524564
-524493
-524759
-524804
-524527
-524043
-524071
-524344
-524502
-524259
-523913
-523985
-524316
-524474
-524315
-524010
-524037
-524408
-524711
-524420
-524086
-524275
-524715
-524997
-524783
-524521
-524633
-525135
-525460
-525304
-525113
-525207
-525709
-526071
-525911
-525763
-525918
-526326
-526654
-526538
-526354
-526571
-527075
-527290
-527116
-526870
-527014
-527488
-527649
-527465
-527166
-527312
-527697
-527933
-527715
-527396
-527454
-527811
-528097
-527891
-527460
-527762
-528116
-528401
-528079
-527795
-527939
-528237
-528505
-528243
-527934
-528006
-528376
-528575
-528230
-527900
-527978
-528376
-528520
-528234
-527896
-528019
-528353
-528588
-528365
-528112
-528179
-528625
-528866
-528628
-528431
-528588
-528964
-529250
-529065
-528827
-528938
-529452
-529589
-529488
-529354
-529483
-529929
-530146
-529844
-529624
-529769
-530106
-530249
-530013
-529638
-529802
-530051
-530276
-530036
-529745
-529939
-530326
-530717
-530962
-531212
-531396
-531706
-531776
-531335
-531102
-531289
-531706
-532082
-532162
-531995
-532155
-532545
-532733
-532503
-532122
-532441
-532828
-533111
-532840
-532554
-532962
-533444
-533671
-533483
-533323
-533588
-533982
-534212
-534126
-533917
-534144
-534592
-534775
-534621
-534357
-534612
-535099
-535382
-535008
-534789
-535032
-535476
-535654
-535516
-535316
-535646
-536161
-536533
-536553
-536651
-537026
-537472
-537599
-537398
-537287
-537473
-538380
-538197
-538076
-538033
-538181
-538728
-538985
-538929
-538748
-538989
-539526
-539759
-539511
-539377
-539864
-540199
-540395
-540203
-540042
-540359
-540825
-541061
-540927
-540826
-541096
-541493
-541696
-541559
-541385
-541677
-542151
-542255
-541937
-541787
-542066
-542533
-542641
-542479
-542310
-542566
-542997
-543224
-542955
-542812
-543062
-543515
-543690
-543532
-543437
-543790
-544294
-544527
-544310
-544149
-544424
-544951
-545173
-544991
-544757
-545034
-545476
-545633
-545345
-545220
-545622
-546014
-546166
-545977
-545827
-546076
-546532
-546757
-546570
-546460
-546765
-547222
-547387
-547182
-547043
-547405
-547855
-547895
-547695
-547549
-547737
-548279
-548191
-548001
-547851
-548050
-548323
-548515
-548201
-548008
-548167
-548572
-548692
-548331
-548059
-548297
-548672
-548789
-548505
-548313
-548506
-548930
-549052
-548760
-548553
-548862
-549198
-549270
-548960
-548751
-548974
-549431
-549463
-549113
-548880
-549141
-549489
-549545
-549139
-548839
-549085
-549354
-549511
-549100
-548858
-549109
-549521
-549552
-549157
-548880
-549171
-549563
-549581
-549303
-549188
-549463
-549875
-549967
-549732
-549652
-549986
-550510
-550643
-550464
-550339
-550733
-551179
-551282
-551042
-551038
-551466
-551955
-552059
-551882
-551761
-552132
-552566
-552750
-552605
-552903
-553001
-553427
-553524
-553049
-553179
-553551
-554064
-554209
-553859
-553742
-554045
-554528
-554575
-554273
-554164
-554473
-554904
-554796
-554463
-554559
-554951
-555420
-555482
-555231
-555140
-555598
-555961
-555966
-555698
-555607
-555905
-556324
-556353
-556028
-555821
-556075
-556449
-556345
-555882
-555617
-555742
-555974
-555797
-555309
-554768
-554807
-554753
-554419
-553553
-553004
-552930
-552565
-551928
-551018
-550256
-549929
-549600
-548939
-547907
-547066
-546643
-546281
-545552
-544524
-543744
-543210
-542905
-542226
-541283
-540451
-540190
-539740
-539167
-538132
-537716
-537181
-536919
-536278
-535448
-534793
-534514
-534343
-533794
-533002
-532405
-532179
-532064
-531552
-530716
-530084
-529955
-529801
-529330
-528479
-527868
-528057
-527718
-527221
-526365
-525815
-525620
-525618
-525158
-524433
-523869
-523674
-523691
-523266
-522500
-522062
-521912
-521926
-521517
-520892
-520498
-520480
-520569
-520246
-519736
-519328
-519450
-519582
-519275
-518769
-518638
-518771
-519009
-518889
-518859
-519237
-519402
-519608
-519393
-518849
-518645
-518773
-519083
-519036
-518643
-518644
-518896
-519307
-519157
-518945
-518965
-519441
-519925
-519946
-519656
-519706
-520192
-520650
-520828
-520699
-520834
-521335
-521795
-521918
-521847
-521994
-522557
-523097
-523023
-522957
-523068
-523682
-524155
-524241
-524100
-524206
-524761
-525278
-525347
-525190
-525337
-525768
-526258
-526278
-526124
-526111
-526594
-527104
-527181
-526999
-527010
-527361
-527731
-527754
-527478
-527551
-527937
-528304
-528207
-527947
-527920
-528293
-528659
-528583
-528331
-528276
-528616
-528951
-528824
-528468
-528473
-528770
-529052
-528926
-528529
-528545
-528808
-529135
-529053
-528658
-528665
-529098
-529483
-529375
-529099
-529174
-529561
-529930
-529871
-529614
-529701
-530122
-530530
-530422
-530142
-530218
-530628
-530969
-530939
-530620
-530784
-531216
-531606
-531571
-531420
-531496
-531912
-532399
-532334
-532103
-532259
-532637
-533044
-533037
-532818
-532909
-533438
-533749
-533651
-533468
-533570
-533966
-534340
-534271
-534042
-534117
-534503
-534859
-534835
-534569
-534575
-535075
-535503
-535463
-535185
-535293
-535713
-536169
-535856
-536048
-536477
-536862
-536803
-536594
-536681
-537140
-537613
-537548
-537308
-537358
-537869
-538173
-538120
-537853
-537940
-538329
-538717
-538624
-538335
-538445
-538810
-539127
-538950
-538719
-538767
-539172
-539507
-539346
-539006
-539113
-539469
-539603
-539521
-539133
-539275
-539671
-539803
-539834
-539526
-539714
-540011
-540264
-540181
-539901
-540250
-540445
-540671
-540423
-540188
-540207
-540522
-541367
-540882
-540355
-540344
-540728
-541040
-540831
-540567
-540621
-540933
-541250
-541120
-540830
-540732
-541069
-541286
-541076
-540696
-540670
-541077
-541297
-541054
-540724
-540755
-541053
-541268
-541068
-540791
-540800
-541203
-541402
-541228
-540885
-540925
-541382
-541668
-541493
-541207
-541308
-541712
-541946
-541730
-541410
-541427
-541697
-541975
-541694
-541356
-541413
-541636
-541900
-541484
-541333
-541379
-541748
-541962
-541804
-541550
-541635
-541977
-542206
-542020
-541805
-541907
-542121
-542527
-542345
-541993
-542112
-542457
-542665
-542426
-542116
-542267
-542594
-542778
-542513
-542309
-542321
-542666
-542816
-542656
-542366
-542455
-542849
-543048
-542852
-542461
-542581
-542952
-543222
-542955
-542594
-542759
-543160
-543273
-543040
-542878
-542943
-543349
-543608
-543284
-543223
-543225
-543719
-543936
-543674
-543454
-543548
-544084
-544322
-544169
-543898
-544130
-544601
-544891
-544677
-544398
-544595
-545073
-545318
-545185
-544960
-545175
-545705
-545921
-545767
-545580
-545800
-546247
-546479
-546322
-546166
-546338
-546830
-547067
-547029
-546765
-546925
-547408
-547710
-547620
-547343
-547567
-548073
-548316
-548092
-547908
-548162
-548572
-548823
-548648
-548497
-548659
-549179
-549453
-549267
-549129
-549382
-549916
-550142
-550003
-549800
-550046
-550532
-550812
-550695
-550473
-550673
-551227
-551539
-551377
-551121
-551421
-551850
-552103
-551935
-551769
-552030
-552503
-552697
-552528
-552216
-552497
-552949
-553264
-553103
-552862
-553123
-553507
-553792
-553537
-553354
-553519
-553972
-554075
-553856
-553566
-553705
-553878
-553994
-553528
-553170
-553194
-553276
-553161
-552468
-551877
-551589
-551480
-551026
-550171
-549290
-548790
-548576
-547962
-547074
-546061
-545820
-545210
-544489
-543385
-542339
-541758
-541213
-540698
-539729
-538599
-538093
-537707
-537095
-536161
-535139
-534678
-534452
-533953
-532962
-532146
-531745
-531525
-531038
-530203
-529480
-529193
-527882
-527128
-526890
-526665
-526464
-525826
-525187
-524975
-524937
-524696
-524043
-523494
-523312
-523371
-523146
-522485
-521901
-521813
-521844
-521577
-519441
-519623
-519505
-519021
-518655
-518780
-518800
-518826
-518467
-518122
-518192
-518454
-518424
-517966
-517644
-517790
-518071
-518172
-517857
-517597
-517778
-518154
-518172
-517892
-517747
-517907
-518332
-518376
-518236
-518086
-518334
-518813
-519085
-518996
-519009
-519295
-519806
-520102
-520031
-519997
-520417
-520924
-521092
-520956
-520873
-521144
-521833
-522059
-521966
-521897
-522291
-522830
-523047
-522868
-522792
-523188
-523583
-523765
-523541
-523414
-523746
-524184
-524337
-524057
-523899
-524212
-524549
-524666
-524392
-524283
-524561
-524986
-525113
-524794
-524635
-524801
-525177
-525170
-524952
-524699
-524898
-525281
-525278
-525047
-524849
-524996
-525475
-525532
-525256
-525051
-525257
-525708
-525774
-525469
-525444
-526028
-526879
-526930
-526578
-526275
-526372
-526729
-526749
-526474
-526290
-526708
-527079
-527086
-526886
-526782
-527058
-527603
-527773
-527479
-527323
-527578
-528040
-528188
-528022
-527964
-528278
-528772
-528916
-528740
-528596
-528959
-529435
-529600
-529392
-529354
-529715
-530203
-530312
-530102
-529980
-530367
-530849
-530931
-530721
-530609
-531036
-531449
-531455
-531348
-531260
-531572
-532037
-532139
-531879
-531836
-532207
-532702
-532708
-532479
-532364
-532768
-533225
-533231
-533130
-533018
-533339
-533875
-533900
-533728
-533608
-533995
-534472
-534588
-534384
-534256
-534766
-535159
-535201
-535008
-534856
-535315
-535792
-535868
-535683
-535618
-535952
-536394
-536486
-536281
-536202
-536407
-537033
-537098
-536882
-536813
-537152
-537694
-537752
-537541
-537443
-537745
-538258
-538291
-538115
-538080
-538498
-539012
-539072
-538872
-538816
-539069
-539406
-539220
-538902
-538823
-538875
-538981
-538782
-538431
-538365
-538712
-539309
-539523
-539397
-539449
-539808
-539994
-540148
-540011
-540048
-540593
-541021
-541108
-540802
-540803
-541096
-541598
-541675
-541464
-541454
-541725
-542134
-541990
-541525
-541449
-541791
-542164
-541964
-541548
-541499
-541788
-542230
-542282
-542085
-542105
-542456
-542717
-542650
-542354
-542283
-542676
-543167
-543105
-542781
-542698
-542942
-543338
-543311
-543044
-542966
-543272
-543647
-543558
-543169
-543101
-543440
-543842
-543835
-543472
-543411
-543716
-544000
-543948
-543624
-543621
-543890
-544179
-543825
-543761
-544142
-544577
-544559
-544159
-544180
-544442
-544828
-544727
-544370
-544353
-544756
-545158
-545074
-544723
-544727
-545129
-545498
-545311
-545066
-545064
-545485
-545817
-545773
-545437
-545474
-545843
-546213
-546103
-545847
-545818
-546290
-546624
-546592
-546383
-546780
-547225
-547161
-546933
-546878
-547297
-547779
-547665
-547413
-547476
-548023
-548485
-548605
-548447
-548543
-549054
-549511
-549575
-549380
-549540
-550035
-550466
-550422
-550227
-550375
-550864
-551310
-551319
-551242
-551276
-551792
-552291
-552361
-552160
-552326
-552784
-553306
-553262
-553098
-553146
-553609
-554087
-554135
-553878
-554067
-554555
-554989
-555068
-554778
-554920
-555452
-555871
-555927
-555721
-555838
-556297
-556751
-556773
-556570
-556586
-557012
-557164
-557010
-556800
-556699
-556974
-557286
-557096
-556815
-556727
-557225
-557637
-557599
-557455
-557456
-557880
-558173
-558042
-557719
-557801
-558234
-558533
-558263
-557902
-558239
-558502
-558299
-558001
-558032
-558375
-558648
-558366
-557977
-558003
-558250
-558428
-558218
-557675
-557410
-557542
-557568
-557131
-556398
-556051
-555937
-555769
-555152
-554301
-553710
-553505
-552999
-552197
-551219
-550620
-550242
-549780
-548921
-547799
-547122
-546870
-546379
-545507
-544487
-543825
-543502
-543138
-542301
-541286
-540630
-540406
-539997
-539282
-538285
-537807
-537597
-537295
-536515
-535684
-535260
-535129
-534931
-534226
-533451
-533041
-532902
-532750
-532049
-531392
-531066
-530931
-530812
-530253
-529594
-529344
-529266
-529154
-528650
-528095
-527855
-527879
-527843
-527330
-526749
-526586
-526682
-526715
-526346
-525729
-525552
-525802
-525813
-525459
-524949
-524801
-525055
-525179
-524786
-524405
-524299
-524513
-524680
-524481
-524083
-524135
-524379
-524558
-524324
-523946
-524069
-524422
-524701
-524447
-524237
-524376
-524836
-525146
-525069
-524789
-524939
-525431
-525869
-525706
-525581
-525835
-526368
-526781
-526732
-526634
-526896
-527399
-527890
-527789
-527730
-528000
-528481
-528910
-528943
-528775
-528994
-529573
-529936
-529785
-529650
-529888
-530388
-530760
-530582
-530402
-530503
-530886
-531186
-530998
-530744
-530893
-531303
-531579
-531387
-531093
-531241
-531664
-531838
-531582
-531360
-531429
-531917
-532126
-532009
-531696
-531890
-532294
-532512
-532335
-532152
-532277
-532667
-532987
-532863
-532596
-532771
-533244
-533472
-533318
-533132
-533257
-533669
-533942
-533730
-533585
-533732
-534138
-534372
-534238
-534210
-534654
-534910
-534836
-534626
-534800
-535186
-535493
-535356
-535099
-535443
-535838
-536031
-535910
-535689
-535893
-536227
-536564
-536491
-536285
-536493
-536923
-537218
-536975
-536808
-536988
-537489
-537733
-537600
-537368
-537641
-538032
-538267
-538088
-537852
-538109
-538490
-538721
-538555
-538258
-538532
-538939
-539125
-539015
-538836
-539024
-539597
-539840
-539721
-539542
-539833
-540345
-540534
-540445
-540315
-540558
-541041
-541341
-541169
-541049
-541405
-541871
-542178
-542018
-541873
-542148
-542681
-543000
-542699
-542596
-542952
-543447
-543561
-543387
-543190
-543448
-543856
-544018
-543839
-543540
-543714
-544175
-544221
-543967
-543662
-543796
-544160
-544289
-543987
-543701
-543916
-544362
-544522
-544230
-544067
-544273
-544694
-544869
-544698
-544515
-544712
-545153
-545273
-545041
-544801
-544980
-545407
-545552
-545230
-545022
-545301
-545637
-545762
-545564
-545358
-545646
-546037
-546278
-545967
-545793
-546336
-546612
-546764
-546516
-546383
-546641
-547133
-547252
-547023
-546921
-547221
-547723
-547917
-547751
-547583
-547938
-548403
-548627
-548491
-548418
-548840
-549346
-549603
-549382
-549324
-549732
-550222
-550365
-550194
-550137
-550437
-550959
-551136
-550918
-550860
-551184
-551699
-551878
-551672
-551516
-551966
-552456
-552634
-552409
-552332
-552642
-553151
-553298
-553105
-553042
-553288
-553721
-553784
-553659
-553426
-553755
-554193
-554270
-553875
-553758
-553979
-554358
-554316
-553986
-553780
-553977
-554412
-554436
-553991
-553853
-554116
-554440
-554534
-554111
-553719
-554043
-554522
-554556
-554278
-554142
-554406
-554884
-554972
-554749
-554612
-555276
-555936
-556162
-555825
-555697
-555908
-556310
-556369
-556086
-556004
-556385
-556843
-556997
-556716
-556654
-556938
-557449
-557542
-557315
-557306
-557632
-558087
-558267
-558064
-557909
-558300
-558862
-559069
-558919
-558794
-559174
-559729
-559838
-559629
-559479
-559713
-560305
-560475
-560209
-560097
-560406
-560886
-561018
-560752
-560620
-560952
-561307
-561402
-561083
-560973
-561279
-561737
-561806
-561589
-561410
-561801
-562145
-562223
-561942
-561817
-562282
-562641
-562760
-562490
-562348
-562808
-563188
-563356
-563057
-562978
-563343
-563859
-563916
-563756
-563716
-564050
-564537
-564641
-564405
-564395
-564760
-565139
-565316
-565065
-564944
-565352
-565771
-565973
-565697
-565661
-565993
-566529
-566366
-566257
-566210
-566598
-567109
-567127
-566908
-566801
-567204
-567652
-567734
-567433
-567756
-568106
-568083
-567725
-567545
-567867
-568075
-568156
-567527
-567128
-567183
-567354
-567091
-566531
-566061
-565874
-565851
-565353
-564551
-563894
-563554
-563370
-562638
-561510
-560525
-560230
-559866
-559254
-558254
-557300
-556934
-556597
-555761
-554757
-553893
-553366
-553020
-552264
-551266
-550417
-550065
-549739
-549032
-548078
-547442
-547189
-546936
-546366
-545542
-544835
-544648
-544474
-543937
-543160
-542498
-542309
-542231
-541804
-541012
-540506
-540498
-540445
-539999
-539418
-539089
-539027
-539009
-538670
-538092
-537687
-537802
-537965
-537645
-537134
-536857
-537015
-537206
-537001
-536506
-536253
-536421
-536657
-536464
-535965
-535788
-536080
-536327
-536204
-535819
-535649
-535890
-536243
-536142
-535780
-535562
-535959
-536221
-536186
-535851
-535862
-536217
-536632
-536584
-536395
-536282
-536837
-537241
-537275
-537045
-537205
-537577
-538035
-538162
-537912
-538130
-538597
-539061
-539209
-538997
-539099
-539533
-540139
-540185
-540011
-540064
-540534
-540953
-540941
-540691
-540697
-541099
-541571
-541474
-541263
-541245
-541687
-542066
-542035
-541720
-541659
-542007
-542489
-542782
-542691
-542629
-542894
-543041
-543008
-542661
-542787
-543282
-543509
-543461
-543121
-542941
-543245
-543608
-543535
-543258
-543363
-543724
-544107
-543980
-543773
-543667
-544054
-544535
-544496
-544279
-544267
-544680
-545096
-544961
-544663
-544760
-545188
-545468
-545335
-545022
-544893
-545422
-545738
-545629
-545345
-545324
-545738
-546061
-545966
-545749
-545753
-546116
-546473
-546359
-546043
-546037
-546441
-546834
-546713
-546444
-546489
-546819
-547260
-547189
-546925
-546959
-547442
-547904
-547826
-547555
-547638
-548058
-548327
-548377
-548111
-548306
-548695
-549117
-549041
-548808
-548935
-549388
-549711
-549649
-549506
-549504
-550044
-550389
-550358
-550104
-550189
-550724
-551096
-551086
-550754
-550910
-551242
-551507
-551498
-551326
-551943
-552368
-552251
-552086
-552165
-552639
-553067
-553046
-552861
-552957
-553463
-553788
-553695
-553579
-553639
-554070
-554509
-554519
-554279
-554429
-554918
-555654
-555351
-555021
-555141
-555563
-555919
-555858
-555621
-555712
-556095
-556446
-556363
-556012
-556108
-556533
-556787
-556706
-556451
-556531
-556868
-557129
-557131
-556773
-556874
-557214
-557580
-557502
-557195
-557331
-557747
-558059
-558021
-557763
-557952
-558440
-558772
-558461
-558350
-558528
-559024
-559405
-559354
-559065
-559129
-559543
-559947
-559852
-559153
-559665
-560189
-560577
-560404
-560193
-560831
-561297
-561122
-560844
-561084
-561496
-561831
-561759
-561507
-561698
-562204
-562564
-562472
-562190
-562274
-562744
-563107
-562914
-562664
-562782
-563208
-563477
-563622
-562874
-562827
-563152
-563305
-563196
-562934
-563062
-563443
-563788
-563580
-563164
-563275
-563684
-564042
-563796
-563528
-563702
-564049
-564308
-564042
-563814
-563950
-564291
-564575
-564493
-564149
-564310
-564724
-564945
-564762
-564505
-564573
-565099
-565375
-565173
-564916
-565025
-565421
-565801
-565619
-565461
-565541
-566048
-566290
-566174
-565861
-566019
-566514
-566858
-566658
-566455
-566702
-567075
-567343
-567233
-567008
-567200
-567652
-567948
-567738
-567547
-567688
-568159
-568439
-568355
-568034
-568062
-568544
-568866
-568789
-568673
-568902
-569290
-569611
-569452
-569239
-569419
-569959
-570247
-570183
-569880
-570141
-570663
-570948
-570721
-570514
-570817
-571216
-571498
-571313
-570981
-571210
-571655
-571950
-571718
-571399
-571631
-572007
-572265
-572097
-571730
-571998
-572392
-572484
-572424
-572180
-572430
-572905
-573173
-573071
-572812
-573055
-573579
-573894
-573704
-573622
-573855
-574287
-574635
-574426
-574282
-574535
-574957
-575232
-575089
-574929
-575093
-575544
-575583
-575471
-575248
-575464
-576021
-576144
-575901
-575611
-575878
-576323
-576513
-576376
-576122
-576362
-576754
-577033
-576827
-576579
-576747
-577214
-577404
-577568
-577051
-577148
-577526
-577688
-577441
-577177
-577294
-577723
-577777
-577358
-576942
-577073
-577253
-577204
-576655
-576089
-575903
-575983
-575725
-575096
-574397
-573901
-573850
-573485
-572609
-571700
-571347
-571131
-570528
-569612
-568666
-568206
-567956
-567333
-566375
-565451
-564970
-564692
-564259
-563290
-562421
-562050
-561878
-561441
-560596
-559852
-559511
-559399
-559155
-558399
-557699
-557504
-557486
-557264
-556461
-555805
-555628
-555720
-555414
-554768
-554241
-554109
-554115
-553928
-553384
-552913
-552816
-552919
-552809
-552306
-551879
-551804
-552060
-552017
-551487
-551041
-551053
-551301
-551206
-550753
-550398
-550507
-550757
-550635
-550226
-549869
-550019
-550312
-550275
-549902
-549601
-549719
-550091
-550177
-549883
-549571
-549824
-550244
-550404
-550110
-549926
-550267
-550716
-550830
-550550
-550439
-550740
-551324
-551750
-551313
-551087
-551516
-552077
-552300
-552183
-552082
-552418
-552996
-553256
-553151
-553130
-553490
-554094
-554247
-554093
-554014
-554417
-554923
-555070
-554933
-554907
-555219
-555796
-555832
-555648
-555578
-555953
-556411
-556547
-556298
-556197
-556487
-557281
-557146
-556713
-556549
-556834
-557241
-557318
-557078
-556982
-557210
-557594
-557732
-557307
-557292
-557523
-557948
-558049
-557762
-557609
-557927
-558443
-558416
-558104
-557953
-558312
-558741
-558839
-558595
-558421
-558721
-559165
-559266
-559047
-558838
-559114
-559553
-559513
-559378
-559199
-559520
-560006
-560104
-559800
-559668
-560101
-560580
-560612
-560344
-560326
-560617
-561079
-561157
-560924
-560913
-561232
-561682
-561853
-561557
-561392
-561823
-562586
-562353
-562059
-562001
-562359
-562674
-562802
-562609
-562284
-562760
-563267
-563370
-563074
-562991
-563309
-563776
-563864
-563558
-563514
-563881
-564353
-564365
-564130
-564391
-564479
-564898
-564937
-564628
-564615
-564888
-565353
-565393
-565206
-565050
-565397
-565875
-565961
-565469
-565517
-565870
-566389
-566401
-566277
-566202
-566578
-567058
-567136
-566960
-566787
-567151
-567632
-567653
-567356
-567336
-567624
-568066
-568190
-567922
-567883
-568262
-568764
-568822
-568609
-568531
-568973
-569399
-569479
-569257
-568615
-569334
-569908
-570004
-569781
-569739
-570131
-570580
-570599
-570469
-570397
-570864
-571325
-571416
-571229
-571049
-571460
-571849
-572009
-571487
-571526
-572020
-572518
-572449
-572126
-572248
-572728
-573225
-573270
-573045
-573072
-573442
-573917
-574006
-573751
-573702
-574099
-574590
-574640
-574406
-574395
-574840
-575309
-575348
-575051
-575117
-575496
-575952
-575978
-575812
-575811
-576252
-576696
-576687
-576516
-576484
-576902
-577329
-577335
-577144
-577156
-577590
-578003
-578047
-577788
-577794
-578224
-578631
-578738
-578447
-578535
-578890
-579386
-579399
-579163
-579262
-579683
-580122
-580174
-580047
-580051
-580520
-580924
-581020
-580885
-580906
-581412
-581879
-582447
-581789
-581788
-582183
-582689
-582637
-582401
-582403
-582869
-583332
-583327
-583123
-583142
-583574
-584058
-584138
-583827
-583902
-584359
-584751
-584673
-584467
-584407
-584808
-585190
-585237
-584859
-584903
-585251
-585712
-585630
-585272
-585322
-585634
-586052
-585725
-585819
-586202
-586616
-586518
-586275
-586320
-586746
-587179
-587157
-587467
-587115
-587521
-587865
-587874
-587637
-587639
-588119
-588592
-588608
-588360
-588341
-588949
-589425
-589446
-589231
-589306
-589872
-590335
-590352
-590128
-590291
-590743
-591140
-591225
-591029
-591092
-591421
-592013
-592030
-592198
-592018
-592334
-592663
-592677
-592438
-592417
-592917
-593287
-593184
-592892
-592977
-593401
-593794
-593630
-593303
-593383
-593732
-593993
-593929
-593628
-593631
-593956
-594267
-594191
-593907
-593827
-594249
-594648
-594469
-594061
-594136
-594501
-594921
-594751
-594429
-594528
-594925
-595174
-595066
-594773
-594775
-595303
-595737
-595651
-595352
-595427
-595836
-596233
-596173
-595950
-596068
-596460
-596921
-596864
-596557
-596733
-597171
-597625
-597291
-597126
-597296
-597725
-598156
-597947
-597684
-597723
-598115
-598407
-598247
-597866
-597760
-598014
-598208
-597862
-597279
-596967
-597107
-597080
-596477
-595668
-595240
-595111
-594819
-594108
-593183
-592490
-592233
-591904
-591019
-589989
-589424
-589120
-588701
-587906
-586928
-586280
-586009
-585694
-584860
-583979
-583346
-583245
-583044
-582269
-581494
-581042
-580902
-581234
-580337
-579570
-579187
-579158
-579065
-578488
-577759
-577556
-577662
-577605
-577184
-576573
-576517
-576700
-576666
-576343
-575820
-575794
-575940
-576059
-575621
-575173
-575024
-575316
-575460
-575088
-574605
-574481
-574716
-574893
-574580
-574197
-574266
-574514
-574764
-574512
-574178
-574258
-574654
-574928
-574777
-574423
-574507
-574944
-575270
-575048
-574860
-575021
-575504
-575820
-575711
-575598
-575806
-576357
-576822
-576675
-576491
-576723
-577349
-577679
-577553
-577390
-577572
-578196
-578698
-578613
-578518
-578740
-579310
-579789
-579715
-579564
-579854
-580247
-580835
-580752
-580536
-580727
-581266
-581696
-581566
-581277
-581431
-581901
-582252
-582194
-581857
-582042
-582568
-582861
-582694
-582441
-582549
-583048
-583260
-583116
-582837
-582947
-583479
-583803
-583513
-583309
-583380
-583868
-584171
-583998
-583763
-583848
-584328
-584541
-584384
-584034
-584168
-584652
-584922
-584693
-584503
-584651
-585024
-585337
-585179
-584941
-585136
-585559
-585870
-585536
-585272
-585446
-585972
-586079
-585895
-585621
-585680
-586159
-586387
-586177
-585882
-586084
-586494
-587279
-586792
-586330
-586468
-586900
-587147
-586878
-586631
-586816
-587241
-587492
-587238
-586913
-587141
-587585
-587827
-587575
-587295
-587346
-587778
-588065
-587827
-587564
-587752
-588121
-588479
-588149
-588299
-588130
-588495
-588799
-588580
-588315
-588531
-589066
-589309
-589140
-589276
-589146
-589530
-589757
-589537
-589310
-589526
-590051
-590321
-590051
-589898
-590075
-590672
-590971
-590757
-590501
-590748
-591302
-591553
-591416
-591253
-591489
-592010
-592276
-592061
-591838
-592090
-593025
-592984
-592723
-592469
-592725
-593170
-593346
-593143
-592924
-593164
-593619
-593912
-593799
-593650
-593953
-594478
-594813
-594523
-594445
-594786
-595287
-595537
-595352
-595313
-595567
-596078
-596381
-596135
-596090
-596399
-596963
-597176
-597078
-596631
-597125
-597668
-598014
-597789
-597576
-597876
-598481
-599060
-598556
-598404
-598609
-599095
-599325
-599060
-598862
-599211
-599811
-599999
-599679
-599458
-599764
-600265
-600441
-600260
-600101
-600378
-600812
-601065
-600794
-600615
-600900
-601224
-601468
-601240
-601092
-601376
-601743
-602031
-601797
-601598
-601823
-602387
-602601
-602315
-602192
-602539
-602997
-603229
-602899
-602795
-603113
-603645
-603826
-603570
-603417
-603719
-604202
-604394
-604221
-604023
-604194
-604786
-605042
-604867
-605075
-605106
-605506
-605631
-605377
-605228
-605579
-606035
-606234
-606091
-605889
-606200
-606661
-606858
-606669
-606415
-606650
-607265
-607352
-606975
-606806
-607239
-607700
-607890
-607685
-607471
-607701
-607893
-607466
-606927
-606833
-607191
-607857
-608099
-607990
-607886
-608213
-608767
-609013
-608817
-608538
-608912
-609441
-609606
-609310
-609200
-609503
-609757
-610043
-609901
-609740
-610166
-610681
-610797
-610493
-610202
-610550
-611020
-611247
-610946
-610761
-611101
-611522
-611698
-611418
-611285
-611673
-612095
-612433
-612092
-611931
-612161
-612615
-612807
-612603
-612449
-612912
-613411
-613456
-613216
-613016
-613301
-613940
-614065
-613706
-613467
-613398
-613733
-613919
-613705
-613591
-614063
-614665
-614831
-614621
-614381
-614698
-615207
-615266
-615057
-614972
-615257
-615785
-615926
-615626
-615487
-615860
-616340
-616502
-616093
-615967
-616287
-616615
-616726
-616452
-616241
-616523
-616968
-616975
-616669
-616542
-616868
-617351
-617412
-617059
-616973
-617297
-617769
-617834
-617588
-617420
-617799
-618296
-618457
-618151
-617998
-618420
-618905
-618950
-618652
-618507
-618769
-619257
-619338
-618733
-618625
-618948
-619400
-619208
-618742
-618457
-618654
-618868
-618592
-617996
-617494
-617368
-617351
-616900
-616217
-615568
-615333
-615178
-614769
-613598
-612929
-612354
-612259
-611515
-610406
-609419
-608894
-608599
-607721
-606646
-605809
-605215
-604833
-604131
-603094
-602234
-601765
-601508
-600915
-599889
-599059
-598747
-598635
-598030
-597079
-596462
-596219
-596127
-595580
-594807
-594266
-594062
-594135
-593775
-593039
-592399
-592398
-592419
-592097
-591382
-590862
-590759
-590862
-590472
-589800
-589311
-589373
-589467
-589186
-588633
-588223
-588285
-588404
-588148
-587519
-587145
-587272
-587549
-587377
-586871
-586626
-586782
-587039
-586892
-586462
-586296
-586461
-586737
-586702
-586338
-586107
-586469
-586892
-586855
-586508
-586341
-586712
-586979
-587073
-586753
-586687
-587013
-587596
-587588
-587330
-587457
-587908
-588334
-588440
-588046
-588220
-588767
-589165
-589377
-589113
-589169
-589686
-590212
-590311
-590120
-590090
-590530
-591059
-591094
-590871
-590860
-591261
-591713
-591815
-591532
-591491
-591876
-592253
-592302
-591975
-591909
-592267
-592737
-592703
-592301
-592078
-592492
-592847
-592822
-592449
-592276
-592686
-593077
-592843
-592466
-592454
-592815
-593120
-592968
-592517
-592476
-592741
-593066
-592994
-592642
-592487
-592819
-593223
-593045
-592730
-592578
-593444
-593457
-593289
-592935
-592895
-593221
-593484
-593475
-593149
-593102
-593537
-594005
-593919
-593539
-593502
-593911
-594389
-594377
-594135
-594084
-594475
-594960
-594842
-594363
-594472
-595065
-595499
-595386
-595168
-595192
-595540
-595959
-595915
-595654
-595727
-596148
-596569
-596439
-596104
-595985
-596421
-596820
-596610
-596285
-596346
-596740
-597004
-596990
-596697
-596605
-597056
-597401
-597392
-597071
-597056
-597410
-597845
-597842
-597511
-597531
-597976
-598355
-598302
-598012
-598155
-598519
-598934
-598967
-598645
-598691
-599190
-599673
-599562
-599710
-599462
-599819
-600236
-600243
-599944
-599987
-600449
-600828
-600826
-600460
-600519
-600978
-601393
-601176
-600933
-600936
-601334
-601801
-601612
-601314
-601328
-601719
-602084
-601994
-601626
-601591
-601904
-602196
-602136
-601892
-601947
-602293
-602760
-602536
-602212
-602246
-602728
-603071
-602901
-602640
-602667
-603153
-603459
-603424
-603053
-603117
-603594
-603970
-603847
-603492
-603559
-604013
-604387
-604187
-603861
-604007
-604324
-604534
-604374
-604170
-604112
-604450
-604741
-604531
-604170
-604205
-604539
-604753
-604615
-604258
-604185
-604580
-604862
-604731
-604358
-604409
-604748
-605135
-604920
-604595
-604670
-605105
-605388
-605353
-604927
-604987
-605517
-605885
-605773
-605491
-605526
-605896
-606381
-606198
-605909
-606121
-606537
-606947
-606845
-606530
-606657
-607095
-607567
-607452
-607174
-607223
-607658
-608036
-607819
-607654
-607733
-608139
-608542
-608410
-608090
-608222
-608708
-609040
-608883
-608614
-608749
-609144
-609531
-609421
-609141
-609230
-609743
-610079
-610019
-609703
-609827
-610322
-610721
-610653
-610404
-610499
-611013
-611363
-611268
-611096
-611141
-611734
-612203
-612094
-611895
-612040
-612453
-612869
-613055
-612619
-612737
-613274
-613679
-613470
-613278
-613546
-613989
-614389
-614358
-614105
-614311
-614754
-615215
-614975
-614610
-614951
-615524
-615918
-615744
-615440
-615658
-616161
-616544
-616440
-616167
-616345
-616805
-617226
-617085
-616812
-616972
-617510
-617850
-617735
-617427
-617597
-617962
-618432
-618270
-618102
-618130
-618491
-618837
-618760
-618456
-618660
-619194
-619471
-619330
-619099
-619164
-619677
-620014
-619785
-619459
-619617
-620109
-620348
-620191
-619856
-619985
-620489
-620873
-620729
-620445
-620576
-621078
-621310
-621110
-620815
-620941
-621385
-621713
-621514
-621259
-621485
-621982
-622317
-622056
-621823
-621986
-622505
-622723
-622548
-622207
-622424
-622898
-623255
-623052
-622689
-622851
-623408
-623596
-623424
-623043
-623185
-623644
-623726
-623284
-623272
-623705
-623686
-623678
-622966
-622907
-623077
-623003
-622468
-621745
-621564
-621504
-621298
-620519
-619667
-619249
-618972
-618561
-617679
-616585
-616079
-615759
-615245
-614236
-613193
-612674
-612432
-612086
-611106
-610025
-609493
-609211
-608759
-607722
-606584
-605965
-605698
-605233
-604194
-603163
-602626
-602307
-601985
-601187
-600270
-599842
-599722
-599333
-598631
-597864
-597568
-597585
-597286
-596616
-595903
-595690
-595695
-595470
-594798
-594192
-593889
-594030
-593856
-593270
-592660
-592516
-592425
-592399
-591710
-591090
-591011
-591147
-591053
-590511
-589790
-589638
-589909
-589824
-589158
-588783
-588775
-588953
-589000
-588612
-588063
-588121
-588312
-588376
-587982
-587590
-587588
-587811
-587903
-587582
-587243
-587283
-587650
-587732
-587429
-587125
-587268
-587736
-587916
-587698
-587420
-587572
-588083
-588364
-587959
-587936
-588169
-588794
-589048
-588896
-588696
-589024
-589587
-589942
-589760
-589626
-589891
-590495
-590726
-590573
-590535
-590829
-591363
-591699
-591477
-591362
-592210
-592332
-592455
-592269
-592044
-592356
-592769
-593020
-592798
-592625
-592819
-593276
-593522
-593307
-593037
-593149
-593581
-593740
-593446
-593214
-593378
-593853
-593979
-593685
-593395
-593478
-593928
-594004
-593674
-593273
-593423
-593785
-594300
-593645
-593270
-593409
-593794
-593823
-593468
-593116
-593345
-593707
-593807
-593352
-593100
-593205
-593588
-593776
-593403
-593033
-593221
-593557
-593635
-593359
-593060
-593155
-593476
-593494
-593237
-593072
-593346
-593683
-593846
-593540
-593328
-593595
-594011
-594186
-593894
-593677
-593846
-594212
-594470
-594090
-593789
-594085
-594559
-594672
-594400
-594199
-594383
-594892
-595005
-594998
-594532
-594790
-595213
-595316
-595061
-594776
-595150
-595678
-595845
-595460
-595223
-595469
-595870
-596037
-595735
-595563
-595911
-596311
-596493
-596262
-595978
-596261
-596757
-596905
-596563
-596385
-596693
-597191
-597342
-597123
-596757
-597076
-597804
-597801
-597479
-597234
-597577
-598116
-598127
-597871
-597693
-597953
-598469
-598613
-598359
-598136
-598404
-598951
-599077
-598754
-598624
-598833
-599380
-599572
-599241
-599027
-599301
-599878
-599957
-599689
-599559
-599821
-600296
-600505
-600263
-600061
-600405
-600963
-601083
-600825
-600649
-600921
-601477
-601628
-601416
-601300
-601556
-601933
-602108
-601762
-601696
-601943
-602857
-602657
-602304
-602139
-602486
-602881
-602954
-602733
-602633
-602924
-603308
-603400
-603230
-603029
-603381
-603939
-604040
-603707
-603633
-603941
-604458
-604516
-604202
-604140
-604467
-604978
-605032
-604735
-604667
-604957
-605443
-605613
-605319
-605102
-605528
-605998
-606179
-605895
-605841
-606119
-606572
-606682
-606453
-606291
-606698
-607149
-607274
-607035
-606955
-607160
-607754
-607858
-607556
-607404
-607661
-608164
-608296
-607960
-607677
-608092
-608619
-608648
-608431
-608267
-609209
-609305
-609237
-608911
-608761
-609092
-609499
-609486
-609188
-609075
-609318
-609764
-609861
-609479
-609364
-609661
-610126
-610192
-609869
-609735
-610027
-610391
-610532
-610202
-610046
-610349
-610867
-610966
-610628
-610492
-610752
-611182
-611207
-610923
-610804
-611156
-611713
-611681
-611390
-611322
-611671
-612088
-612232
-611904
-611768
-612108
-612539
-612646
-612341
-612220
-612516
-612971
-613073
-612520
-612592
-612979
-613451
-613519
-613226
-613140
-613437
-613946
-614299
-613698
-613545
-613901
-614314
-614395
-614062
-613930
-614345
-614790
-614813
-614465
-614359
-614696
-615144
-615108
-614771
-614746
-614976
-615406
-615537
-615332
-615133
-615484
-615946
-615853
-615635
-615618
-616034
-616504
-616554
-616284
-616191
-616548
-617069
-617087
-616720
-616667
-617102
-617612
-617700
-617324
-617283
-617680
-618152
-618149
-617922
-617876
-618146
-618644
-618688
-618400
-618294
-618662
-619169
-619219
-618937
-618859
-619247
-619652
-619736
-619404
-619427
-619735
-620225
-620208
-619853
-619762
-620079
-620419
-620228
-619803
-619619
-619897
-620105
-619852
-619340
-618846
-618861
-618957
-618583
-617837
-617184
-616960
-616915
-616158
-615236
-614479
-614089
-613701
-612835
-611797
-610928
-610492
-610083
-609279
-608190
-607323
-606840
-606598
-605950
-605288
-604222
-603763
-603396
-602656
-601607
-600772
-600387
-599973
-599178
-598086
-597321
-596932
-596686
-595952
-594913
-594238
-594037
-593769
-593148
-592301
-591739
-591625
-591469
-591048
-590227
-589716
-589554
-589568
-589102
-588355
-587854
-587961
-587755
-587280
-586538
-586146
-586150
-586260
-586250
-585302
-584766
-584857
-584967
-584597
-583933
-583656
-584000
-583924
-583443
-582864
-582519
-582743
-582960
-582702
-582139
-581871
-581991
-582288
-582067
-581594
-581367
-581617
-581876
-581767
-581300
-581214
-581520
-581821
-581721
-581343
-581319
-581687
-582010
-581953
-581698
-581639
-582087
-582491
-582426
-582193
-582244
-582709
-583163
-583194
-582957
-583074
-583489
-584004
-584143
-583897
-583958
-584430
-584905
-584944
-584745
-584794
-585262
-585700
-585749
-585398
-585471
-585974
-586344
-586773
-586144
-586071
-586465
-586764
-586660
-586328
-586302
-586655
-587071
-586975
-586589
-586621
-586925
-587283
-587177
-586858
-586847
-587227
-587620
-587412
-587151
-587133
-587476
-587816
-587777
-587354
-587429
-587855
-588195
-588034
-587687
-587590
-588056
-588377
-588239
-587856
-587845
-588227
-588580
-588447
-588183
-588232
-588550
-588861
-588798
-588456
-588462
-588837
-589204
-589055
-588781
-588829
-589183
-589531
-589671
-589193
-589176
-589505
-589830
-589789
-589380
-589458
-589830
-590119
-590014
-589691
-589767
-590204
-590569
-590425
-590021
-590123
-590470
-590865
-590732
-590473
-590540
-590937
-591318
-591237
-590933
-590932
-591409
-591755
-591639
-591285
-591313
-591740
-592088
-591990
-591690
-591648
-592061
-592436
-592303
-592020
-591960
-592415
-592738
-592657
-592424
-592371
-592826
-593092
-593036
-592732
-592755
-593182
-593579
-593367
-593157
-593179
-593512
-593862
-593686
-593329
-593490
-593867
-594235
-594188
-593764
-593903
-594321
-594735
-594687
-594370
-594443
-594872
-595210
-595152
-594859
-594943
-595209
-595664
-595472
-595221
-595212
-595687
-596012
-595904
-595513
-595435
-595924
-596289
-596150
-595766
-595898
-596318
-596620
-596446
-596146
-596170
-596653
-596949
-596812
-596415
-596501
-596897
-597262
-597141
-596795
-596782
-597187
-597587
-597363
-597006
-597031
-597488
-597753
-597604
-597267
-597188
-597614
-597977
-597710
-597449
-597453
-597740
-598111
-597979
-597654
-597752
-598103
-598477
-598364
-598045
-598135
-598485
-598896
-598624
-598355
-598378
-598888
-599220
-599027
-598759
-598851
-599307
-599670
-599500
-599242
-599158
-599691
-599987
-599729
-599464
-599539
-599863
-600269
-600046
-599712
-600216
-600510
-600353
-600030
-600139
-600544
-600882
-600715
-600260
-600544
-601019
-601356
-601181
-600990
-601070
-601514
-601867
-601774
-601372
-601679
-602040
-602232
-602087
-601789
-601855
-602349
-602674
-602495
-602180
-602298
-602740
-603019
-602880
-602995
-602872
-603223
-603520
-603402
-603201
-603253
-603743
-604060
-603866
-603680
-603845
-604261
-604555
-604538
-604295
-604470
-604970
-605322
-605174
-604901
-605072
-605519
-605934
-605693
-605631
-605732
-606341
-606640
-606590
-606309
-606582
-607158
-607340
-607110
-607358
-607855
-608274
-607973
-607981
-608216
-608724
-609222
-609126
-609016
-609320
-609876
-610259
-610152
-609897
-610655
-610827
-611018
-610649
-610298
-610452
-610875
-611167
-611249
-611175
-611584
-612267
-612638
-612642
-612410
-612605
-613079
-613401
-613085
-612723
-612915
-613640
-613488
-613311
-613044
-613140
-613622
-613966
-613899
-613625
-613892
-614431
-614858
-614781
-614476
-614753
-615168
-615371
-615025
-614742
-614801
-615116
-615414
-615266
-615131
-615352
-615915
-616281
-616109
-615953
-616078
-616640
-616895
-616704
-616336
-616351
-617105
-617083
-616676
-616343
-616460
-616925
-617091
-616794
-616379
-616525
-616752
-616828
-616366
-615724
-615530
-615636
-615480
-614762
-613913
-613551
-613450
-613057
-612196
-611155
-610622
-610350
-609797
-608722
-607592
-606945
-606640
-606095
-605199
-604097
-603532
-603312
-602713
-601684
-600601
-599952
-599583
-598833
-597635
-596470
-595820
-595448
-595097
-593905
-592830
-592267
-591835
-591527
-590689
-589792
-589442
-589400
-588964
-588210
-587437
-587079
-586923
-586543
-585677
-584805
-584429
-584308
-584068
-583353
-582638
-582446
-582466
-582329
-581741
-581099
-580900
-580928
-580785
-580115
-579445
-579252
-579383
-579218
-578498
-577911
-577781
-577904
-577644
-577265
-576894
-576943
-577151
-577177
-576726
-576249
-576560
-576519
-576491
-575987
-575600
-575622
-575951
-576060
-575745
-575405
-575613
-575913
-576375
-575983
-575655
-575848
-576235
-576361
-576144
-575905
-576051
-576508
-576673
-576483
-576290
-576565
-577079
-577339
-577246
-577023
-577356
-577821
-578113
-577904
-577691
-577923
-578450
-578705
-578541
-578356
-578563
-578988
-579181
-578995
-578746
-578988
-579508
-579698
-579465
-579218
-579493
-579941
-580066
-579719
-579536
-579723
-580108
-580230
-579912
-579580
-579774
-580232
-580354
-580086
-579826
-580008
-580425
-580576
-580317
-579979
-580198
-580545
-580752
-580163
-580304
-580763
-580808
-580497
-580266
-580452
-580888
-581032
-580656
-580376
-580622
-581083
-581182
-580809
-580580
-580796
-581208
-581263
-581006
-580734
-581040
-581453
-581530
-581260
-581021
-581209
-581684
-581804
-581514
-581349
-581624
-582067
-582174
-581909
-581688
-581866
-582236
-582491
-582220
-582043
-582322
-582777
-582904
-582566
-582390
-582772
-583159
-583310
-583101
-582886
-583208
-583571
-583750
-583582
-583396
-583658
-584196
-584284
-584022
-583766
-584103
-584646
-584796
-584619
-584453
-584664
-585147
-585373
-585158
-584906
-585302
-585778
-585883
-585691
-585492
-585740
-586291
-586440
-586193
-585946
-586241
-586623
-586832
-586552
-586362
-586662
-587086
-587198
-587030
-586631
-587104
-587516
-587725
-587437
-587244
-587550
-587984
-588141
-587822
-587692
-587894
-588455
-588567
-588310
-588147
-588437
-588878
-589028
-588749
-588565
-588915
-589367
-589481
-589200
-589083
-589317
-589702
-589888
-589452
-589410
-589702
-590277
-590275
-589987
-589805
-590158
-590710
-590742
-590473
-590337
-590577
-590990
-591033
-590786
-590750
-590945
-591509
-591604
-591314
-591212
-591502
-592037
-592058
-591908
-591715
-592009
-592501
-592640
-592373
-592241
-592636
-593026
-593237
-592932
-592862
-593229
-593704
-593865
-593630
-593509
-593693
-594250
-594426
-594157
-593976
-594247
-594836
-594922
-594701
-594402
-594743
-595299
-595338
-595125
-595047
-595310
-595774
-595950
-595676
-595486
-595784
-596346
-596473
-596199
-596053
-596838
-596989
-596939
-596565
-596262
-596667
-597189
-597289
-596972
-596939
-597256
-597708
-597756
-597452
-597282
-597589
-598126
-598290
-598004
-597867
-598183
-598622
-598813
-598505
-598359
-598723
-599167
-599306
-599053
-598913
-599204
-599696
-599688
-599557
-599468
-599763
-600168
-600280
-599987
-599879
-600161
-600680
-600733
-600362
-600225
-600528
-601068
-601096
-600791
-600767
-601006
-601501
-601641
-601274
-601072
-601481
-601975
-602040
-601762
-601547
-601922
-602399
-602498
-602177
-602127
-602412
-602880
-603000
-602739
-602550
-603000
-603461
-603576
-603361
-603282
-603572
-604040
-604143
-603935
-603788
-604150
-604631
-604852
-604531
-604397
-604833
-605348
-605115
-604997
-605481
-606043
-605985
-605783
-605672
-606100
-606598
-606629
-606333
-606185
-606494
-607039
-607043
-606828
-606703
-606936
-607466
-607546
-607136
-606970
-607359
-607770
-607812
-607443
-607339
-607547
-607977
-608062
-607615
-607469
-607803
-608234
-608221
-607875
-607711
-608586
-608485
-608211
-608046
-608289
-608718
-608713
-608365
-608179
-608523
-608727
-608742
-608314
-608001
-608109
-608323
-608163
-607664
-607288
-607211
-607359
-607003
-606160
-605608
-605412
-605191
-604554
-603384
-602687
-602283
-602069
-601238
-600060
-599111
-598579
-598280
-597352
-596262
-595329
-594947
-594550
-593700
-592546
-591643
-591195
-590751
-589828
-588671
-587646
-587169
-586726
-585885
-584807
-583837
-583303
-582943
-582203
-581051
-580319
-579949
-579682
-578938
-578018
-577261
-576968
-576777
-576115
-575275
-574557
-574342
-574259
-573592
-572836
-572252
-571994
-571937
-571451
-570587
-569990
-569902
-569841
-569398
-568587
-568126
-567915
-568096
-567436
-566801
-566243
-566365
-566401
-566023
-565411
-565028
-565068
-565206
-564934
-564297
-563968
-564101
-564317
-564056
-563494
-563285
-563364
-563566
-563412
-562949
-562756
-562970
-563202
-563143
-562757
-562635
-562908
-563169
-563166
-562879
-562819
-563114
-563504
-563555
-563246
-563090
-563568
-563958
-563994
-563737
-563753
-564237
-564780
-564931
-564687
-564703
-565221
-565665
-565797
-565553
-565595
-565931
-566333
-566280
-566006
-566004
-566428
-566805
-566785
-566452
-566313
-566736
-567155
-567013
-566653
-566546
-566899
-567249
-567209
-566801
-566672
-566975
-567237
-567121
-566763
-566699
-566953
-567254
-567106
-566768
-566635
-566935
-567242
-567099
-566742
-566585
-566923
-567306
-567239
-566824
-566701
-567032
-567399
-567316
-566876
-566801
-567183
-567582
-567459
-567098
-567083
-567447
-567876
-567726
-567406
-567383
-567728
-568172
-568122
-567922
-567866
-568173
-568651
-568677
-568323
-568347
-568767
-569185
-569103
-568863
-568825
-569325
-569703
-569641
-569372
-569338
-569721
-570093
-570119
-569790
-569817
-570242
-570696
-570720
-570403
-570457
-570835
-571337
-571308
-570974
-571022
-571410
-571873
-571856
-571618
-571622
-572034
-572459
-572406
-572107
-572084
-572498
-572982
-572898
-572587
-572525
-572981
-573340
-573352
-573039
-573038
-573510
-573894
-573863
-573642
-573602
-574042
-574475
-574506
-574233
-574265
-574669
-575058
-575020
-574794
-574893
-575291
-575590
-575535
-575297
-575302
-575648
-576087
-575951
-575645
-575697
-576167
-576517
-576468
-576194
-576295
-576567
-576965
-577040
-576806
-577067
-577115
-577568
-577585
-577389
-577410
-577720
-578084
-578033
-577819
-577824
-578238
-578709
-578591
-578216
-578265
-578684
-579030
-578932
-578672
-578649
-579081
-579516
-579453
-579131
-579224
-579613
-580006
-579891
-579710
-579768
-580170
-580574
-580555
-580254
-580238
-580766
-581207
-581031
-580797
-580815
-581354
-581742
-581633
-581371
-581483
-581854
-582209
-581999
-581726
-581747
-582058
-582433
-582372
-582102
-582097
-582488
-582823
-582765
-582449
-582565
-583015
-583352
-583199
-583318
-583037
-583350
-583662
-583589
-583202
-583207
-583600
-583895
-583759
-583447
-583395
-583769
-584108
-583926
-583556
-583477
-583915
-584217
-583981
-583719
-583747
-584111
-584426
-584282
-583828
-583801
-584256
-584694
-584519
-584233
-584256
-584640
-585056
-584970
-584638
-584698
-585138
-585579
-585490
-585264
-585370
-585840
-586272
-586213
-585995
-586108
-586523
-587041
-586924
-586695
-586619
-587134
-587601
-587481
-587210
-587280
-587641
-587988
-587847
-587469
-587654
-588057
-588487
-588319
-588027
-588005
-588415
-588778
-588579
-588327
-588391
-588793
-589248
-588969
-588718
-588739
-589239
-589575
-589489
-589219
-589275
-589765
-590112
-589938
-589686
-589700
-590123
-590576
-590383
-590166
-590260
-590679
-591029
-590965
-590619
-590734
-591209
-591620
-591486
-591232
-591353
-591903
-592317
-592203
-591901
-592114
-592540
-592941
-592786
-592555
-592687
-593170
-593545
-593329
-593033
-593105
-593547
-593901
-593710
-593399
-593423
-593919
-594201
-593933
-593619
-593697
-594053
-594365
-594286
-593868
-593968
-594387
-594680
-594394
-594106
-594222
-594632
-594942
-594741
-594451
-594504
-594915
-595285
-595084
-594750
-594721
-595122
-595518
-595187
-594830
-594765
-595051
-595180
-594776
-594167
-593986
-594194
-594099
-593553
-592779
-592377
-592171
-591892
-591192
-590252
-589551
-589237
-588785
-587812
-586790
-586086
-585738
-585252
-584307
-583284
-582573
-582204
-581771
-580829
-579738
-578756
-577751
-577075
-576167
-575012
-574429
-574070
-573561
-572641
-571561
-570819
-570306
-569812
-568796
-567827
-567274
-567026
-566707
-565978
-564981
-564437
-564177
-563912
-563143
-562162
-561714
-561566
-561258
-560542
-559704
-559317
-559245
-558960
-558246
-557508
-557047
-557052
-556793
-556127
-555340
-555054
-555019
-554814
-554221
-553558
-553247
-553327
-553158
-552596
-551976
-551723
-551862
-551829
-551343
-550717
-550523
-550772
-550701
-550321
-549766
-549609
-549772
-549847
-549473
-549026
-549067
-549324
-549437
-549139
-548747
-548799
-549178
-549351
-549188
-548770
-548910
-549355
-549541
-549372
-549177
-549349
-549759
-550103
-549904
-549722
-549837
-550278
-550664
-550527
-550323
-550516
-550946
-551325
-551128
-550914
-551126
-551622
-551888
-551701
-551474
-551677
-552068
-552372
-552162
-551927
-552072
-552574
-552782
-552637
-552379
-552538
-552957
-553235
-552958
-552719
-552963
-553366
-553603
-553443
-553056
-553332
-553797
-553981
-553814
-553562
-553684
-554175
-554464
-554283
-554038
-554179
-554733
-555054
-554869
-554622
-554779
-555228
-555472
-555250
-555091
-555252
-555750
-556013
-555793
-555672
-555802
-556329
-556558
-556418
-556234
-556401
-556912
-557179
-556972
-556794
-556952
-557366
-557718
-557497
-557215
-557360
-557864
-558140
-557844
-557642
-557788
-558202
-558417
-558300
-558039
-558209
-558651
-559009
-558752
-558442
-558623
-558992
-559284
-559127
-558886
-559075
-559523
-559783
-559611
-559329
-559601
-560171
-560293
-560111
-559851
-560132
-560472
-560784
-560620
-560384
-560491
-560951
-561238
-561067
-560844
-561098
-561538
-561770
-561654
-561464
-561706
-562152
-562320
-562221
-562087
-562262
-562690
-562963
-562824
-562618
-562747
-563272
-563588
-563371
-563170
-563356
-563796
-564015
-563891
-563615
-563820
-564322
-564516
-564338
-564006
-564352
-564792
-565095
-564864
-564673
-564891
-565376
-565660
-565443
-565196
-565384
-565823
-566084
-565802
-565478
-565717
-566131
-566339
-566174
-565929
-566150
-566620
-566902
-566608
-566400
-566629
-567092
-567430
-567141
-566916
-567034
-567545
-567763
-567554
-567251
-567452
-568011
-568165
-568032
-567841
-567981
-568467
-568702
-568460
-568295
-568563
-568984
-569211
-569036
-568856
-569093
-569546
-569773
-569625
-569379
-569485
-570020
-570098
-569949
-569829
-570178
-570632
-570920
-570653
-570529
-570708
-571248
-571458
-571288
-571152
-571384
-571907
-572177
-571979
-571803
-572083
-572483
-572817
-572589
-572474
-572690
-573143
-573391
-573116
-572952
-573528
-573746
-573939
-573656
-573460
-573701
-574212
-574256
-574160
-573960
-574252
-574756
-574984
-574792
-574634
-574733
-575231
-575425
-575298
-575145
-575287
-575846
-575954
-575775
-575560
-575838
-576334
-576476
-576227
-576038
-576333
-576767
-576942
-576702
-576377
-576595
-577407
-577135
-576879
-577169
-577672
-577860
-577643
-577493
-577679
-578098
-578343
-578132
-577953
-578077
-578514
-578513
-578184
-578049
-578316
-578925
-579434
-579406
-579440
-579709
-580394
-580522
-579994
-579438
-579130
-579246
-579182
-579030
-579040
-579763
-580858
-581672
-582011
-582332
-582857
-583377
-583496
-583044
-582491
-582275
-582193
-581976
-581259
-580818
-581026
-581628
-582100
-582237
-582593
-583277
-584248
-584775
-584740
-584646
-585272
-585432
-585388
-584970
-584614
-584648
-585127
-585693
-585340
-585243
-585712
-586389
-586762
-586622
-586485
-586776
-587167
-587276
-586963
-586619
-586819
-587219
-587372
-587111
-587020
-587334
-587994
-588316
-588091
-587945
-588227
-588771
-588929
-588647
-588359
-588570
-588943
-589050
-588704
-588458
-588690
-589129
-589293
-588989
-588726
-588934
-589356
-589432
-589038
-588613
-588777
-589025
-588862
-588429
-587966
-587855
-587957
-587629
-586909
-586217
-586045
-585819
-585372
-584328
-583422
-582945
-582564
-581892
-580523
-579184
-579096
-578369
-577668
-576566
-575549
-574995
-574618
-573784
-572461
-571198
-570448
-569877
-569029
-567836
-566801
-566190
-565744
-564916
-563818
-562785
-562267
-561854
-561196
-560050
-559115
-558613
-558295
-557676
-556587
-555688
-555198
-554908
-554383
-553337
-552496
-552139
-551960
-551331
-550491
-549674
-549300
-549210
-548683
-547935
-547204
-546927
-546825
-546431
-545636
-544953
-544705
-544659
-544295
-543586
-542925
-542764
-542759
-542483
-541800
-541229
-541105
-541159
-540892
-540250
-539780
-539795
-539915
-539639
-539015
-538562
-538589
-538671
-538564
-538021
-537622
-537626
-538009
-537930
-537435
-537169
-537315
-537495
-537596
-537257
-536908
-537066
-537513
-537538
-537199
-536973
-537181
-537593
-537705
-537458
-537396
-537582
-538021
-538206
-538018
-537935
-538349
-538813
-538976
-538816
-538697
-539023
-539367
-539558
-539362
-539289
-539667
-540118
-540219
-540092
-540003
-540294
-540678
-540839
-540510
-540467
-540699
-541133
-541235
-541021
-540903
-541071
-541427
-541590
-541245
-541127
-541320
-541690
-541749
-541551
-541347
-541670
-542060
-542164
-541778
-541561
-541809
-542222
-542334
-542086
-541847
-542048
-542471
-542503
-542294
-542145
-542380
-542785
-542828
-542474
-542464
-542743
-543079
-543288
-543022
-542829
-543152
-543636
-543720
-543277
-543633
-543994
-544044
-543778
-543646
-543902
-544247
-544337
-544031
-543896
-544178
-544562
-544589
-544321
-544183
-544534
-544954
-545027
-544823
-544684
-545070
-545592
-545608
-545408
-545399
-545831
-546332
-546580
-546484
-546506
-546731
-547209
-547242
-546995
-546824
-547168
-547611
-547717
-547482
-547301
-547680
-548176
-548282
-547958
-547942
-548301
-548773
-548874
-548612
-548442
-548868
-549362
-549501
-549344
-549253
-549700
-550183
-550327
-550200
-550112
-550448
-550953
-551169
-551023
-550962
-551395
-551910
-552024
-551838
-551803
-552087
-552633
-552910
-552753
-552728
-553057
-553556
-553661
-553504
-553471
-553829
-554306
-554480
-554242
-554185
-554605
-555087
-555170
-554930
-554893
-555339
-555795
-555931
-555658
-555593
-555994
-556462
-556579
-556332
-556256
-556674
-557059
-557165
-556958
-556875
-557257
-557690
-557740
-557505
-557480
-557774
-558187
-558304
-557971
-557904
-558293
-558736
-558734
-558520
-558441
-558720
-559186
-559184
-559022
-558929
-559194
-559663
-559764
-559524
-559453
-559755
-560264
-560257
-559981
-559994
-560269
-560756
-560786
-560516
-560439
-560718
-561210
-561245
-560976
-560862
-561268
-561723
-561754
-561503
-561370
-561803
-562137
-562197
-561962
-561868
-562134
-562645
-562644
-562319
-562313
-562690
-563147
-563161
-562880
-562783
-563241
-563662
-563578
-563318
-563253
-563643
-564148
-564107
-563836
-563847
-564156
-564642
-564637
-564313
-564264
-564560
-564967
-565031
-564686
-564576
-564948
-565372
-565396
-565083
-564947
-565339
-565690
-565710
-565368
-565344
-565609
-565969
-565906
-565648
-565595
-566014
-566429
-566394
-566003
-565913
-566232
-566603
-566653
-566342
-566175
-566543
-566965
-566976
-566694
-567010
-567386
-567483
-567167
-567098
-567504
-568021
-568014
-567711
-567655
-568016
-568433
-568376
-568085
-568024
-568428
-568763
-568820
-568454
-568397
-568790
-569210
-569241
-568839
-568823
-569206
-569608
-569590
-569347
-569332
-569692
-570151
-570207
-569964
-569925
-570317
-570674
-570719
-570485
-570473
-570767
-571277
-571215
-571002
-570990
-571317
-571794
-571799
-571472
-571442
-571815
-572319
-572297
-572048
-572068
-572366
-572892
-572929
-572617
-572660
-573141
-573559
-573552
-573313
-573304
-573672
-574231
-574093
-573848
-573831
-574163
-574738
-574723
-574439
-574473
-574897
-575298
-575334
-575079
-575067
-575390
-575822
-575793
-575541
-575451
-575839
-576136
-576120
-575820
-575844
-576096
-576475
-576363
-575946
-575798
-575965
-576119
-575766
-575216
-574820
-574742
-574743
-574260
-573414
-572742
-572369
-572143
-571256
-570222
-569372
-568947
-568462
-567509
-566365
-565401
-564843
-564300
-563361
-562048
-561234
-560830
-560347
-559500
-558274
-557456
-556983
-556500
-555537
-554402
-553451
-552957
-552411
-551524
-550316
-549520
-548931
-548543
-547621
-546538
-545647
-545105
-544726
-543863
-542923
-542149
-541788
-541463
-540706
-539692
-539044
-538773
-538514
-537923
-536878
-536335
-536124
-535904
-535254
-534357
-533776
-533607
-533404
-532789
-532043
-531440
-531345
-531225
-530747
-529951
-529543
-529457
-529408
-528989
-528295
-527892
-527917
-527934
-527443
-526938
-526542
-526657
-526550
-526281
-525781
-525452
-525638
-525781
-525471
-524924
-524745
-524832
-525086
-524764
-524356
-524152
-524389
-524598
-524436
-524091
-523985
-524246
-524630
-524441
-524044
-523961
-524337
-524577
-524492
-524180
-524187
-524505
-524826
-524771
-524492
-524309
-524741
-525277
-525249
-525041
-525093
-525515
-526008
-526006
-525835
-525902
-526396
-526797
-526857
-526601
-526680
-527163
-527650
-527715
-527422
-527533
-527780
-528363
-528315
-527913
-528092
-528513
-528742
-528826
-528551
-528552
-528798
-529274
-529257
-528982
-529006
-529338
-529753
-529674
-529359
-529429
-529907
-530268
-530200
-529931
-529932
-530394
-530788
-530623
-530325
-530500
-530960
-531330
-531455
-531024
-530840
-531276
-531822
-532077
-531399
-531247
-531499
-531781
-531712
-531315
-531370
-531710
-532083
-531969
-531659
-531667
-532039
-532445
-532286
-532004
-532068
-532376
-532652
-532599
-532410
-532514
-532923
-533333
-533189
-532936
-533044
-533557
-533988
-533951
-533657
-533726
-534261
-534657
-534706
-534482
-534621
-535354
-535485
-535374
-535102
-535178
-535578
-536004
-535954
-535683
-535826
-536207
-536491
-536780
-536314
-536374
-536685
-537104
-537034
-536837
-536879
-537383
-537660
-537490
-537305
-537385
-537836
-538263
-537943
-538748
-538723
-538475
-538518
-538940
-539342
-539277
-539066
-539430
-539649
-539990
-539827
-539672
-539775
-540480
-540635
-540545
-540298
-540316
-540818
-541300
-541169
-540922
-540912
-541411
-541778
-541709
-541365
-541502
-541971
-542288
-542302
-541916
-542049
-542390
-542756
-542692
-542443
-542476
-542915
-543287
-543330
-543036
-543211
-543617
-543805
-543771
-543677
-543857
-544583
-544775
-544641
-544386
-544513
-544905
-545353
-545271
-545045
-545230
-545556
-546006
-545832
-545709
-545850
-546351
-546628
-546539
-546359
-546421
-546826
-547232
-546945
-547074
-546786
-547735
-547701
-547591
-547300
-547332
-547738
-548085
-548079
-547775
-547826
-548290
-548945
-548595
-548309
-548362
-548762
-549097
-549061
-548826
-548846
-549269
-549618
-549557
-549291
-549395
-549926
-550286
-550115
-549939
-550033
-550446
-550925
-550786
-550531
-550678
-551047
-551469
-551308
-551019
-551078
-551402
-551793
-551638
-551333
-551432
-551807
-552110
-551979
-551738
-551788
-552302
-552553
-552451
-552244
-552242
-552667
-552903
-552801
-552526
-552530
-553058
-553317
-553251
-552948
-553044
-553520
-553883
-553767
-553519
-553690
-554138
-554428
-554388
-554121
-554217
-554706
-555006
-554792
-554588
-554708
-555133
-555406
-555351
-555106
-555236
-555669
-556055
-555882
-555681
-555879
-556268
-556599
-556480
-556232
-556313
-556808
-557133
-557094
-556889
-556926
-557382
-557722
-557547
-557337
-557386
-557895
-558229
-558044
-557747
-557973
-558409
-558652
-558552
-558295
-558446
-558919
-559313
-559156
-558867
-558982
-559469
-559792
-559729
-559445
-559639
-560108
-560454
-560377
-560091
-560231
-560688
-561054
-560986
-560729
-560814
-561353
-561649
-561568
-561353
-561392
-561933
-562256
-562197
-561900
-561981
-562448
-562733
-562650
-562366
-562505
-563035
-563316
-563183
-562912
-563039
-563457
-563764
-563490
-563263
-563430
-563879
-564093
-563932
-563706
-563855
-564288
-564465
-564286
-563959
-564143
-564484
-564789
-564638
-564301
-564376
-564640
-564851
-564647
-564237
-564093
-564328
-564491
-563994
-563400
-563226
-563164
-563126
-562455
-561684
-561246
-561045
-560608
-559709
-558694
-558027
-557670
-557101
-556127
-554910
-554320
-553867
-553251
-552189
-551129
-550355
-549965
-549450
-548471
-547294
-546679
-546197
-545665
-544541
-543408
-542609
-542229
-541644
-540609
-539510
-538848
-538445
-537935
-537016
-535921
-535374
-535028
-534589
-533783
-532760
-532254
-532114
-531712
-530880
-529939
-529484
-529313
-529061
-528310
-527457
-527037
-526904
-526539
-525901
-525085
-524745
-524599
-524378
-523607
-522880
-522561
-522512
-522304
-521665
-520947
-520611
-520618
-520518
-519990
-519362
-519144
-519170
-519055
-518534
-517978
-517866
-517902
-517921
-517477
-516938
-516796
-516942
-516995
-516647
-516115
-516087
-516263
-516330
-515988
-515680
-515684
-515904
-516140
-515844
-515428
-515481
-515859
-516098
-515847
-515591
-515667
-516130
-516369
-516183
-516005
-516164
-516630
-516930
-516823
-516592
-516849
-517370
-517701
-517610
-517465
-517684
-518191
-518538
-518476
-518334
-518559
-519151
-519413
-519389
-519219
-519526
-520001
-520346
-520177
-519971
-520278
-520721
-521042
-520860
-520665
-520866
-521310
-521536
-521478
-521188
-521403
-521871
-522158
-521896
-521697
-521885
-522297
-522580
-522448
-522200
-522343
-522789
-523019
-522705
-522449
-522751
-523098
-523306
-523030
-522745
-522916
-523404
-523606
-523354
-523071
-523289
-523694
-523940
-523726
-523424
-523605
-524112
-524364
-524094
-523841
-523934
-524426
-524614
-524535
-524286
-524434
-524832
-525039
-524820
-524575
-524778
-525248
-525477
-525338
-525067
-525385
-525807
-526071
-525836
-525657
-525791
-526307
-526490
-526300
-526096
-526337
-526738
-526977
-526755
-526641
-526849
-527307
-527609
-527387
-527138
-527341
-527743
-527962
-527784
-527578
-527741
-528192
-528469
-528218
-528014
-528314
-528776
-529019
-528846
-528669
-528981
-529449
-529745
-529540
-529325
-529566
-529979
-530156
-530061
-529876
-530144
-530620
-530892
-530749
-530611
-530842
-531419
-531661
-531572
-531468
-531708
-532098
-532298
-532176
-531983
-532186
-532733
-533001
-532923
-532666
-532940
-533524
-533700
-533534
-533323
-533615
-534097
-534237
-534084
-533887
-534127
-534572
-534794
-534580
-534503
-534608
-535095
-535414
-535189
-534980
-535189
-535722
-535955
-535715
-535553
-535859
-536298
-536491
-536220
-536065
-536249
-536824
-537082
-536902
-536743
-537081
-537572
-537851
-537623
-537460
-537752
-538168
-538439
-538281
-538060
-538998
-538624
-538915
-539402
-539686
-539415
-539558
-539973
-540256
-540114
-539852
-540081
-540542
-540810
-540547
-540425
-540650
-541093
-541350
-541104
-540930
-541196
-541670
-541841
-541680
-541394
-541739
-542191
-542427
-542236
-542003
-542298
-542727
-542939
-542718
-542539
-542760
-543130
-543292
-543080
-542882
-543045
-543494
-543601
-543376
-543167
-543368
-543732
-543922
-543698
-543482
-543690
-544120
-544420
-544256
-544100
-544377
-544887
-545189
-545052
-544803
-545103
-545527
-545652
-545360
-545202
-545359
-545865
-546015
-545744
-545509
-545681
-546142
-546247
-545915
-545750
-545990
-546428
-546569
-546367
-546104
-546311
-546752
-546958
-546750
-546540
-546770
-547256
-547431
-547220
-547068
-547286
-547805
-547991
-547707
-547529
-547846
-548255
-548514
-548313
-548129
-548481
-548954
-549181
-548966
-548805
-549112
-549489
-549749
-549493
-549311
-549604
-550117
-550251
-550034
-549919
-550141
-550659
-550815
-550608
-550488
-550806
-551174
-551357
-551131
-550976
-551238
-551604
-551898
-551619
-551453
-551682
-552191
-552371
-552130
-551993
-552211
-552759
-552918
-552715
-552639
-552791
-553253
-553382
-553178
-553057
-553357
-553737
-553979
-553702
-553470
-553800
-554211
-554396
-554124
-553985
-554316
-554696
-554899
-554653
-554485
-554818
-555167
-555340
-555081
-554943
-555207
-555650
-555736
-555429
-555313
-555497
-555927
-556032
-555812
-555514
-555779
-556136
-556204
-555897
-555643
-555846
-556166
-556229
-555832
-555492
-555494
-555742
-555562
-555070
-554574
-554544
-554567
-554249
-553521
-552217
-551403
-551345
-551044
-550286
-549611
-549415
-549216
-548787
-547835
-546978
-546449
-546080
-545483
-544469
-543391
-542898
-542459
-541697
-540533
-539497
-538826
-538486
-537746
-536491
-535459
-534884
-534529
-533784
-532725
-531791
-531261
-530982
-530402
-529373
-528498
-528102
-527818
-527231
-526359
-525585
-525228
-525043
-524522
-523668
-522874
-522553
-522290
-521815
-520932
-520224
-519811
-519540
-519028
-518252
-517683
-517517
-517451
-517114
-516346
-515733
-515527
-515520
-515209
-514425
-513901
-513738
-513826
-513481
-512858
-512290
-512205
-512297
-512007
-511450
-511006
-510923
-511061
-510858
-510422
-510073
-510071
-510194
-510097
-509705
-509398
-509375
-509661
-509670
-509352
-509046
-509185
-509494
-509425
-509121
-509014
-509272
-509645
-509678
-509508
-509422
-509681
-510069
-510144
-509927
-509884
-510282
-510796
-510862
-510672
-510663
-511010
-511492
-511735
-511594
-511460
-511934
-512440
-512596
-512432
-512390
-512736
-513229
-513379
-513255
-513213
-513598
-514036
-514227
-513980
-513942
-514268
-514785
-514804
-514529
-514405
-514811
-515312
-515301
-515084
-515034
-515270
-515669
-515754
-515572
-515391
-515724
-516135
-516205
-515997
-515897
-516186
-516637
-516732
-516392
-516349
-516720
-517085
-517160
-516967
-516827
-517144
-517532
-517702
-517369
-517289
-517571
-518019
-518087
-517842
-517752
-518052
-518475
-518501
-518252
-518099
-518407
-518821
-518882
-518559
-518471
-518789
-519196
-519272
-518942
-518847
-519223
-519622
-519634
-519414
-519392
-519677
-520114
-520212
-519958
-519788
-520050
-520520
-520528
-520267
-520192
-520485
-520997
-520908
-520673
-520642
-521009
-521426
-521503
-521296
-521282
-521552
-522018
-522087
-521839
-521723
-522104
-522515
-522522
-522355
-522297
-522578
-523098
-523117
-522892
-522848
-523143
-523535
-523687
-523472
-523349
-523725
-524139
-524187
-524027
-523965
-524311
-524658
-524833
-524644
-524540
-524912
-525347
-525356
-525175
-525132
-525496
-525894
-526006
-525706
-525597
-525961
-526413
-526441
-526242
-526173
-526489
-526976
-527012
-526806
-526605
-527004
-527449
-527499
-527194
-527165
-527442
-527879
-527956
-527653
-527438
-527746
-528138
-528222
-527921
-527806
-528194
-528604
-528634
-528380
-528726
-529050
-529086
-528880
-528858
-529161
-529650
-529679
-529444
-529415
-529729
-530201
-530207
-530076
-530033
-530365
-530868
-530919
-530718
-530750
-531098
-531566
-531576
-531287
-531296
-531635
-532117
-532191
-531904
-531832
-532251
-532696
-532589
-531846
-531396
-531843
-532404
-532491
-532336
-532378
-532824
-533172
-533020
-532726
-532635
-533169
-533687
-533706
-533469
-533849
-534310
-534343
-534099
-533972
-534432
-534867
-534773
-534556
-534549
-534920
-535314
-535390
-535125
-534983
-535348
-535799
-535826
-535628
-535559
-535881
-536389
-536405
-536200
-536100
-536536
-536924
-536996
-536704
-536689
-537093
-537489
-537477
-537150
-537119
-537532
-537941
-537951
-537695
-537737
-538110
-538577
-538609
-538410
-538362
-538697
-539132
-539116
-538842
-538844
-539198
-539527
-539439
-539244
-539157
-539511
-539919
-539964
-539714
-539641
-540050
-540468
-540456
-540195
-540170
-540482
-540860
-540841
-540484
-540362
-540883
-541178
-541181
-540895
-540859
-541295
-541751
-541696
-541444
-541416
-541832
-542350
-542792
-542230
-542131
-542939
-543049
-542987
-542610
-542636
-543040
-543477
-543464
-543278
-543256
-543566
-544097
-544078
-543758
-543722
-544196
-544643
-544609
-544423
-544426
-544860
-545227
-545258
-544982
-545036
-545394
-545840
-545809
-545557
-545537
-545950
-546365
-546346
-546061
-546052
-546390
-546871
-546866
-546531
-546533
-546978
-547373
-547435
-547123
-547116
-547580
-547939
-547976
-547732
-547763
-548156
-548581
-549117
-548432
-548423
-548675
-549141
-549135
-548773
-548736
-549095
-549464
-549416
-549086
-549098
-549358
-549675
-549576
-549192
-549039
-549359
-549576
-549369
-548939
-548675
-548830
-548953
-548515
-547728
-547453
-547448
-547403
-546902
-546083
-545503
-545220
-544885
-544129
-543231
-542456
-542042
-541652
-540714
-539577
-538727
-538196
-537688
-536812
-535717
-534797
-534283
-533800
-532879
-531708
-530935
-530426
-529961
-528981
-527905
-527083
-526787
-526337
-525372
-524360
-523593
-523251
-522870
-522110
-521025
-520250
-519949
-519631
-518892
-517938
-517322
-517064
-516789
-516069
-515260
-514642
-514426
-513623
-511373
-510660
-510182
-510011
-509827
-509301
-508662
-508146
-508176
-507714
-507067
-506774
-506785
-506836
-506400
-505832
-505558
-505570
-505607
-505225
-504714
-504453
-504631
-504717
-504423
-503964
-503824
-504014
-504256
-503952
-503518
-503488
-503676
-503902
-503670
-503267
-503132
-503404
-503468
-503460
-503167
-503098
-503426
-503814
-503734
-503476
-503504
-503896
-504318
-504265
-504010
-504006
-504403
-504863
-504766
-504631
-504737
-505160
-505519
-505546
-505398
-505505
-505979
-506419
-506418
-506212
-506348
-506747
-507167
-507059
-506827
-506933
-507381
-507668
-507653
-507388
-507539
-507910
-508254
-508109
-507885
-507934
-508333
-508568
-508423
-508098
-508085
-508498
-508874
-508770
-508525
-508519
-508972
-509332
-509207
-508784
-508940
-509327
-509669
-509551
-509303
-509334
-509706
-510035
-509979
-509663
-509790
-510158
-510518
-510450
-510145
-510282
-510647
-511058
-511008
-510729
-510789
-511210
-511539
-511478
-511186
-511324
-511671
-512070
-512009
-511768
-511886
-512306
-512659
-512363
-512265
-512344
-512900
-513223
-513195
-512962
-513008
-513486
-513885
-513762
-513510
-513683
-514085
-514431
-514466
-514273
-514291
-514801
-515133
-515052
-514819
-514861
-515309
-515752
-515749
-515486
-515590
-516108
-516563
-516477
-516364
-516454
-516934
-517308
-517276
-517100
-517244
-517682
-518094
-518059
-518115
-518513
-518909
-518907
-518705
-518894
-519363
-519681
-519655
-519462
-519624
-520086
-520533
-520551
-520343
-520429
-520946
-521524
-521262
-520960
-521131
-521603
-521935
-521765
-521530
-521746
-522143
-522431
-522512
-522305
-522468
-522942
-523211
-523138
-522934
-523030
-523274
-523567
-524023
-523539
-523594
-524092
-524429
-524324
-524111
-524108
-524712
-525138
-525022
-524846
-524905
-525328
-525690
-525535
-525408
-525502
-525859
-526178
-526037
-525754
-525851
-526259
-526552
-526442
-526224
-526306
-526696
-526956
-526830
-526474
-526566
-526973
-527355
-527228
-526955
-527114
-527590
-527900
-527781
-527424
-527559
-527830
-528224
-528153
-527922
-528153
-528577
-528891
-528807
-528495
-528600
-529035
-529249
-529176
-529030
-529283
-529709
-529992
-529898
-529609
-529792
-530206
-530521
-530462
-530313
-530402
-530978
-531321
-531192
-530945
-531095
-531645
-532004
-531916
-531641
-531806
-532342
-532730
-532533
-532327
-532541
-532991
-533284
-533154
-533306
-533127
-533495
-533729
-533587
-533388
-533525
-533928
-534215
-534079
-533759
-533922
-534469
-534772
-534566
-534263
-534444
-534860
-535175
-535021
-534710
-534838
-535376
-535653
-535426
-535185
-535286
-535820
-536041
-535867
-535658
-535798
-536272
-536578
-536381
-536240
-536362
-536830
-537215
-537079
-536889
-537069
-537468
-537768
-537654
-537489
-537583
-538022
-538333
-538202
-537992
-538106
-538582
-538894
-538814
-538584
-538732
-539125
-539458
-539374
-539113
-539258
-539724
-539959
-539798
-539589
-539666
-540128
-540477
-540416
-540172
-540297
-540862
-541205
-541058
-540923
-540976
-541571
-541890
-541727
-541572
-541741
-542251
-542604
-542422
-542224
-542486
-543036
-543370
-543295
-543017
-543240
-543793
-544011
-543869
-543713
-543882
-544336
-544644
-544413
-544299
-544457
-544960
-545221
-545016
-544888
-545130
-545551
-545868
-545652
-545357
-545666
-546078
-546384
-546046
-545810
-545955
-546466
-546720
-546489
-546268
-546377
-546826
-547029
-546895
-546635
-546736
-547102
-547396
-547060
-546839
-546905
-547441
-547645
-547436
-547242
-547345
-547752
-548006
-547785
-547492
-547704
-548081
-548279
-547938
-547704
-547833
-548145
-548224
-547839
-547383
-547391
-547657
-547642
-547059
-546460
-546321
-546274
-545841
-545306
-544525
-544123
-543904
-543457
-542610
-541756
-541200
-540947
-540353
-539477
-538382
-537868
-537550
-537130
-536181
-535241
-534664
-534289
-533620
-532494
-531474
-530814
-530484
-529749
-528775
-527705
-526977
-526651
-526033
-525091
-524075
-523472
-523266
-522769
-521874
-520936
-520655
-520306
-519937
-519061
-518269
-517798
-517659
-517322
-516523
-515694
-515353
-515203
-514886
-514176
-513376
-513101
-513015
-512762
-511967
-511391
-511203
-511149
-510972
-510412
-509776
-509508
-509524
-509330
-508876
-508270
-508135
-508236
-508165
-507622
-507050
-507129
-507253
-507132
-506728
-506270
-506289
-506646
-506628
-506230
-505871
-506003
-506336
-506390
-506092
-505827
-505940
-506374
-506485
-506261
-505976
-506616
-506861
-506647
-506462
-507165
-507334
-507438
-507292
-507059
-507324
-507853
-508157
-508007
-507905
-508265
-508825
-509087
-509009
-508892
-509138
-509802
-510060
-510028
-509859
-510165
-510705
-511005
-510882
-510762
-511150
-511602
-511836
-511699
-511622
-511903
-512367
-512574
-512410
-512315
-512609
-513093
-513266
-513064
-512739
-513059
-513507
-513729
-513500
-513286
-513525
-513919
-514059
-513764
-513692
-513911
-514261
-514455
-514184
-514000
-514325
-514659
-514798
-514630
-514444
-514611
-515001
-515287
-515066
-514905
-515105
-515513
-515805
-515523
-515346
-515596
-516058
-516239
-516059
-515893
-516205
-516676
-516935
-516622
-516495
-516857
-517346
-517586
-517381
-517205
-517575
-518072
-518311
-518165
-517991
-518234
-518819
-518921
-518779
-518693
-518881
-519331
-519565
-519444
-519275
-519574
-519971
-520152
-519934
-519744
-520083
-520497
-520588
-520414
-520220
-520512
-520886
-521092
-520832
-520677
-520918
-521406
-521473
-521272
-521097
-521402
-521825
-521979
-521738
-521567
-521723
-522227
-522430
-522208
-521950
-522260
-522601
-522771
-522591
-522432
-522650
-523201
-523349
-523110
-522980
-523217
-523723
-523694
-523626
-523412
-523721
-524196
-524253
-524138
-524000
-524293
-524799
-524959
-524780
-524601
-524921
-525317
-525480
-525350
-525134
-525443
-525902
-526080
-525889
-525789
-526084
-526562
-526731
-526483
-526382
-526689
-527259
-527401
-527156
-526989
-527335
-527873
-528088
-527887
-527753
-528089
-528553
-528762
-528540
-528459
-528824
-529244
-529388
-529190
-529043
-529376
-529888
-530090
-529852
-529751
-530053
-530528
-530687
-530920
-530525
-530723
-531179
-531249
-531058
-530977
-531305
-531675
-531890
-531599
-531479
-531788
-532234
-532370
-532143
-532003
-532278
-532778
-532813
-533106
-532637
-532779
-533229
-533315
-532949
-532789
-533155
-533555
-533666
-533410
-533291
-533750
-533999
-534139
-534187
-533826
-534081
-534512
-534542
-534343
-534227
-534487
-534994
-535148
-534789
-534726
-535109
-535627
-535777
-535529
-535461
-535830
-536396
-536158
-536041
-536393
-536833
-536978
-536778
-536625
-536960
-537458
-537590
-537457
-537351
-537613
-538092
-538241
-538034
-537868
-538659
-538768
-538809
-538390
-538318
-538543
-539009
-539086
-538759
-538647
-538947
-539324
-539418
-539188
-539019
-539397
-539870
-539938
-539689
-539594
-539929
-540371
-540473
-540172
-539957
-540401
-540815
-540901
-540677
-540609
-540835
-541296
-541478
-541163
-540998
-541368
-541863
-541922
-541714
-541597
-541992
-542366
-542469
-542265
-542124
-542456
-542946
-543014
-542810
-542655
-542946
-543436
-543292
-543197
-543201
-543514
-543994
-544065
-543777
-543662
-543953
-544483
-544177
-544102
-544436
-544846
-544895
-544648
-544569
-544801
-545328
-545455
-545165
-544994
-545363
-545807
-545813
-545593
-545510
-545823
-546338
-546395
-546200
-546088
-546358
-546792
-546894
-546643
-546559
-546943
-547458
-547527
-547355
-547328
-547642
-548036
-548180
-548034
-547847
-548264
-548760
-548850
-548607
-548526
-548857
-549331
-549313
-549110
-548958
-549402
-549836
-549877
-549578
-549271
-549749
-550272
-550290
-550053
-549835
-550199
-550625
-550682
-550402
-550225
-550459
-550835
-550903
-550584
-550405
-550719
-551065
-551043
-550585
-550454
-550626
-550888
-550798
-550321
-549937
-550054
-550244
-549873
-549316
-548790
-548748
-548771
-548264
-547386
-546692
-546467
-546274
-545630
-544667
-543893
-543572
-543356
-542679
-541652
-540864
-540483
-540184
-539495
-538451
-537586
-537153
-536728
-535959
-534850
-533967
-533508
-533062
-532232
-531223
-530423
-530037
-529678
-529009
-528074
-527339
-527004
-526721
-526071
-525171
-524509
-524250
-524131
-523552
-522752
-522086
-521958
-521732
-521230
-520525
-520014
-519870
-519746
-519219
-518551
-518010
-517889
-517849
-517516
-516778
-516359
-516358
-516391
-515913
-515322
-514930
-514863
-515001
-514634
-514024
-513689
-513679
-513871
-513521
-513013
-512715
-512759
-512991
-512749
-512275
-512037
-512135
-512411
-512189
-511794
-511598
-511800
-512081
-512045
-511580
-511492
-511798
-512191
-512101
-511862
-511809
-512131
-512570
-512574
-512377
-512386
-512789
-513220
-513383
-513182
-513287
-513825
-514305
-514425
-514280
-514337
-514849
-515425
-515584
-515502
-515597
-515996
-516636
-516751
-516669
-516724
-517253
-517769
-517905
-517742
-517839
-518247
-518729
-518836
-518690
-518662
-519106
-519365
-519531
-519344
-519402
-519780
-520216
-520245
-520022
-519997
-520402
-520809
-520870
-520625
-520572
-520998
-521414
-521303
-521085
-521020
-521257
-521782
-521774
-521540
-521420
-521812
-522160
-522198
-521871
-521903
-522233
-522672
-522550
-522295
-522318
-522677
-523095
-523100
-522868
-522807
-523133
-523557
-523818
-523378
-523603
-523813
-524151
-524108
-523895
-523902
-524383
-524840
-524820
-525629
-525600
-525446
-525568
-525992
-526442
-526407
-526251
-526371
-526804
-527294
-527312
-527036
-527259
-527771
-528210
-528284
-528072
-528147
-528584
-528972
-528934
-528719
-528763
-529197
-529661
-529697
-529375
-529775
-530235
-530215
-530063
-530488
-531249
-531112
-530795
-530766
-531618
-531520
-531246
-531362
-531752
-532170
-532117
-531867
-531920
-532405
-532802
-532694
-532589
-532578
-533073
-533595
-533498
-533267
-533362
-533789
-534230
-534188
-533829
-533834
-534403
-534774
-534772
-534489
-534624
-535109
-535492
-535551
-535185
-535335
-535701
-536246
-536108
-535925
-536059
-536504
-536829
-536820
-536669
-536758
-537324
-537698
-537677
-537459
-537545
-538056
-538410
-538401
-538095
-538121
-538727
-539151
-539041
-538823
-538902
-539326
-539700
-539734
-539491
-539618
-540082
-540550
-540509
-540269
-540489
-540968
-541355
-541378
-541028
-541141
-541619
-542026
-542033
-541755
-541875
-542266
-542714
-542611
-542363
-542453
-542941
-543355
-543318
-543101
-543146
-543526
-543876
-543854
-543522
-543636
-544038
-544456
-544271
-544074
-544108
-545074
-545169
-544961
-544747
-544862
-545323
-545724
-545647
-545448
-545517
-546027
-546396
-546602
-546180
-546266
-546730
-547059
-547069
-546874
-547959
-547633
-548579
-549456
-550189
-549927
-550396
-551349
-551002
-550976
-551465
-551818
-551518
-552014
-552317
-552157
-551795
-551983
-552377
-552698
-552625
-552430
-552507
-553030
-553452
-553398
-553132
-553242
-553716
-554075
-553975
-553724
-553884
-554356
-554743
-554609
-554375
-554543
-554984
-555392
-555288
-555049
-555236
-555717
-556139
-556042
-555830
-556077
