PPG
-1035848
-1035741
-1035769
-1035718
-1035566
-1035716
-1035478
-1035507
-1035521
-1035336
-1035285
-1035228
-1035136
-1035090
-1034982
-1034860
-1034816
-1034573
-1034493
-1034411
-1034274
-1034141
-1034024
-1033848
-1033673
-1033647
-1033451
-1033264
-1033225
-1033087
-1032973
-1032919
-1032804
-1032774
-1032639
-1032499
-1032357
-1032285
-1032223
-1032191
-1032161
-1032071
-1032072
-1032158
-1032066
-1031996
-1032111
-1031991
-1031945
-1032027
-1031971
-1031974
-1031926
-1031948
-1032036
-1031998
-1032035
-1032071
-1032122
-1032076
-1031933
-1031913
-1032040
-1031764
-1031667
-1031811
-1031983
-1032057
-1031967
-1032002
-1032032
-1032127
-1031985
-1031979
-1031995
-1032053
-1031855
-1032077
-1032136
-1032116
-1032069
-1032142
-1032218
-1032097
-1032247
-1032275
-1032335
-1032282
-1032204
-1032285
-1032373
-1032452
-1032465
-1032541
-1032423
-1032509
-1032563
-1032476
-1032465
-1032632
-1032674
-1032770
-1032643
-1032656
-1032754
-1032868
-1032870
-1032801
-1032786
-1032776
-1032737
-1032803
-1032873
-1033279
-1033014
-1032942
-1032858
-1032863
-1032788
-1032886
-1032879
-1032833
-1032859
-1032896
-1032857
-1032858
-1032964
-1032889
-1032967
-1032864
-1032811
-1032821
-1032762
-1032749
-1032737
-1032609
-1032318
-1032569
-1032618
-1032474
-1032548
-1032397
-1032363
-1032309
-1032273
-1032296
-1032039
-1032104
-1032150
-1032190
-1032098
-1032084
-1032175
-1032057
-1032113
-1032116
-1032141
-1032282
-1032184
-1032187
-1032284
-1032181
-1032427
-1032556
-1032577
-1032612
-1032654
-1032596
-1032448
-1032398
-1032471
-1032445
-1032430
-1032356
-1032321
-1032159
-1032195
-1032183
-1032152
-1032219
-1032209
-1032222
-1032239
-1032393
-1032148
-1032323
-1032539
-1032554
-1032563
-1032693
-1032649
-1032729
-1032733
-1032916
-1032901
-1033033
-1033120
-1033186
-1033229
-1033000
-1033148
-1033325
-1033257
-1033289
-1033340
-1033268
-1033308
-1033205
-1033248
-1033199
-1033091
-1033245
-1033132
-1033182
-1033090
-1033051
-1033107
-1033076
-1033107
-1033020
-1033093
-1033164
-1033253
-1033487
-1033578
-1033692
-1033868
-1034219
-1034404
-1033990
-1033223
-1032596
-1031894
-1032324
-1032978
-1033421
-1033282
-1033671
-1032561
-1031693
-1031367
-1031519
-1031746
-1032158
-1032188
-1031848
-1031363
-1030863
-1030595
-1030551
-1030837
-1030997
-1030981
-1030641
-1030204
-1029745
-1029397
-1029340
-1029518
-1029484
-1029316
-1029176
-1028741
-1028962
-1028107
-1028046
-1027972
-1027882
-1027862
-1027539
-1027300
-1026919
-1026929
-1026959
-1027123
-1027252
-1027140
-1026977
-1026833
-1026645
-1026642
-1026596
-1026890
-1027116
-1027198
-1027185
-1027134
-1027097
-1027062
-1027163
-1027370
-1027561
-1027745
-1027687
-1027780
-1027867
-1027919
-1028000
-1028329
-1028554
-1028410
-1028614
-1028805
-1028932
-1028894
-1029023
-1029249
-1029382
-1029594
-1029535
-1029474
-1029475
-1029566
-1029685
-1029717
-1029771
-1029932
-1030051
-1030030
-1030212
-1030233
-1030359
-1030583
-1030768
-1030934
-1031591
-1031196
-1030913
-1031181
-1031353
-1031500
-1031759
-1031952
-1032014
-1032285
-1032327
-1032555
-1032635
-1032828
-1032975
-1033102
-1033088
-1033202
-1033400
-1033570
-1033613
-1033635
-1033750
-1033876
-1034044
-1033914
-1033993
-1033948
-1034008
-1034005
-1034065
-1034252
-1034335
-1034275
-1034328
-1034339
-1034391
-1034346
-1034385
-1034317
-1034625
-1034536
-1034474
-1034590
-1034383
-1034434
-1034614
-1034580
-1034596
-1034709
-1034685
-1034710
-1034592
-1034538
-1034505
-1034431
-1034352
-1034410
-1034482
-1034367
-1034250
-1034352
-1034360
-1034318
-1034275
-1034286
-1034249
-1034229
-1034271
-1034184
-1034233
-1034224
-1034152
-1034155
-1034183
-1034068
-1034156
-1033994
-1034074
-1033953
-1033938
-1033941
-1033893
-1033917
-1033799
-1033745
-1033746
-1033715
-1033742
-1033724
-1033632
-1033612
-1033521
-1033437
-1033445
-1033267
-1033791
-1033373
-1033300
-1033176
-1033246
-1033104
-1033151
-1033136
-1033094
-1033032
-1033041
-1033051
-1033029
-1033104
-1032998
-1032989
-1033001
-1032958
-1032960
-1032764
-1032787
-1032815
-1032795
-1032670
-1032697
-1033323
-1032805
-1032709
-1032717
-1032609
-1032629
-1032746
-1032696
-1032653
-1032673
-1032692
-1032651
-1032714
-1032688
-1032736
-1032687
-1032623
-1032481
-1032452
-1032375
-1032283
-1032285
-1032256
-1032077
-1032180
-1032115
-1032056
-1031968
-1031911
-1031897
-1031784
-1031818
-1031737
-1031723
-1031795
-1031822
-1031808
-1031801
-1031773
-1031769
-1031739
-1031663
-1031537
-1031628
-1031575
-1031748
-1031805
-1031671
-1031804
-1031910
-1031845
-1031943
-1031832
-1031826
-1031778
-1031844
-1031940
-1031961
-1032034
-1032062
-1032066
-1031985
-1032111
-1032235
-1032150
-1032373
-1032354
-1032473
-1032305
-1032426
-1032556
-1032558
-1032506
-1032520
-1032578
-1032603
-1032718
-1032702
-1032796
-1032779
-1032647
-1032731
-1033360
-1032954
-1032756
-1032745
-1032662
-1032751
-1032765
-1032677
-1032707
-1032528
-1032548
-1032504
-1032511
-1032547
-1032532
-1032600
-1032512
-1032557
-1032573
-1032459
-1032330
-1032344
-1032333
-1032202
-1032359
-1032256
-1032300
-1032223
-1032135
-1032132
-1032173
-1032227
-1032091
-1031955
-1032015
-1031960
-1031909
-1031893
-1032030
-1031888
-1031922
-1031998
-1032072
-1032028
-1032006
-1032102
-1032016
-1032176
-1032158
-1032272
-1032328
-1032366
-1032295
-1032427
-1032381
-1032468
-1032517
-1032681
-1032644
-1032790
-1032841
-1032961
-1033149
-1033123
-1033171
-1033230
-1033401
-1033501
-1033489
-1033450
-1033495
-1033706
-1033631
-1033852
-1033877
-1034036
-1034113
-1034234
-1034366
-1034419
-1034325
-1034512
-1034638
-1034676
-1034758
-1034745
-1034809
-1034838
-1034927
-1034803
-1034784
-1034928
-1034922
-1034877
-1034917
-1034905
-1034783
-1034689
-1034840
-1034785
-1034711
-1034777
-1034844
-1034740
-1034797
-1034768
-1034687
-1034637
-1034560
-1034608
-1034570
-1034564
-1034365
-1034343
-1034398
-1034384
-1034473
-1034392
-1034245
-1034271
-1034299
-1034213
-1034151
-1034209
-1034112
-1034106
-1034076
-1033887
-1033907
-1033806
-1033826
-1033800
-1033768
-1033668
-1033562
-1033631
-1033545
-1033551
-1033604
-1033570
-1033661
-1033595
-1033682
-1033726
-1033833
-1033792
-1033697
-1033745
-1033818
-1033836
-1033943
-1033949
-1033931
-1034067
-1034025
-1034034
-1034207
-1034229
-1034186
-1034245
-1034296
-1034392
-1034531
-1034556
-1034588
-1034637
-1034658
-1034606
-1034710
-1034744
-1034775
-1034758
-1034751
-1034841
-1034970
-1034997
-1035126
-1035115
-1035074
-1035152
-1035069
-1035094
-1035229
-1035153
-1035269
-1035289
-1035450
-1035199
-1035279
-1035269
-1035417
-1035478
-1035268
-1035421
-1035434
-1035528
-1035389
-1035400
-1035372
-1035284
-1035352
-1035253
-1035268
-1035295
-1035234
-1035210
-1035244
-1035322
-1035278
-1035290
-1035286
-1035301
-1035259
-1035157
-1035116
-1035045
-1035015
-1035029
-1035019
-1035031
-1035096
-1034938
-1034878
-1034948
-1034821
-1034886
-1034717
-1034627
-1034649
-1034585
-1034455
-1034300
-1034441
-1034224
-1034218
-1034263
-1034182
-1034256
-1034216
-1034133
-1033987
-1033971
-1034025
-1034006
-1034047
-1033861
-1033452
-1033736
-1033816
-1033689
-1033697
-1033693
-1033758
-1033560
-1033660
-1033574
-1033493
-1033523
-1033490
-1033449
-1033453
-1033403
-1033348
-1033336
-1033298
-1033231
-1033265
-1033182
-1033135
-1033106
-1033061
-1032923
-1033479
-1033062
-1032848
-1032703
-1032695
-1032656
-1032665
-1032599
-1032440
-1032338
-1032244
-1032290
-1032274
-1032189
-1032004
-1032010
-1031994
-1031858
-1031737
-1031673
-1031625
-1031535
-1031566
-1031504
-1031450
-1031390
-1031331
-1031394
-1031408
-1031354
-1031398
-1031157
-1031331
-1031457
-1031313
-1031390
-1031315
-1031201
-1031213
-1031207
-1031291
-1031309
-1031220
-1031248
-1031098
-1031015
-1030971
-1031038
-1030759
-1030908
-1030911
-1030836
-1030922
-1031615
-1031023
-1030885
-1030746
-1030666
-1030677
-1030618
-1030662
-1030687
-1030640
-1030696
-1030733
-1030713
-1030639
-1030745
-1030834
-1030935
-1030799
-1030769
-1030941
-1031003
-1030981
-1030887
-1030971
-1031143
-1031061
-1031211
-1031212
-1031243
-1031172
-1031335
-1031347
-1031265
-1031248
-1031265
-1031400
-1031472
-1031354
-1031334
-1031420
-1031382
-1031440
-1031523
-1031493
-1031535
-1031560
-1031578
-1031537
-1031667
-1031595
-1031695
-1031620
-1031728
-1031697
-1031695
-1031710
-1031406
-1031822
-1031916
-1031950
-1031901
-1032043
-1032096
-1032061
-1032083
-1032217
-1032165
-1032315
-1032367
-1032524
-1032482
-1032510
-1032507
-1032593
-1032631
-1032642
-1032695
-1032817
-1032929
-1032984
-1033091
-1033176
-1033122
-1032915
-1033058
-1033217
-1033253
-1033367
-1033445
-1033394
-1033518
-1033548
-1033588
-1033586
-1033739
-1033853
-1033728
-1033521
-1033740
-1033801
-1033740
-1033912
-1033896
-1033866
-1033845
-1033978
-1034041
-1033887
-1034060
-1034149
-1034017
-1033985
-1033671
-1033876
-1034033
-1033987
-1034218
-1034089
-1034104
-1034189
-1034125
-1034112
-1034024
-1033988
-1034082
-1034092
-1034065
-1034069
-1034109
-1033954
-1034007
-1033987
-1034095
-1034061
-1033922
-1034006
-1033968
-1034033
-1033942
-1034035
-1033971
-1033880
-1033975
-1034101
-1034102
-1034093
-1034036
-1034155
-1034152
-1034023
-1034145
-1034059
-1034065
-1034073
-1034228
-1034250
-1034151
-1034254
-1034211
-1034266
-1034217
-1034356
-1034400
-1034394
-1034261
-1034370
-1034417
-1034458
-1034463
-1034369
-1034403
-1034480
-1034540
-1034505
-1034538
-1034593
-1034682
-1034591
-1034609
-1034663
-1034517
-1034379
-1034375
-1034415
-1034243
-1034099
-1034111
-1034019
-1033802
-1033774
-1033694
-1033472
-1033387
-1033155
-1033076
-1032930
-1032644
-1032496
-1032341
-1032189
-1031948
-1031861
-1031786
-1031733
-1031706
-1031521
-1031352
-1031342
-1031386
-1031337
-1031811
-1031526
-1031517
-1031452
-1031416
-1031458
-1031440
-1031465
-1031679
-1031719
-1031796
-1031753
-1031805
-1031942
-1031949
-1031952
-1031961
-1031880
-1031803
-1031884
-1031872
-1031811
-1031837
-1031896
-1031800
-1031943
-1031884
-1031906
-1031975
-1031946
-1032012
-1032165
-1032259
-1032447
-1032378
-1032479
-1032652
-1032711
-1032856
-1033026
-1033093
-1033301
-1033513
-1033680
-1033943
-1034056
-1034263
-1034418
-1034603
-1034829
-1034926
-1035059
-1035281
-1035464
-1035555
-1035806
-1035808
-1035940
-1036111
-1036057
-1036090
-1036235
-1036179
-1036281
-1036377
-1036365
-1036331
-1036410
-1036321
-1036291
-1036279
-1036296
-1036293
-1036292
-1036249
-1036323
-1035833
-1036052
-1036276
-1036096
-1035976
-1035867
-1035797
-1035727
-1035661
-1035853
-1035747
-1035890
-1035964
-1036060
-1036069
-1036040
-1036028
-1036050
-1035960
-1035864
-1035794
-1035733
-1035508
-1035373
-1035209
-1035103
-1034984
-1034962
-1034853
-1034710
-1034459
-1034384
-1034248
-1034224
-1034253
-1034093
-1033955
-1033853
-1033839
-1033647
-1033551
-1033613
-1033468
-1033449
-1033336
-1033361
-1033479
-1033350
-1033441
-1033437
-1033504
-1033381
-1033421
-1033431
-1033302
-1033422
-1033239
-1033324
-1033315
-1033309
-1033101
-1033054
-1033097
-1033080
-1033163
-1032972
-1033103
-1033091
-1033152
-1033085
-1033074
-1033141
-1033117
-1033213
-1033141
-1033305
-1033306
-1033294
-1033306
-1033278
-1033417
-1033434
-1033416
-1033429
-1033462
-1033534
-1033573
-1033605
-1033761
-1033694
-1033804
-1033898
-1033914
-1034034
-1034111
-1034158
-1034254
-1034158
-1034213
-1034232
-1034342
-1034412
-1034375
-1034418
-1034527
-1034526
-1034606
-1034625
-1034597
-1034482
-1034543
-1034623
-1034647
-1034531
-1034585
-1034575
-1034558
-1034584
-1034529
-1034545
-1034557
-1034431
-1034414
-1034322
-1034370
-1034431
-1034404
-1034230
-1034195
-1034233
-1034184
-1034166
-1034081
-1034121
-1034027
-1033967
-1034009
-1033966
-1033951
-1033879
-1033912
-1033996
-1034019
-1033980
-1033894
-1033896
-1033931
-1033933
-1034069
-1033941
-1033995
-1034041
-1033937
-1033902
-1033955
-1033933
-1033984
-1034083
-1034138
-1034106
-1034059
-1034173
-1034291
-1034294
-1034238
-1034256
-1034322
-1034305
-1034302
-1034200
-1034092
-1033990
-1033992
-1033922
-1033791
-1033653
-1033630
-1033681
-1033441
-1033413
-1033301
-1033097
-1033019
-1032844
-1032698
-1032554
-1032374
-1032153
-1031995
-1031874
-1031620
-1031458
-1031305
-1031182
-1031077
-1030980
-1030646
-1030508
-1030217
-1030097
-1029842
-1029719
-1029636
-1029339
-1029150
-1029006
-1029074
-1028903
-1028750
-1028802
-1028673
-1028653
-1028843
-1028900
-1029028
-1028931
-1028998
-1029083
-1029261
-1029234
-1029322
-1029428
-1029520
-1029713
-1029679
-1029788
-1029808
-1029828
-1029912
-1029898
-1029939
-1029937
-1030025
-1029963
-1030024
-1030057
-1030008
-1030120
-1030026
-1030046
-1030075
-1030185
-1030195
-1030185
-1030293
-1030457
-1030638
-1030668
-1030833
-1030843
-1031029
-1031167
-1031129
-1031268
-1031387
-1031479
-1031703
-1031826
-1031948
-1032076
-1032198
-1032359
-1032509
-1032721
-1032744
-1032923
-1033015
-1033138
-1033161
-1033243
-1033361
-1033334
-1033318
-1033430
-1033529
-1033448
-1033493
-1033656
-1033565
-1033681
-1033618
-1033660
-1033616
-1033704
-1033728
-1033880
-1033927
-1033898
-1033885
-1033930
-1033830
-1033926
-1033883
-1033895
-1034031
-1034032
-1034072
-1034165
-1034064
-1034069
-1034101
-1034106
-1034193
-1034210
-1034197
-1034318
-1034353
-1034290
-1034283
-1034262
-1034285
-1034374
-1034482
-1034485
-1034480
-1034462
-1034422
-1034471
-1034466
-1034614
-1034664
-1034742
-1034576
-1034563
-1034644
-1034775
-1034678
-1034741
-1034807
-1034676
-1034794
-1034748
-1034752
-1034862
-1034944
-1034854
-1034830
-1034809
-1034925
-1034868
-1034965
-1034922
-1034858
-1034867
-1034887
-1035021
-1035001
-1035094
-1034989
-1034628
-1034998
-1034897
-1034923
-1035019
-1035069
-1035033
-1035009
-1035091
-1035011
-1035029
-1035006
-1035089
-1035062
-1034966
-1034980
-1035093
-1034917
-1034909
-1034962
-1034657
-1034747
-1034807
-1034877
-1034708
-1034794
-1034429
-1034602
-1034551
-1034579
-1034495
-1034506
-1034502
-1034308
-1034241
-1034273
-1034194
-1034233
-1034064
-1033983
-1033866
-1033842
-1033865
-1033863
-1033814
-1033695
-1033557
-1033585
-1033534
-1033444
-1033500
-1033399
-1033272
-1033112
-1033127
-1033085
-1032906
-1032821
-1032682
-1032562
-1032465
-1032315
-1032284
-1032190
-1032166
-1031962
-1031867
-1031813
-1031730
-1031624
-1031620
-1031504
-1031389
-1031426
-1031322
-1031370
-1031182
-1031145
-1030962
-1030987
-1031008
-1030814
-1030733
-1030768
-1030728
-1030704
-1030611
-1030433
-1030512
-1030406
-1030477
-1030280
-1030461
-1030374
-1030292
-1030308
-1030235
-1030146
-1030168
-1030188
-1030169
-1030213
-1030195
-1030080
-1030038
-1030036
-1030077
-1029992
-1030005
-1030108
-1029957
-1029910
-1030019
-1030104
-1030100
-1030086
-1029965
-1029916
-1029807
-1029892
-1029829
-1029860
-1029808
-1029881
-1029884
-1029793
-1029714
-1029748
-1029790
-1029734
-1029678
-1029638
-1029787
-1029665
-1029780
-1029677
-1029574
-1029653
-1029513
-1029622
-1029613
-1029646
-1029685
-1029658
-1029663
-1030008
-1029726
-1029589
-1029498
-1029414
-1029475
-1029437
-1029381
-1029498
-1029394
-1029906
-1029466
-1029286
-1029223
-1029205
-1029222
-1029220
-1029285
-1029214
-1029280
-1029317
-1029299
-1029165
-1029138
-1029130
-1029189
-1029196
-1029213
-1029158
-1029172
-1029034
-1029133
-1029032
-1029060
-1029124
-1029109
-1029035
-1029105
-1029017
-1028976
-1029036
-1028906
-1028977
-1028975
-1028988
-1028997
-1028927
-1028925
-1028920
-1028916
-1028847
-1028930
-1028864
-1028840
-1028948
-1028964
-1028898
-1028956
-1029035
-1028917
-1028971
-1028811
-1028946
-1029000
-1028907
-1028982
-1029050
-1029068
-1029002
-1029027
-1029068
-1029114
-1029231
-1029128
-1029083
-1029229
-1029126
-1029152
-1028832
-1029186
-1029124
-1029153
-1029210
-1029087
-1029067
-1029022
-1029084
-1029094
-1029180
-1029062
-1029056
-1029061
-1028934
-1029069
-1029007
-1029100
-1029156
-1029014
-1029037
-1029092
-1029068
-1029119
-1029070
-1029122
-1029077
-1029107
-1029138
-1029132
-1029113
-1029120
-1029144
-1029173
-1029203
-1029149
-1029188
-1029184
-1029285
-1029093
-1029170
-1029169
-1029219
-1029237
-1029192
-1029158
-1029303
-1029286
-1029164
-1029261
-1029314
-1029315
-1029349
-1029337
-1029241
-1029228
-1029335
-1029307
-1029120
-1029112
-1029281
-1029267
-1029351
-1029357
-1029223
-1029295
-1029380
-1029261
-1029217
-1029171
-1029245
-1029261
-1029263
-1029347
-1029297
-1029358
-1029416
-1029387
-1029397
-1029415
-1029406
-1029417
-1029470
-1029477
-1029492
-1029457
-1029704
-1029628
-1029577
-1029706
-1029875
-1029889
-1029797
-1029842
-1029852
-1029816
-1029826
-1029978
-1030011
-1029940
-1030032
-1029999
-1030055
-1029939
-1030069
-1030033
-1029975
-1030031
-1030091
-1030039
-1030013
-1030095
-1030219
-1030162
-1030156
-1030059
-1030141
-1030077
-1030172
-1030237
-1030238
-1030257
-1030280
-1030260
-1030357
-1030387
-1030316
-1030218
-1030230
-1030256
-1030219
-1030304
-1030376
-1030489
-1030516
-1030511
-1030529
-1030518
-1030548
-1030537
-1030494
-1030562
-1030618
-1030646
-1030502
-1030401
-1030496
-1030487
-1030561
-1030492
-1030445
-1030432
-1030397
-1030487
-1030603
-1030520
-1030535
-1030595
-1030607
-1030567
-1030679
-1030700
-1030798
-1030818
-1030696
-1030783
-1030662
-1030678
-1030758
-1030729
-1030788
-1030852
-1030834
-1030674
-1030825
-1030818
-1030776
-1030839
-1030742
-1030709
-1030763
-1030756
-1030811
-1030806
-1030905
-1030826
-1030810
-1030883
-1030837
-1030716
-1030696
-1030729
-1030781
-1030815
-1030718
-1030622
-1030654
-1030563
-1030497
-1030448
-1030432
-1030405
-1030323
-1030247
-1030416
-1030219
-1030282
-1030185
-1030129
-1030050
-1030087
-1029928
-1029838
-1029845
-1029846
-1029722
-1029609
-1029617
-1029444
-1029457
-1029356
-1029240
-1029131
-1029164
-1029116
-1029664
-1029135
-1028967
-1028791
-1028639
-1028719
-1028639
-1028570
-1028457
-1028452
-1028437
-1028456
-1028209
-1028289
-1028191
-1028075
-1028120
-1027975
-1027925
-1027888
-1027838
-1027652
-1027667
-1027561
-1027465
-1027328
-1027206
-1026912
-1026978
-1026925
-1026907
-1026855
-1026699
-1026640
-1026435
-1026459
-1026373
-1026209
-1026248
-1026195
-1026147
-1025999
-1025821
-1025790
-1025760
-1025836
-1025780
-1025619
-1025429
-1025566
-1025383
-1025425
-1025374
-1025322
-1025193
-1025254
-1025270
-1025157
-1025171
-1025122
-1025044
-1024968
-1025037
-1024938
-1024906
-1025036
-1024917
-1025009
-1024814
-1024813
-1024805
-1024784
-1024824
-1024802
-1024880
-1024878
-1024895
-1024786
-1024856
-1024723
-1024660
-1024709
-1024649
-1024730
-1024666
-1024689
-1024659
-1024608
-1024572
-1024509
-1024441
-1024612
-1024442
-1024432
-1024507
-1024391
-1024383
-1024384
-1024314
-1024318
-1024379
-1024358
-1024309
-1024313
-1024419
-1024275
-1024356
-1024299
-1024293
-1024369
-1024238
-1024365
-1024309
-1024281
-1024299
-1024394
-1024362
-1024384
-1024395
-1024402
-1024244
-1024325
-1024270
-1024339
-1024390
-1024536
-1024428
-1024390
-1024349
-1024334
-1024311
-1024238
-1024121
-1024085
-1024311
-1024358
-1024352
-1024396
-1024378
-1024508
-1024443
-1024495
-1024382
-1024335
-1024345
-1024368
-1024473
-1024404
-1024408
-1024384
-1024318
-1024135
-1024137
-1024264
-1024234
-1024324
-1024415
-1024470
-1024412
-1024539
-1024505
-1024526
-1024419
-1024405
-1024506
-1024415
-1024526
-1024504
-1024523
-1024457
-1024509
-1024428
-1024383
-1024520
-1024564
-1024539
-1024595
-1024501
-1024484
-1024280
-1024416
-1024464
-1024591
-1024615
-1024671
-1024614
-1024542
-1024706
-1024623
-1024609
-1024676
-1024754
-1024849
-1024747
-1024752
-1024857
-1024861
-1024905
-1024878
-1024882
-1024847
-1024930
-1024890
-1024906
-1024952
-1025023
-1024998
-1024970
-1025027
-1024962
-1025047
-1025130
-1025121
-1025212
-1025124
-1025208
-1025241
-1025275
-1025153
-1025118
-1025326
-1025303
-1025341
-1025408
-1025278
-1025374
-1025391
-1025393
-1025320
-1025291
-1025263
-1025344
-1025319
-1025375
-1025283
-1025234
-1025209
-1025340
-1025297
-1025260
-1025230
-1025217
-1025224
-1025254
-1025293
-1025270
-1025351
-1025330
-1025360
-1025349
-1025291
-1025382
-1025265
-1025259
-1025297
-1025313
-1025445
-1025478
-1025383
-1025324
-1025425
-1025331
-1025330
-1025491
-1025515
-1025586
-1025639
-1025600
-1025502
-1025518
-1025618
-1025732
-1025602
-1025811
-1025714
-1025794
-1025769
-1025851
-1025948
-1025901
-1025878
-1025870
-1025965
-1025846
-1026027
-1025912
-1025896
-1025951
-1025956
-1025992
-1026135
-1026083
-1026024
-1026176
-1026034
-1026138
-1026140
-1026197
-1026145
-1026212
-1026322
-1026332
-1026197
-1026301
-1026276
-1026328
-1026356
-1026222
-1026379
-1026272
-1026402
-1026395
-1026470
-1026487
-1026412
-1026326
-1026481
-1026455
-1026590
-1026586
-1026471
-1026655
-1026722
-1026644
-1026662
-1026582
-1026648
-1026664
-1026693
-1026724
-1026728
-1026841
-1026856
-1026878
-1026841
-1026856
-1026961
-1026885
-1027006
-1026965
-1026880
-1026979
-1026968
-1027112
-1027014
-1026969
-1027011
-1027163
-1027159
-1027209
-1027235
-1027153
-1027174
-1027044
-1027132
-1027079
-1027047
-1027114
-1027121
-1027202
-1027173
-1027086
-1027247
-1027340
-1027354
-1027196
-1027326
-1027258
-1027311
-1027307
-1027312
-1027358
-1027379
-1027283
-1027402
-1027106
-1027271
-1027269
-1027277
-1027207
-1027326
-1027299
-1027184
-1027232
-1027214
-1027164
-1027135
-1027046
-1027020
-1026935
-1026937
-1026988
-1026855
-1026896
-1026846
-1026759
-1026663
-1026473
-1026545
-1026418
-1026468
-1026355
-1026434
-1026335
-1026251
-1026203
-1026057
-1026019
-1026045
-1025960
-1025858
-1025365
-1025583
-1025646
-1025732
-1025706
-1025645
-1025551
-1025414
-1025576
-1025604
-1025525
-1025400
-1025374
-1025383
-1025340
-1025290
-1025283
-1025290
-1025270
-1025333
-1025187
-1025244
-1025125
-1024997
-1025052
-1025071
-1025104
-1025134
-1025073
-1024997
-1025067
-1025003
-1025010
-1024900
-1024910
-1024846
-1024864
-1024846
-1024784
-1024814
-1024899
-1024751
-1024785
-1024844
-1024822
-1024794
-1024725
-1024827
-1024746
-1024845
-1024814
-1024849
-1024780
-1024737
-1024668
-1024667
-1024814
-1024768
-1024790
-1024800
-1024883
-1024832
-1024702
-1024766
-1024882
-1024779
-1024866
-1024936
-1025001
-1024905
-1024970
-1024876
-1024872
-1024869
-1024824
-1024991
-1024898
-1024995
-1024763
-1024957
-1025029
-1025065
-1025168
-1025010
-1025060
-1025185
-1025228
-1025303
-1025332
-1025243
-1025277
-1025257
-1025181
-1025395
-1025403
-1025395
-1025356
-1025436
-1025471
-1025498
-1025383
-1025323
-1025401
-1025439
-1025592
-1025634
-1025615
-1025573
-1025595
-1025613
-1025596
-1025763
-1025799
-1025785
-1025818
-1025753
-1025839
-1025955
-1025928
-1025906
-1025939
-1026027
-1025992
-1026062
-1026012
-1026079
-1026037
-1026158
-1026449
-1026264
-1026168
-1026256
-1026219
-1026143
-1026083
-1026084
-1026115
-1026190
-1026315
-1026313
-1026408
-1026347
-1026370
-1026390
-1026464
-1026559
-1026574
-1026635
-1026586
-1026613
-1026730
-1026736
-1026813
-1026738
-1026736
-1026897
-1026965
-1026997
-1026951
-1026965
-1026916
-1026936
-1026896
-1026850
-1026914
-1026978
-1027001
-1027015
-1027057
-1027106
-1026994
-1027116
-1027103
-1026891
-1027068
-1027054
-1027063
-1027021
-1026918
-1026996
-1026902
-1026959
-1027035
-1026926
-1026909
-1027020
-1026780
-1026916
-1027090
-1027053
-1026976
-1027040
-1027009
-1026994
-1027061
-1027101
-1027099
-1027249
-1027236
-1027314
-1027257
-1027228
-1027303
-1027410
-1027305
-1027444
-1027474
-1027410
-1027340
-1027398
-1027367
-1027422
-1027594
-1027610
-1027559
-1027474
-1027541
-1027476
-1027348
-1027379
-1027463
-1027563
-1027568
-1027659
-1027551
-1027494
-1027565
-1027566
-1027681
-1027716
-1027694
-1027580
-1027558
-1027672
-1027699
-1027698
-1027680
-1027781
-1027865
-1027871
-1027910
-1027867
-1027818
-1027732
-1027705
-1027736
-1027918
-1027820
-1027958
-1027971
-1028016
-1027959
-1027883
-1027993
-1027875
-1028036
-1027999
-1028068
-1027964
-1028008
-1027952
-1027998
-1027918
-1028011
-1027965
-1027932
-1028121
-1028174
-1028141
-1028106
-1028215
-1028227
-1028263
-1028208
-1028194
-1028091
-1028146
-1028215
-1028203
-1028156
-1028293
-1028401
-1028416
-1028316
-1028127
-1028271
-1028308
-1028107
-1028350
-1028459
-1028440
-1028394
-1028376
-1028373
-1028331
-1028310
-1028459
-1028439
-1028487
-1028521
-1028520
-1028386
-1028395
-1028450
-1028500
-1028410
-1029422
-1028794
-1028597
-1028438
-1028237
-1028276
-1028345
-1028541
-1028574
-1028501
-1028429
-1028595
-1028608
-1028639
-1028461
-1028478
-1028416
-1028394
-1028000
-1028309
-1028440
-1028473
-1028610
-1028648
-1028630
-1028514
-1028482
-1028631
-1028589
-1028567
-1028547
-1028676
-1028572
-1028539
-1028476
-1028539
-1028397
-1028429
-1028473
-1028403
-1028353
-1028318
-1028357
-1028272
-1028248
-1028142
-1028041
-1027999
-1027888
-1027789
-1027870
-1027760
-1027669
-1027576
-1027582
-1027449
-1027380
-1027283
-1027242
-1027293
-1027284
-1027131
-1027019
-1027035
-1027030
-1026987
-1026967
-1026852
-1026742
-1026713
-1026682
-1026707
-1026196
-1026533
-1026441
-1026438
-1026326
-1026236
-1026177
-1026270
-1026143
-1026098
-1026071
-1026034
-1025837
-1025730
-1025651
-1025342
-1025158
-1025218
-1025086
-1024985
-1024993
-1025055
-1024980
-1024931
-1024871
-1024762
-1024736
-1024703
-1024686
-1024641
-1024508
-1024245
-1024336
-1024498
-1024434
-1024406
-1024462
-1024237
-1024290
-1024307
-1024252
-1024207
-1024197
-1024161
-1024103
-1024133
-1024055
-1024136
-1024162
-1024218
-1024094
-1024149
-1024015
-1023962
-1023967
-1023925
-1024000
-1023993
-1023832
-1023873
-1024037
-1023966
-1023943
-1023884
-1023920
-1023875
-1023872
-1023882
-1023925
-1023763
-1023840
-1023732
-1023716
-1023742
-1023717
-1023620
-1023606
-1023664
-1023588
-1023631
-1023621
-1023678
-1023625
-1023641
-1023650
-1023602
-1023678
-1023738
-1023641
-1023627
-1023611
-1023689
-1023816
-1023705
-1023837
-1023703
-1023778
-1023804
-1023925
-1023923
-1023767
-1023786
-1023654
-1023770
-1023847
-1023789
-1023736
-1023949
-1023810
-1023479
-1023797
-1023833
-1023895
-1023925
-1024000
-1024046
-1024103
-1024100
-1024174
-1024247
-1024384
-1024467
-1024505
-1024542
-1024525
-1024586
-1024786
-1024648
-1024792
-1024753
-1024710
-1024776
-1024697
-1024719
-1024820
-1024760
-1024723
-1024724
-1024605
-1024399
-1024161
-1024311
-1024317
-1024195
-1024227
-1024253
-1024296
-1024320
-1024246
-1024186
-1024190
-1024221
-1024296
-1024396
-1024449
-1024517
-1024467
-1024518
-1024597
-1024725
-1024681
-1024856
-1024790
-1024883
-1024950
-1024999
-1024904
-1024954
-1024910
-1024963
-1024901
-1024897
-1024869
-1024779
-1024729
-1024593
-1024534
-1024596
-1024554
-1024542
-1024449
-1024199
-1024262
-1024184
-1024179
-1024099
-1024223
-1024193
-1024087
-1024711
-1024245
-1024055
-1023910
-1023823
-1023963
-1023913
-1024003
-1023995
-1024059
-1024002
-1023892
-1023941
-1023994
-1024008
-1024055
-1023971
-1023954
-1023899
-1024062
-1024079
-1024017
-1024083
-1023628
-1023932
-1023956
-1023977
-1023996
-1024061
-1023939
-1024097
-1024023
-1024069
-1024007
-1024086
-1024042
-1024181
-1024152
-1024228
-1024186
-1024115
-1024058
-1024017
-1024036
-1023967
-1023946
-1023739
-1023898
-1024010
-1023983
-1024040
-1024014
-1023892
-1023895
-1023883
-1023943
-1023900
-1024027
-1024168
-1024275
-1024349
-1024268
-1024214
-1024228
-1024215
-1024304
-1024367
-1024503
-1024410
-1024595
-1024635
-1024610
-1024603
-1024643
-1024829
-1024690
-1024852
-1024968
-1025041
-1024970
-1025010
-1025070
-1024999
-1024897
-1024996
-1024986
-1024896
-1024905
-1024987
-1024928
-1025033
-1024690
-1024819
-1024798
-1024912
-1024868
-1024816
-1024986
-1025040
-1024783
-1025016
-1025018
-1024983
-1024940
-1024878
-1024910
-1024996
-1024886
-1025035
-1025031
-1025147
-1025153
-1025129
-1024946
-1024938
-1025020
-1025000
-1025052
-1025137
-1025245
-1025358
-1025171
-1025261
-1024882
-1025053
-1025112
-1024897
-1025086
-1025231
-1025371
-1025494
-1025447
-1025392
-1025370
-1025384
-1025325
-1025477
-1025590
-1025490
-1025469
-1025582
-1025578
-1025485
-1025543
-1025561
-1025613
-1025353
-1025527
-1025688
-1025624
-1025862
-1025704
-1025821
-1025721
-1025816
-1025588
-1025924
-1025986
-1026008
-1025934
-1026020
-1026082
-1026003
-1026054
-1026087
-1026000
-1026180
-1026238
-1026207
-1026149
-1026281
-1026299
-1026011
-1026141
-1026242
-1026168
-1026200
-1026387
-1026345
-1026357
-1026234
-1026073
-1026184
-1026106
-1026182
-1026072
-1026110
-1026265
-1026194
-1026267
-1026183
-1026141
-1026042
-1025831
-1025662
-1025814
-1025914
-1025853
-1025918
-1025980
-1025842
-1025954
-1025893
-1026664
-1025954
-1025809
-1025592
-1025788
-1025356
-1025664
-1025548
-1025295
-1025413
-1025453
-1025372
-1025503
-1025365
-1025390
-1025313
-1025278
-1025227
-1025031
-1025064
-1024997
-1024983
-1024966
-1024930
-1025529
-1024809
-1024848
-1024760
-1024614
-1024576
-1024612
-1024378
-1024093
-1024361
-1025095
-1024539
-1024121
-1024067
-1024137
-1024038
-1023951
-1023853
-1023854
-1023900
-1023972
-1024042
-1023811
-1023729
-1023760
-1023699
-1023547
-1023590
-1023580
-1023718
-1023644
-1023589
-1023547
-1023453
-1023447
-1023405
-1023297
-1023307
-1023385
-1023449
-1023621
-1023557
-1023378
-1023129
-1024377
-1023650
-1023340
-1023302
-1023266
-1023171
-1023191
-1023291
-1023216
-1023233
-1023206
-1022754
-1022961
-1022892
-1023128
-1023070
-1023108
-1023061
-1023025
-1023164
-1023081
-1023105
-1023050
-1023082
-1023092
-1022885
-1023026
-1023111
-1023107
-1023045
-1023089
-1023031
-1023098
-1023011
-1023025
-1022993
-1023841
-1023396
-1023108
-1023696
-1023293
-1023097
-1022991
-1022922
-1023006
-1023164
-1023251
-1023298
-1023225
-1023153
-1023107
-1023867
-1023328
-1023324
-1023303
-1024072
-1023522
-1023505
-1023379
-1023313
-1023267
-1023376
-1023341
-1023109
-1023184
-1023319
-1023954
-1023665
-1023488
-1023450
-1023273
-1023557
-1023264
-1023512
-1023545
-1023690
-1023681
-1023745
-1023739
-1023779
-1023744
-1023813
-1023730
-1023761
-1023795
-1023682
-1023971
-1023916
-1024076
-1024110
-1023984
-1024121
-1024153
-1024161
-1024233
-1024308
-1024313
-1024128
-1023999
-1024285
-1024406
-1024297
-1024327
-1024350
-1024383
-1024489
-1024542
-1024503
-1024701
-1024744
-1024717
-1024609
-1024732
-1024693
-1024781
-1025701
-1025098
-1024997
-1025089
-1024961
-1025142
-1025180
-1025140
-1025189
-1025163
-1025294
-1025236
-1025294
-1025304
-1025406
-1025321
-1025480
-1025441
-1025544
-1025473
-1025604
-1025640
-1025731
-1025839
-1025842
-1025835
-1025834
-1025909
-1025942
-1026049
-1026040
-1025979
-1026073
-1026148
-1026063
-1025974
-1026016
-1026204
-1026230
-1026228
-1026328
-1026348
-1026721
-1026625
-1026725
-1026818
-1026964
-1026866
-1027015
-1026968
-1027023
-1026835
-1026958
-1027046
-1027122
-1027177
-1027071
-1027140
-1027223
-1027105
-1027215
-1027158
-1027311
-1027286
-1027291
-1027317
-1027392
-1027548
-1027537
-1027599
-1027629
-1027567
-1027637
-1027763
-1027794
-1027834
-1027846
-1028067
-1028081
-1027894
-1027904
-1027926
-1028074
-1028088
-1028131
-1028158
-1028268
-1028266
-1028401
-1028360
-1028317
-1028340
-1028483
-1028521
-1028510
-1028469
-1028552
-1028647
-1028579
-1028696
-1028601
-1028575
-1028632
-1028787
-1028742
-1028767
-1028885
-1028784
-1028890
-1028882
-1028954
-1028930
-1028938
-1029067
-1029232
-1029251
-1029199
-1029197
-1029206
-1029212
-1029233
-1029235
-1029295
-1029380
-1029443
-1029596
-1029607
-1029564
-1029729
-1029651
-1029721
-1029590
-1029608
-1029713
-1029928
-1029916
-1029929
-1029960
-1030076
-1029963
-1029950
-1030001
-1030039
-1030092
-1030257
-1030214
-1030267
-1030466
-1030288
-1030269
-1030273
-1030282
-1030518
-1030483
-1030652
-1030695
-1030769
-1030776
-1030698
-1030745
-1030753
-1030845
-1030776
-1030916
-1030969
-1031146
-1031089
-1031092
-1031152
-1031262
-1031279
-1031165
-1031390
-1031339
-1031526
-1031538
-1031586
-1031568
-1031552
-1031473
-1031538
-1031562
-1031645
-1031718
-1031619
-1031659
-1031720
-1031662
-1031747
-1031661
-1031723
-1031623
-1031692
-1031752
-1031699
-1031857
-1031731
-1031823
-1031672
-1031652
-1031758
-1031669
-1031726
-1031678
-1031756
-1031735
-1031746
-1031677
-1031672
-1031673
-1031603
-1031511
-1031604
-1031668
-1031621
-1031710
-1031657
-1031552
-1031581
-1031510
-1031446
-1031492
-1031456
-1031405
-1031505
-1031455
-1031489
-1031417
-1031346
-1031183
-1031057
-1031065
-1031110
-1031090
-1031125
-1031088
-1031132
-1031096
-1030986
-1030872
-1030933
-1030950
-1030840
-1030944
-1030877
-1030867
-1030790
-1030713
-1030807
-1030662
-1030568
-1030653
-1030657
-1030614
-1030589
-1030635
-1030619
-1030512
-1030485
-1030400
-1030364
-1030431
-1030411
-1030366
-1030363
-1030365
-1030424
-1030410
-1030382
-1030432
-1030371
-1030427
-1030398
-1030372
-1030418
-1030402
-1030455
-1030520
-1030468
-1030399
-1030441
-1030477
-1030424
-1030483
-1030575
-1030559
-1030517
-1030458
-1030462
-1030514
-1030576
-1030606
-1030555
-1030540
-1030700
-1030750
-1030664
-1030616
-1030734
-1030783
-1030738
-1030697
-1030763
-1030853
-1030838
-1030995
-1030929
-1030890
-1031029
-1030900
-1030917
-1031003
-1031092
-1031004
-1031079
-1031062
-1031257
-1031312
-1031359
-1031278
-1031231
-1031223
-1031323
-1031377
-1031391
-1031507
-1031555
-1031493
-1031518
-1031532
-1031464
-1031505
-1031662
-1031630
-1031656
-1031788
-1031765
-1031816
-1031754
-1031818
-1031780
-1031846
-1031901
-1031923
-1031943
-1032014
-1032048
-1032197
-1032169
-1032076
-1032018
-1032123
-1032231
-1032316
-1032284
-1032483
-1032466
-1032428
-1032475
-1032451
-1032486
-1032522
-1032589
-1032702
-1032804
-1032890
-1032852
-1032944
-1032831
-1032953
-1032893
-1032906
-1032953
-1033160
-1033192
-1033225
-1033228
-1033330
-1033212
-1033419
-1033328
-1033294
-1033460
-1033430
-1033578
-1033711
-1033689
-1033680
-1033711
-1033827
-1033868
-1033944
-1034056
-1034045
-1034217
-1034124
-1034087
-1034111
-1034119
-1034147
-1034247
-1034407
-1034421
-1034592
-1034511
-1034504
-1034554
-1034544
-1034609
-1034568
-1034625
-1034760
-1034899
-1034998
-1034926
-1034899
-1034901
-1035074
-1034904
-1034978
-1035066
-1035207
-1035335
-1035444
-1035482
-1035452
-1035388
-1035344
-1035326
-1035349
-1035427
-1035594
-1035639
-1035694
-1035801
-1035722
-1035816
-1035723
-1035694
-1035772
-1035839
-1035886
-1035920
-1036210
-1036150
-1036155
-1036112
-1036121
-1036236
-1036078
-1036245
-1036385
-1036465
-1036381
-1036397
-1036491
-1036593
-1036543
-1036509
-1036661
-1036757
-1036736
-1036783
-1036823
-1036799
-1036932
-1036911
-1036850
-1036981
-1037088
-1037119
-1037141
-1037196
-1037327
-1037302
-1037252
-1037379
-1037417
-1037367
-1037449
-1037489
-1037557
-1037596
-1037578
-1037664
-1037745
-1037755
-1037628
-1037718
-1037635
-1037829
-1037758
-1037835
-1037930
-1037877
-1037790
-1037771
-1037922
-1037830
-1037975
-1038037
-1038150
-1038213
-1038154
-1038162
-1038134
-1038077
-1038105
-1038190
-1038352
-1038416
-1038522
-1038592
-1038616
-1038522
-1038614
-1038609
-1038527
-1038617
-1038838
-1038853
-1038996
-1039060
-1038967
-1039081
-1039129
-1039127
-1039092
-1039197
-1039274
-1039242
-1039271
-1039442
-1039508
-1039504
-1039491
-1039642
-1039658
-1039781
-1039802
-1039932
-1039995
-1039950
-1040038
-1039976
-1039986
-1040145
-1040249
-1040406
-1040343
-1040365
-1040279
-1040245
-1040257
-1040250
-1040369
-1040310
-1040352
-1040533
-1040564
-1040468
-1040389
-1040457
-1040293
-1040246
-1040320
-1040301
-1040336
-1040318
-1040343
-1040234
-1040139
-1040257
-1040092
-1040038
-1040024
-1039995
-1039988
-1040007
-1040076
-1039973
-1039884
-1039910
-1039835
-1039684
-1039805
-1039662
-1039776
-1039816
-1039699
-1039729
-1039567
-1039589
-1039477
-1039444
-1039405
-1039482
-1039472
-1039459
-1039325
-1039372
-1039189
-1039233
-1039282
-1039172
-1039046
-1039230
-1039131
-1039127
-1039033
-1039065
-1038940
-1038976
-1038970
-1038859
-1038826
-1038906
-1038799
-1038813
-1038812
-1038723
-1038768
-1038708
-1038744
-1038751
-1038612
-1038598
-1038599
-1038514
-1038515
-1038496
-1038532
-1038589
-1038612
-1038467
-1038556
-1038535
-1038543
-1038489
-1038530
-1038430
-1038528
-1038598
-1038596
-1038489
-1038443
-1038465
-1038391
-1038376
-1038510
-1038533
-1038546
-1038435
-1038431
-1038453
-1038592
-1038570
-1038568
-1038643
-1038608
-1038569
-1038587
-1038620
-1038669
-1038852
-1038719
-1038789
-1038816
-1038770
-1038715
-1038805
-1038771
-1038759
-1038804
-1038802
-1038780
-1038869
-1038984
-1038874
-1038865
-1038863
-1038911
-1039038
-1039079
-1039113
-1039093
-1039112
-1039187
-1039198
-1039068
-1039152
-1039159
-1039248
-1039312
-1039308
-1039355
-1039402
-1039475
-1039539
-1039458
-1039528
-1039512
-1039643
-1039628
-1039676
-1039589
-1039656
-1039708
-1039750
-1039796
-1039952
-1039789
-1039882
-1039874
-1039885
-1040076
-1040053
-1040061
-1040083
-1040045
-1040157
-1040242
-1040241
-1040295
-1040389
-1040356
-1040341
-1040386
-1040445
-1040473
-1040530
-1040495
-1040568
-1040747
-1040699
-1040670
-1040873
-1040815
-1040864
-1041020
-1040939
-1041068
-1041167
-1041117
-1041065
-1041177
-1041178
-1041212
-1041173
-1041241
-1041390
-1041509
-1041454
-1041535
-1041586
-1041550
-1041753
-1041705
-1041765
-1041706
-1041686
-1041717
-1041910
-1041887
-1042014
-1041977
-1042126
-1042103
-1042198
-1042194
-1042239
-1042283
-1042382
-1042531
-1042526
-1042670
-1042592
-1042584
-1042699
-1042594
-1042677
-1042643
-1042728
-1042814
-1042913
-1042835
-1042994
-1043019
-1043139
-1043141
-1043111
-1043201
-1043261
-1043231
-1043303
-1043332
-1043412
-1043517
-1043464
-1043465
-1043588
-1043500
-1043617
-1043689
-1043693
-1043711
-1043807
-1043845
-1043837
-1043815
-1043850
-1044003
-1043987
-1044033
-1044108
-1044284
-1044191
-1044337
-1044325
-1044387
-1044332
-1044401
-1044471
-1044436
-1044518
-1044618
-1044564
-1044641
-1044625
-1044642
-1044630
-1044622
-1044700
-1044844
-1044918
-1045061
-1045073
-1045146
-1045206
-1045290
-1045289
-1045354
-1045232
-1045357
-1045470
-1045635
-1045772
-1045864
-1045719
-1045893
-1045985
-1045967
-1046088
-1046159
-1046126
-1046159
-1046187
-1046374
-1046445
-1046454
-1046520
-1046575
-1046537
-1046664
-1046610
-1046727
-1046736
-1046967
-1046810
-1046830
-1046794
-1046966
-1047029
-1047015
-1047202
-1047250
-1047313
-1047418
-1047429
-1047506
-1047330
-1047367
-1047460
-1047574
-1047569
-1047570
-1047775
-1047685
-1047680
-1047798
-1047803
-1047850
-1047882
-1048044
-1048109
-1048098
-1048186
-1048214
-1048207
-1048185
-1048175
-1048321
-1048463
-1048397
-1048411
-1048513
-1048537
-1048624
-1048669
-1048549
-1048581
-1048551
-1048799
-1048719
-1048748
-1048884
-1048802
-1048906
-1048852
-1048749
-1048866
-1048972
-1048806
-1048945
-1048911
-1049088
-1049079
-1049082
-1048959
-1048920
-1048924
-1048908
-1048885
-1048897
-1048856
-1048857
-1048772
-1048835
-1048704
-1048700
-1048580
-1048507
-1048471
-1048437
-1048620
-1048476
-1048551
-1048351
-1048410
-1048286
-1048297
-1048275
-1048127
-1048175
-1048202
-1048048
-1047955
-1048061
-1047998
-1047948
-1047896
-1047886
-1047775
-1047676
-1047724
-1047712
-1047683
-1047624
-1047538
-1047528
-1047489
-1047400
-1047403
-1047441
-1047392
-1047415
-1047299
-1047372
-1047216
-1047099
-1047023
-1047068
-1046940
-1046895
-1046942
-1046899
-1046970
-1046838
-1046669
-1046778
-1046723
-1046586
-1046587
-1046620
-1046511
-1046555
-1046628
-1046494
-1046404
-1046450
-1046380
-1046347
-1046248
-1046296
-1046416
-1046378
-1046415
-1046335
-1046382
-1046283
-1046222
-1046334
-1046347
-1046349
-1046366
-1046406
-1046282
-1046391
-1046244
-1046285
-1046276
-1046311
-1046313
-1046404
-1046361
-1046427
-1046404
-1046377
-1046361
-1046415
-1046404
-1046296
-1046465
-1046447
-1046411
-1046485
-1046451
-1046606
-1046465
-1046491
-1046574
-1046462
-1046414
-1046401
-1046492
-1046555
-1046669
-1046621
-1046642
-1046640
-1046650
-1046685
-1046568
-1046733
-1046774
-1046848
-1046839
-1046830
-1046757
-1046770
-1046778
-1046791
-1046807
-1046929
-1047055
-1047023
-1047122
-1047088
-1047120
-1046974
-1047038
-1047032
-1047057
-1047138
-1047238
-1047225
-1047188
-1047249
-1047230
-1047320
-1047248
-1047257
-1047281
-1047416
-1047512
-1047520
-1047566
-1047586
-1047466
-1047475
-1047561
-1047505
-1047555
-1047699
-1047803
-1047655
-1047732
-1047662
-1047628
-1047718
-1047694
-1047701
-1047873
-1047834
-1047988
-1047951
-1047881
-1047883
-1048020
-1047988
-1047976
-1048016
-1048151
-1048195
-1048227
-1048350
-1048254
-1048204
-1048320
-1048345
-1048456
-1048515
-1048522
-1048511
-1048561
-1048680
-1048586
-1048705
-1048659
-1048601
-1048628
-1048637
-1048776
-1048879
-1048889
-1048842
-1048926
-1048944
-1048889
-1048979
-1049148
-1048929
-1049264
-1049246
-1049289
-1049222
-1049350
-1049372
-1049456
-1049497
-1049565
-1049533
-1049567
-1049617
-1049657
-1049611
-1049712
-1049745
-1049652
-1049771
-1049772
-1049834
-1049859
-1049895
-1049826
-1049904
-1049963
-1050021
-1049886
-1049994
-1050088
-1050208
-1050185
-1050328
-1050224
-1050238
-1050324
-1050316
-1050313
-1050396
-1050489
-1050465
-1050616
-1050686
-1050650
-1050522
-1050619
-1050750
-1050755
-1050745
-1050880
-1051020
-1050957
-1050915
-1051024
-1051034
-1051906
-1051276
-1051282
-1051218
-1051315
-1051330
-1051399
-1051293
-1051351
-1051471
-1051413
-1051476
-1051572
-1051678
-1051701
-1051365
-1051580
-1051624
-1051734
-1051781
-1051730
-1051728
-1051815
-1051983
-1052006
-1052094
-1052099
-1052120
-1052056
-1052108
-1052138
-1052218
-1052361
-1052467
-1052510
-1052506
-1052432
-1052420
-1052471
-1052517
-1052667
-1052734
-1052775
-1052886
-1052903
-1052906
-1052898
-1053031
-1052988
-1052899
-1052965
-1052949
-1053176
-1053155
-1053265
-1053162
-1053248
-1053241
-1053229
-1053385
-1053493
-1053441
-1053481
-1053687
-1053638
-1053619
-1053575
-1053748
-1053634
-1053797
-1053754
-1053806
-1053995
-1053937
-1053964
-1054064
-1053991
-1054077
-1054020
-1054135
-1054315
-1054332
-1054299
-1054358
-1054550
-1054421
-1054368
-1054543
-1054566
-1054473
-1054459
-1054576
-1054697
-1054769
-1054775
-1054754
-1054687
-1054786
-1054669
-1054725
-1054688
-1054625
-1054633
-1054599
-1054595
-1054547
-1054456
-1054435
-1054442
-1054448
-1054514
-1054438
-1054436
-1054374
-1054449
-1054320
-1054381
-1054210
-1054121
-1054153
-1053996
-1054107
-1054128
-1053971
-1053904
-1053908
-1053880
-1053776
-1053739
-1053756
-1053583
-1053635
-1053581
-1053547
-1053518
-1053487
-1053492
-1053415
-1053365
-1053195
-1053139
-1053168
-1053220
-1053049
-1053010
-1052939
-1052826
-1052732
-1052675
-1052643
-1052711
-1052693
-1052573
-1052639
-1052646
-1052570
-1052380
-1052232
-1052236
-1052220
-1052217
-1052139
-1052147
-1052017
-1052056
-1052028
-1052020
-1051897
-1051732
-1051770
-1051699
-1051785
-1051689
-1051666
-1051723
-1051550
-1051574
-1051451
-1051450
-1051454
-1051271
-1051470
-1051459
-1051368
-1051305
-1051318
-1051400
-1051342
-1051289
-1051280
-1051328
-1051349
-1051203
-1051313
-1051247
-1051297
-1051259
-1050927
-1051159
-1051127
-1051307
-1051337
-1051436
-1051379
-1051369
-1051396
-1051384
-1051250
-1051312
-1051271
-1051286
-1051388
-1051406
-1051380
-1051448
-1051477
-1051430
-1051323
-1051315
-1051357
-1051461
-1051545
-1051550
-1051522
-1051481
-1051383
-1051164
-1051333
-1051430
-1051487
-1051524
-1051649
-1051628
-1051576
-1051600
-1051566
-1051586
-1051588
-1051584
-1051626
-1051739
-1051875
-1051883
-1051932
-1051974
-1051567
-1051847
-1051905
-1051821
-1051938
-1051978
-1051992
-1052027
-1052073
-1052148
-1052112
-1052006
-1052104
-1052211
-1052102
-1052190
-1052346
-1052428
-1052367
-1052437
-1052374
-1052331
-1052487
-1052505
-1052428
-1052479
-1052646
-1052612
-1052751
-1052711
-1052622
-1052576
-1052708
-1052763
-1052827
-1052820
-1052949
-1052865
-1052995
-1053012
-1053059
-1053025
-1053085
-1053035
-1053199
-1053165
-1053304
-1053319
-1053281
-1053350
-1053344
-1053306
-1053351
-1053455
-1053440
-1053560
-1053597
-1053495
-1053637
-1053681
-1053742
-1053740
-1053647
-1053722
-1053836
-1053878
-1053844
-1053908
-1054063
-1054026
-1053976
-1054096
-1054127
-1054067
-1054169
-1054283
-1054244
-1054372
-1054379
-1054414
-1054469
-1054371
-1054439
-1054460
-1054569
-1054679
-1054659
-1054441
-1054748
-1054801
-1054815
-1054834
-1054919
-1054749
-1054844
-1054982
-1054949
-1054981
-1055169
-1055193
-1055097
-1055151
-1056094
-1055498
-1055368
-1055403
-1055381
-1055529
-1055575
-1055552
-1055541
-1055532
-1055656
-1055652
-1055808
-1056681
-1056181
-1056066
-1055924
-1056586
-1056203
-1055968
-1056091
-1056107
-1056160
-1056289
-1056309
-1056386
-1056871
-1056484
-1056365
-1056392
-1056410
-1056443
-1056627
-1056734
-1056697
-1056678
-1056664
-1056841
-1056811
-1056763
-1056798
-1056854
-1056968
-1057115
-1057079
-1057063
-1057031
-1057226
-1057265
-1057213
-1057243
-1057312
-1057475
-1057544
-1057520
-1057637
-1057707
-1057764
-1057641
-1057650
-1057653
-1057751
-1057888
-1057979
-1058030
-1057982
-1057902
-1057961
-1057911
-1058026
-1058158
-1058224
-1058353
-1058346
-1058393
-1058405
-1058515
-1058484
-1058515
-1058447
-1058465
-1058558
-1058632
-1058661
-1058825
-1058748
-1058851
-1058924
-1058828
-1058911
-1058908
-1059098
-1059131
-1059152
-1059159
-1059171
-1059230
-1059185
-1059255
-1059397
-1059308
-1059364
-1059616
-1059714
-1059727
-1059715
-1059772
-1059746
-1059821
-1059863
-1059847
-1059997
-1059986
-1059965
-1060065
-1060097
-1060152
-1060181
-1060167
-1060079
-1060183
-1060391
-1060440
-1060389
-1060415
-1060385
-1060463
-1060455
-1060591
-1060517
-1060694
-1060748
-1060890
-1060840
-1060836
-1060851
-1060907
-1060855
-1060953
-1061019
-1061066
-1061120
-1061151
-1061215
-1061119
-1061294
-1061256
-1061221
-1061134
-1061186
-1061134
-1061161
-1061297
-1061258
-1061174
-1061295
-1061179
-1061119
-1061136
-1061066
-1061168
-1061160
-1061122
-1060981
-1060978
-1060938
-1060875
-1060904
-1060849
-1060804
-1060743
-1060597
-1060688
-1060644
-1060628
-1060509
-1060397
-1060294
-1060207
-1060248
-1060131
-1060158
-1060130
-1060106
-1060004
-1059858
-1059898
-1059728
-1059668
-1059691
-1059603
-1059535
-1059235
-1059198
-1059126
-1059054
-1058998
-1058968
-1058961
-1058528
-1058745
-1058748
-1058559
-1058421
-1058473
-1058462
-1058433
-1058381
-1058356
-1058298
-1058228
-1058093
-1058018
-1057876
-1058022
-1058037
-1057930
-1057871
-1057869
-1057797
-1057713
-1057687
-1057507
-1057497
-1057486
-1057449
-1057391
-1057299
-1057254
-1057289
-1057212
-1057179
-1057091
-1057112
-1057154
-1057159
-1057152
-1057177
-1057025
-1056870
-1056908
-1057022
-1056923
-1056941
-1056895
-1056963
-1057023
-1056949
-1056946
-1056993
-1056975
-1056945
-1056928
-1056887
-1056931
-1056894
-1056900
-1057033
-1056898
-1056971
-1056886
-1056914
-1056824
-1056984
-1056944
-1057058
-1057120
-1057056
-1057043
-1056978
-1057010
-1056960
-1056915
-1056913
-1056987
-1056972
-1057078
-1057176
-1057183
-1057181
-1057062
-1057033
-1057139
-1057214
-1057258
-1057220
-1057234
-1057323
-1057304
-1057248
-1057194
-1057231
-1057243
-1057778
-1057361
-1057377
-1057349
-1057388
-1057486
-1057195
-1057330
-1057450
-1057538
-1057444
-1057475
-1057507
-1057553
-1057670
-1057582
-1057645
-1057738
-1057740
-1057616
-1057780
-1057762
-1057860
-1057958
-1057939
-1058026
-1057918
-1057980
-1057830
-1057876
-1057904
-1057826
-1057921
-1058052
-1058213
-1058245
-1058220
-1058120
-1058118
-1058762
-1058205
-1058241
-1058224
-1058349
-1058359
-1058350
-1058295
-1058354
-1058418
-1058387
-1058496
-1058450
-1058637
-1058740
-1058748
-1058707
-1058770
-1058670
-1058629
-1058621
-1058823
-1058794
-1058899
-1058949
-1059020
-1058765
-1058823
-1058872
-1059013
-1058916
-1058996
-1058919
-1059024
-1059005
-1059152
-1059094
-1058997
-1059118
-1059121
-1059093
-1059140
-1059233
-1059286
-1059260
-1059201
-1059261
-1059260
-1059231
-1059156
-1059166
-1059301
-1059384
-1059355
-1059527
-1059311
-1059405
-1059482
-1059596
-1059484
-1059448
-1059454
-1059522
-1059594
-1059768
-1059829
-1059845
-1059818
-1059868
-1059761
-1059838
-1059868
-1059971
-1060081
-1060120
-1060482
-1060320
-1060120
-1060111
-1060028
-1060020
-1060184
-1060179
-1060248
-1060315
-1060435
-1060508
-1060487
-1060498
-1060447
-1060599
-1060660
-1060562
-1060252
-1060662
-1060463
-1060816
-1060817
-1060756
-1060815
-1060913
-1060882
-1060953
-1061029
-1061116
-1061112
-1061119
-1061169
-1061195
-1061118
-1061188
-1061180
-1061433
-1061427
-1061605
-1061679
-1061560
-1061532
-1061595
-1061657
-1061681
-1061711
-1061719
-1061739
-1061885
-1062038
-1062078
-1062086
-1061985
-1062123
-1062153
-1062175
-1062117
-1062181
-1062252
-1062335
-1062467
-1062447
-1062466
-1062535
-1062443
-1062654
-1062664
-1062709
-1062713
-1062772
-1062773
-1062794
-1062810
-1062867
-1062919
-1063039
-1063109
-1063166
-1063226
-1063407
-1063429
-1063375
-1063459
-1063427
-1063573
-1063669
-1063635
-1063660
-1063854
-1063792
-1063819
-1063894
-1063989
-1063949
-1063975
-1063988
-1064155
-1064244
-1064285
-1064397
-1064455
-1064400
-1064516
-1064467
-1064594
-1064638
-1064520
-1064821
-1064595
-1064799
-1064956
-1064977
-1065022
-1064968
-1065070
-1065064
-1065140
-1065220
-1065371
-1065394
-1065285
-1065266
-1065255
-1065344
-1065331
-1065376
-1065357
-1065565
-1065610
-1065633
-1065664
-1065543
-1065629
-1065634
-1065611
-1065634
-1065664
-1065653
-1065740
-1065757
-1065696
-1065732
-1065285
-1065553
-1065590
-1065492
-1065452
-1065559
-1065572
-1065487
-1065372
-1065357
-1065144
-1065300
-1065289
-1065288
-1065234
-1065259
-1065269
-1065096
-1064947
-1064939
-1064840
-1064787
-1064696
-1064734
-1064731
-1064672
-1064578
-1064550
-1064489
-1064387
-1064241
-1064294
-1064270
-1064140
-1064215
-1064198
-1064042
-1063957
-1063977
-1063757
-1063678
-1063654
-1063715
-1063588
-1063597
-1063546
-1063494
-1063373
-1063380
-1063160
-1063134
-1063241
-1063051
-1063128
-1063033
-1062940
-1062901
-1062902
-1062880
-1062838
-1062707
-1062590
-1062539
-1062550
-1062488
-1062371
-1062409
-1062346
-1062261
-1062287
-1062070
-1062163
-1062115
-1062030
-1062044
-1062059
-1061984
-1061876
-1061952
-1061851
-1061913
-1061802
-1061829
-1061818
-1061761
-1061783
-1061748
-1061669
-1061720
-1061717
-1061504
-1061473
-1061697
-1061592
-1061598
-1061601
-1061494
-1061480
-1061523
-1061514
-1061588
-1061586
-1061510
-1061625
-1061603
-1061744
-1061715
-1061719
-1061738
-1061565
-1061612
-1061575
-1061570
-1061527
-1061679
-1061597
-1061751
-1061682
-1061816
-1061782
-1061670
-1061743
-1061847
-1061748
-1061795
-1061959
-1061869
-1061915
-1061878
-1062203
-1062006
-1061840
-1061940
-1061933
-1062000
-1062070
-1062174
-1062080
-1062057
-1062084
-1062008
-1062023
-1062239
-1062220
-1062206
-1062295
-1061975
-1062273
-1062295
-1062254
-1062401
-1062425
-1062358
-1062427
-1062488
-1062637
-1062667
-1062559
-1062642
-1062513
-1062260
-1062455
-1062673
-1062581
-1062664
-1062792
-1062832
-1062843
-1062748
-1062881
-1062902
-1062920
-1062889
-1062925
-1062919
-1062959
-1062948
-1063068
-1062996
-1063053
-1063081
-1063028
-1063175
-1063227
-1063330
-1063274
-1063301
-1063201
-1063192
-1063314
-1063353
-1063286
-1063535
-1063575
-1063552
-1063346
-1063561
-1063454
-1063575
-1063696
-1063819
-1063827
-1063807
-1063856
-1063807
-1063926
-1063954
-1063827
-1063909
-1064046
-1064065
-1064049
-1064176
-1064292
-1064196
-1064233
-1064275
-1064130
-1064188
-1064234
-1064304
-1064366
-1064549
-1064437
-1064598
-1064566
-1064520
-1064598
-1064566
-1064665
-1064770
-1064821
-1064885
-1064879
-1064880
-1064887
-1064882
-1064985
-1065085
-1065093
-1065141
-1065196
-1065179
-1065258
-1065147
-1065336
-1065325
-1065264
-1065234
-1065260
-1065393
-1065621
-1065598
-1065681
-1065614
-1065617
-1065727
-1065704
-1065718
-1065696
-1065754
-1065849
-1065940
-1066030
-1066038
-1066117
-1066099
-1066022
-1066067
-1066061
-1066221
-1066307
-1066374
-1066341
-1066394
-1066397
-1066341
-1066436
-1066396
-1066500
-1066474
-1066463
-1066639
-1066658
-1066716
-1066739
-1066647
-1066706
-1066781
-1066791
-1066895
-1066919
-1067077
-1067029
-1067009
-1066997
-1066952
-1067023
-1067062
-1067626
-1067424
-1067376
-1067308
-1067324
-1067415
-1067521
-1067495
-1067517
-1067621
-1067546
-1067679
-1067800
-1067775
-1067877
-1067836
-1067756
-1067745
-1067759
-1067949
-1067959
-1068038
-1068078
-1068027
-1068028
-1068131
-1068205
-1068170
-1068286
-1068429
-1068413
-1068470
-1068455
-1068581
-1068676
-1068559
-1068548
-1068574
-1069319
-1068826
-1068860
-1068939
-1068890
-1068951
-1069054
-1068944
-1069069
-1068923
-1069022
-1069033
-1069171
-1069221
-1069234
-1069182
-1069282
-1069304
-1069424
-1069472
-1069404
-1069458
-1069543
-1069488
-1069694
-1069608
-1069558
-1069443
-1069441
-1069427
-1069562
-1069536
-1069516
-1069514
-1069688
-1069576
-1069483
-1069465
-1069508
-1069480
-1069367
-1069485
-1069431
-1069377
-1069453
-1069332
-1069262
-1069230
-1069189
-1069141
-1069127
-1069070
-1068991
-1069061
-1069034
-1068885
-1068943
-1068808
-1068692
-1068656
-1068646
-1068600
-1068582
-1068396
-1068460
-1068433
-1068430
-1068320
-1068141
-1068120
-1068143
-1068015
-1067999
-1067875
-1067924
-1067820
-1067676
-1067725
-1067630
-1067543
-1067578
-1067412
-1067372
-1067341
-1067347
-1067253
-1067230
-1067100
-1066969
-1066938
-1066905
-1066982
-1066869
-1066933
-1066872
-1066800
-1066687
-1066596
-1066489
-1066471
-1066340
-1066305
-1066391
-1066440
-1066331
-1066145
-1066110
-1066018
-1065990
-1065931
-1066016
-1066103
-1066042
-1065998
-1066477
-1066136
-1065550
-1065641
-1065681
-1065728
-1065776
-1065709
-1065677
-1065757
-1065753
-1065728
-1065749
-1065724
-1065683
-1065544
-1065556
-1065486
-1065526
-1065660
-1065618
-1065520
-1065644
-1065548
-1065451
-1065427
-1065523
-1065515
-1065607
-1065686
-1065672
-1065549
-1065506
-1065492
-1065565
-1065541
-1065454
-1065643
-1065772
-1065643
-1065633
-1065667
-1065709
-1065733
-1065683
-1065663
-1065608
-1065632
-1065770
-1065815
-1065865
-1065881
-1065724
-1065852
-1065820
-1065703
-1065798
-1065869
-1065742
-1065837
-1065759
-1065806
-1065817
-1065914
-1065761
-1065833
-1065891
-1065983
-1065964
-1065946
-1066070
-1066069
-1066066
-1066089
-1066041
-1066112
-1066026
-1066138
-1066123
-1066241
-1066331
-1066230
-1066296
-1066211
-1066179
-1066207
-1066163
-1066305
-1066255
-1066333
-1066292
-1066106
-1066363
-1066477
-1066451
-1066494
-1066500
-1066463
-1066562
-1066483
-1066611
-1066621
-1066639
-1066556
-1066516
-1066635
-1066625
-1066648
-1066707
-1066752
-1066809
-1066860
-1066911
-1066930
-1066817
-1066888
-1066843
-1066884
-1066942
-1067131
-1067148
-1067129
-1067092
-1067064
-1067086
-1067130
-1067095
-1067183
-1067192
-1067252
-1067248
-1067373
-1067249
-1067336
-1067363
-1067383
-1067303
-1067295
-1067488
-1067564
-1067510
-1067536
-1067567
-1067669
-1067589
-1067646
-1067620
-1067646
-1067675
-1067854
-1067926
-1067967
-1067863
-1067925
-1067805
-1067879
-1067845
-1068040
-1068030
-1068039
-1068063
-1068251
-1068228
-1068154
-1068106
-1067779
-1068203
-1068095
-1068359
-1068493
-1068396
-1068427
-1068352
-1068504
-1068542
-1068595
-1068577
-1068630
-1068673
-1068741
-1068669
-1068800
-1068781
-1068745
-1068709
-1068786
-1069386
-1068991
-1069090
-1069168
-1069252
-1069151
-1068982
-1069044
-1069089
-1069151
-1069197
-1069235
-1069206
-1069321
-1069261
-1069307
-1069380
-1069269
-1069315
-1069452
-1069499
-1069191
-1069422
-1069483
-1069625
-1069465
-1069635
-1069703
-1069639
-1069658
-1069720
-1069778
-1069729
-1069957
-1069949
-1070028
-1069934
-1070017
-1070104
-1070045
-1070110
-1070036
-1070101
-1070225
-1070350
-1070325
-1070192
-1070308
-1070304
-1070356
-1070381
-1070474
-1070469
-1070596
-1070582
-1070680
-1070495
-1070641
-1070682
-1070754
-1070699
-1070754
-1070901
-1070959
-1070891
-1070959
-1070958
-1070920
-1071058
-1070942
-1070966
-1071005
-1071100
-1071177
-1071279
-1071236
-1071207
-1071218
-1071315
-1071356
-1071458
-1071588
-1071535
-1071568
-1071622
-1071574
-1071638
-1071542
-1072012
-1071906
-1071938
-1072060
-1072095
-1072051
-1072099
-1072152
-1072071
-1072253
-1072224
-1072312
-1072400
-1072349
-1072365
-1072316
-1072361
-1072461
-1072384
-1072595
-1072573
-1072587
-1072413
-1072610
-1072549
-1072732
-1072708
-1072817
-1072904
-1072858
-1072924
-1073050
-1073090
-1073069
-1072920
-1072952
-1072951
-1073069
-1073033
-1073280
-1073210
-1073082
-1073225
-1073243
-1073253
-1073208
-1073094
-1073153
-1073109
-1073246
-1073151
-1073132
-1073209
-1073086
-1073061
-1072901
-1072800
-1072824
-1072939
-1072883
-1072863
-1072744
-1072760
-1072765
-1072558
-1072570
-1072502
-1072389
-1072382
-1072500
-1072489
-1072485
-1072334
-1072305
-1072099
-1071990
-1071906
-1071968
-1071977
-1071980
-1071973
-1071783
-1071760
-1071621
-1071470
-1071406
-1071343
-1071312
-1071327
-1071292
-1071187
-1071184
-1071085
-1071020
-1070923
-1070866
-1070643
-1070541
-1070546
-1070488
-1070506
-1070563
-1070390
-1070318
-1070264
-1070080
-1069983
-1069978
-1069872
-1069854
-1069610
-1069865
-1069882
-1069843
-1069649
-1069413
-1069402
-1069407
-1069314
-1069398
-1069356
-1069178
-1069229
-1069144
-1068973
-1068895
-1068812
-1068899
-1068901
-1068813
-1068702
-1068688
-1068788
-1068613
-1068734
-1068526
-1068586
-1068441
-1068436
-1068404
-1068500
-1068493
-1068390
-1068362
-1068240
-1068329
-1068201
-1068264
-1068292
-1068271
-1068278
-1068223
-1068294
-1068220
-1068154
-1068053
-1068144
-1068020
-1068132
-1068108
-1068182
-1068133
-1068161
-1068195
-1068133
-1067996
-1067943
-1068090
-1068154
-1068168
-1068053
-1068061
-1068057
-1067998
-1067938
-1067970
-1067961
-1067874
-1067897
-1067968
-1068080
-1067963
-1068092
-1068096
-1067945
-1067910
-1067845
-1067847
-1067844
-1068022
-1068068
-1068096
-1068067
-1067914
-1067812
-1068284
-1067971
-1067856
-1067944
-1067766
-1067859
-1068027
-1067918
-1067945
-1067837
-1067960
-1068006
-1067903
-1067909
-1067950
-1068044
-1068113
-1068143
-1067947
-1067944
-1068624
-1068220
-1067981
-1068024
-1068430
-1068182
-1068085
-1068169
-1068184
-1068114
-1068144
-1068157
-1068267
-1068275
-1068283
-1068215
-1068240
-1068305
-1068339
-1068284
-1068311
-1068344
-1068364
-1068417
-1068451
-1068448
-1068398
-1068440
-1068471
-1068334
-1068415
-1068365
-1068468
-1068565
-1068575
-1068567
-1068620
-1068569
-1068672
-1068386
-1068502
-1068561
-1068608
-1068808
-1068869
-1068917
-1068925
-1068840
-1068869
-1068790
-1068596
-1068869
-1068906
-1068710
-1068952
-1068955
-1069041
-1068995
-1068968
-1069002
-1069103
-1069159
-1069222
-1069346
-1069336
-1069238
-1069353
-1069231
-1069239
-1069299
-1069385
-1069372
-1069398
-1069623
-1069556
-1069519
-1069557
-1069437
-1069393
-1069465
-1069623
-1069593
-1069713
-1069691
-1069644
-1069654
-1069706
-1069710
-1069836
-1069877
-1069847
-1069928
-1069952
-1069973
-1069878
-1070037
-1070031
-1069997
-1070064
-1070130
-1070131
-1070232
-1070240
-1070270
-1070239
-1070270
-1070242
-1070243
-1070315
-1070384
-1070451
-1070560
-1070455
-1070508
-1070630
-1070656
-1070632
-1070599
-1070667
-1070750
-1070752
-1070673
-1070787
-1070854
-1071021
-1070945
-1070930
-1070980
-1070957
-1070967
-1071042
-1071050
-1070806
-1071187
-1071111
-1071220
-1071234
-1071227
-1071299
-1071278
-1071308
-1071416
-1071395
-1071612
-1071641
-1071637
-1071547
-1071646
-1071633
-1071516
-1071521
-1071668
-1071773
-1071844
-1071870
-1071826
-1071949
-1071892
-1071921
-1072356
-1072440
-1072519
-1072458
-1072582
-1072707
-1072762
-1072844
-1072747
-1072746
-1072932
-1072959
-1072939
-1072862
-1073002
-1073006
-1072999
-1072995
-1073145
-1073310
-1073348
-1073214
-1073248
-1073172
-1073291
-1073251
-1073171
-1073215
-1073406
-1073562
-1073594
-1073538
-1073516
-1073595
-1073555
-1073626
-1073590
-1073511
-1073730
-1073829
-1073761
-1073660
-1073817
-1073744
-1073762
-1073859
-1073772
-1073868
-1073850
-1073940
-1073821
-1073915
-1073873
-1073837
-1073744
-1073666
-1073635
-1073699
-1073718
-1073736
-1073779
-1073693
-1073661
-1073642
-1073446
-1073385
-1074163
-1073631
-1073476
-1073427
-1073286
-1073316
-1073309
-1073075
-1073080
-1072951
-1072890
-1072972
-1072925
-1072824
-1072719
-1072800
-1072711
-1072625
-1072469
-1072506
-1072362
-1072346
-1072300
-1072353
-1072283
-1072110
-1072051
-1072079
-1072661
-1072165
-1071861
-1071665
-1071546
-1071607
-1071591
-1071525
-1071423
-1071329
-1071136
-1071232
-1071270
-1071092
-1071194
-1071205
-1071056
-1071008
-1070957
-1070803
-1070748
-1070675
-1070643
-1070526
-1070497
-1070547
-1070498
-1070496
-1070413
-1070235
-1070238
-1070167
-1070061
-1070140
-1070109
-1070119
-1070030
-1069986
-1069854
-1069811
-1069670
-1069691
-1069610
-1069677
-1069614
-1069775
-1069583
-1069556
-1069640
-1069545
-1069475
-1069524
-1069412
-1069461
-1069560
-1069584
-1069472
-1069383
-1069462
-1069441
-1069389
-1069406
-1069404
-1069435
-1069383
-1069424
-1069338
-1069397
-1069316
-1069300
-1069270
-1069278
-1069263
-1069427
-1069455
-1069517
-1069489
-1069394
-1069327
-1069274
-1069326
-1069361
-1069366
-1069432
-1069503
-1069438
-1069483
-1069475
-1069402
-1069387
-1069329
-1069377
-1069484
-1069525
-1069538
-1069602
-1069507
-1069411
-1069562
-1069542
-1069481
-1069523
-1069603
-1069768
-1069771
-1069759
-1069648
-1069746
-1069571
-1069611
-1069323
-1069542
-1069761
-1069726
-1069767
-1069764
-1069880
-1069863
-1069889
-1069936
-1069805
-1069866
-1069990
-1070003
-1070019
-1069981
-1069978
-1070031
-1069769
-1069907
-1070053
-1070280
-1070258
-1070254
-1070205
-1070234
-1070256
-1070318
-1070396
-1070375
-1070404
-1070460
-1070382
-1070377
-1070383
-1070505
-1070503
-1070540
-1070632
-1070686
-1070679
-1070597
-1070379
-1070469
-1070554
-1070590
-1070419
-1070580
-1069917
-1070564
-1070915
-1070827
-1070519
-1070758
-1070806
-1070907
-1070954
-1070690
-1071065
-1071093
-1071206
-1071211
-1071234
-1071248
-1071262
-1071175
-1071301
-1071373
-1071384
-1071481
-1072209
-1071369
-1071542
-1071366
-1071442
-1071533
-1071485
-1071599
-1071651
-1071620
-1071636
-1071719
-1071747
-1071748
-1071725
-1071724
-1071826
-1071936
-1072000
-1072009
-1071922
-1071923
-1072006
-1071949
-1072119
-1071981
-1072140
-1072105
-1072123
-1072144
-1072261
-1072399
-1072334
-1072180
-1072143
-1072311
-1072337
-1072420
-1072473
-1072471
-1072516
-1072545
-1072542
-1072480
-1072594
-1072505
-1072539
-1072631
-1072762
-1072749
-1072772
-1072856
-1072862
-1072804
-1072835
-1072827
-1072942
-1072975
-1073081
-1073050
-1073034
-1073036
-1073137
-1073067
-1073106
-1073088
-1073218
-1073252
-1073233
-1073261
-1073381
-1073368
-1073325
-1073275
-1073343
-1073418
-1073206
-1073424
-1073471
-1073684
-1073615
-1073631
-1073638
-1073570
-1073675
-1073648
-1073663
-1073778
-1073783
-1073816
-1073975
-1074058
-1074962
-1074212
-1073859
-1074033
-1074010
-1074171
-1074258
-1074182
-1074261
-1074245
-1074331
-1074261
-1074286
-1074354
-1074403
-1074359
-1074404
-1074503
-1074530
-1074582
-1074604
-1074589
-1074543
-1074687
-1074618
-1074737
-1074722
-1074750
-1074916
-1074901
-1074940
-1075927
-1075254
-1075035
-1074963
-1075146
-1075150
-1075244
-1075249
-1075289
-1075313
-1075284
-1075262
-1075415
-1075372
-1075477
-1075406
-1075534
-1075245
-1075576
-1075582
-1075673
-1075629
-1075635
-1075715
-1075668
-1075716
-1075713
-1075895
-1075950
-1075983
-1075911
-1075955
-1075944
-1075710
-1075863
-1075889
-1075972
-1076142
-1076119
-1076054
-1075945
-1075964
-1076010
-1075876
-1075973
-1076076
-1075904
-1075910
-1075804
-1075652
-1075698
-1075746
-1075621
-1075672
-1075744
-1075739
-1075717
-1075652
-1075610
-1075501
-1075389
-1075379
-1075430
-1075323
-1075257
-1075290
-1075228
-1075160
-1075185
-1075017
-1074895
-1074876
-1074770
-1074699
-1074837
-1074871
-1074803
-1074619
-1074485
-1074419
-1074352
-1074319
-1074179
-1074318
-1074180
-1074171
-1074131
-1074044
-1073960
-1073983
-1073900
-1073848
-1073758
-1073699
-1073717
-1073629
-1073577
-1073504
-1073565
-1073254
-1073233
-1073199
-1073126
-1073048
-1073125
-1073158
-1073140
-1073014
-1072936
-1072794
-1072791
-1072645
-1072661
-1072549
-1072520
-1072481
-1072665
-1072644
-1072426
-1072348
-1072254
-1072306
-1072239
-1072293
-1072311
-1072414
-1072260
-1072161
-1072071
-1072066
-1072123
-1072187
-1072164
-1072203
-1072075
-1072048
-1072224
-1072100
-1072132
-1071754
-1071972
-1071934
-1071931
-1072089
-1072083
-1072150
-1072065
-1072066
-1072147
-1072086
-1071993
-1072091
-1072154
-1072062
-1072217
-1072213
-1072152
-1072122
-1072055
-1072158
-1072132
-1072084
-1072187
-1072226
-1072327
-1072381
-1072351
-1072318
-1072262
-1072329
-1072157
-1072185
-1072247
-1072262
-1072397
-1072435
-1072439
-1072389
-1072415
-1072470
-1072424
-1072994
-1072499
-1072486
-1072449
-1072588
-1072611
-1072544
-1072432
-1072421
-1072466
-1072424
-1072556
-1072661
-1072710
-1072660
-1072738
-1072677
-1072612
-1072597
-1072557
-1072680
-1072687
-1072806
-1072756
-1072909
-1072966
-1072848
-1072914
-1072832
-1072844
-1072800
-1072979
-1072988
-1073005
-1072931
-1073145
-1072997
-1072977
-1073089
-1072988
-1073062
-1073102
-1073069
-1073236
-1073353
-1073244
-1073224
-1073276
-1073250
-1073300
-1073253
-1073232
-1073317
-1073379
-1073406
-1073507
-1073376
-1073399
-1073437
-1073362
-1073408
-1073529
-1073572
-1073609
-1073632
-1073728
-1073631
-1073585
-1073635
-1073572
-1073761
-1073664
-1073711
-1073794
-1073880
-1073907
-1073871
-1073923
-1073840
-1073866
-1074028
-1074130
-1074206
-1074157
-1074090
-1074146
-1074267
-1074108
-1074154
-1074182
-1074195
-1074247
-1074262
-1074329
-1074359
-1074453
-1074549
-1074497
-1074495
-1074616
-1074537
-1074633
-1074693
-1074681
-1074728
-1074749
-1074740
-1074703
-1074687
-1074770
-1075033
-1075045
-1075628
-1075610
-1075699
-1075741
-1075781
-1075852
-1075817
-1075865
-1075853
-1076009
-1075865
-1075964
-1075883
-1076023
-1075951
-1076040
-1076150
-1076213
-1076224
-1076227
-1076219
-1076138
-1076115
-1076176
-1076236
-1076384
-1076093
-1076421
-1076515
-1076580
-1076491
-1076431
-1076459
-1076431
-1076453
-1076509
-1076695
-1076633
-1076697
-1076851
-1076812
-1076798
-1076853
-1076729
-1076937
-1076903
-1076988
-1077017
-1077049
-1077081
-1077099
-1077079
-1076930
-1076914
-1077060
-1077106
-1077124
-1077236
-1077196
-1077080
-1077039
-1078027
-1077407
-1077225
-1077095
-1077099
-1077048
-1077203
-1077156
-1077075
-1077095
-1077025
-1077008
-1076868
-1076945
-1076947
-1076883
-1077019
-1076964
-1076906
-1076755
-1076696
-1076618
-1076538
-1076568
-1076599
-1076226
-1076410
-1076474
-1076541
-1076451
-1076436
-1076225
-1076127
-1076110
-1076158
-1076099
-1076065
-1076124
-1075941
-1076000
-1075854
-1075802
-1075763
-1075731
-1075631
-1075765
-1075631
-1075517
-1075547
-1075517
-1075352
-1075254
-1075188
-1075202
-1075130
-1075039
-1074991
-1075122
-1075015
-1074956
-1074959
-1074867
-1074749
-1074626
-1074642
-1074686
-1074671
-1074678
-1074534
-1074645
-1074525
-1074495
-1074369
-1074312
-1074405
-1074369
-1074382
-1074408
-1074409
-1074247
-1074129
-1074306
-1074077
-1074211
-1074166
-1074157
-1074127
-1074043
-1074046
-1074052
-1073922
-1074016
-1074090
-1074157
-1074159
-1074123
-1074088
-1074126
-1074137
-1074108
-1074076
-1074029
-1074284
-1074186
-1074145
-1074161
-1074079
-1074116
-1073971
-1073984
-1074072
-1073949
-1074048
-1074054
-1074053
-1074169
-1074033
-1074075
-1074146
-1074099
-1074081
-1074097
-1074082
-1074039
-1074137
-1074242
-1074152
-1074220
-1074240
-1074297
-1074091
-1074172
-1074220
-1074088
-1074118
-1074312
-1074237
-1074165
-1074159
-1074383
-1074249
-1074234
-1074353
-1074323
-1074325
-1074251
-1074332
-1074374
-1074343
-1074397
-1074401
-1074343
-1074344
-1074428
-1074532
-1074636
-1074601
-1074528
-1074473
-1074566
-1074498
-1074633
-1074623
-1074651
-1074633
-1074781
-1074777
-1074720
-1074766
-1074657
-1074814
-1074736
-1074764
-1074614
-1074776
-1074917
-1074918
-1074924
-1075036
-1074994
-1075098
-1075103
-1074933
-1075042
-1075060
-1075154
-1075253
-1075339
-1075312
-1075271
-1075185
-1075235
-1075340
-1075402
-1075429
-1075573
-1075503
-1075517
-1075450
-1075627
-1075529
-1075588
-1075667
-1075778
-1075770
-1075725
-1075833
-1075864
-1075836
-1075866
-1075879
-1075844
-1075894
-1075989
-1075957
-1075996
-1076158
-1076042
-1076135
-1076185
-1076212
-1076110
-1076187
-1076208
-1076186
-1076261
-1076338
-1076467
-1076450
-1076456
-1076395
-1076366
-1076537
-1076547
-1076580
-1076579
-1076677
-1076780
-1076733
-1076736
-1076727
-1076805
-1076845
-1076913
-1076944
-1076901
-1076973
-1076987
-1077003
-1077082
-1077044
-1077166
-1077213
-1077236
-1077259
-1077320
-1077363
-1077373
-1077326
-1077346
-1077368
-1077513
-1077407
-1077464
-1077571
-1077746
-1077719
-1077850
-1077874
-1077823
-1077703
-1077831
-1077879
-1077886
-1077967
-1078069
-1078173
-1078321
-1078176
-1078209
-1078278
-1078329
-1078238
-1078385
-1078401
-1078518
-1078609
-1078658
-1078671
-1078661
-1078681
-1078685
-1078631
-1078772
-1078797
-1078869
-1079002
-1079038
-1078958
-1078979
-1078989
-1079094
-1078968
-1079105
-1079147
-1079191
-1079184
-1079254
-1079279
-1079208
-1079324
-1079252
-1079360
-1079373
-1079408
-1079455
-1079483
-1079585
-1079555
-1079463
-1079517
-1079425
-1079544
-1079601
-1079593
-1079616
-1079564
-1079540
-1079565
-1079643
-1079562
-1079483
-1079451
-1079425
-1079586
-1079501
-1079564
-1079386
-1079394
-1079404
-1079331
-1079280
-1079109
-1079127
-1078996
-1079068
-1079190
-1079045
-1078981
-1079015
-1078803
-1078651
-1078637
-1078704
-1078745
-1078636
-1078652
-1078543
-1078257
-1078440
-1078283
-1078139
-1078232
-1078251
-1078137
-1078209
-1078092
-1078009
-1077903
-1077950
-1077804
-1077472
-1077642
-1077616
-1077555
-1077623
-1077520
-1077575
-1077452
-1077401
-1077215
-1077076
-1077138
-1077095
-1077163
-1077203
-1077174
-1076897
-1076992
-1076820
-1076894
-1076843
-1076800
-1076704
-1076783
-1076563
-1076590
-1076558
-1076546
-1076393
-1076391
-1076281
-1076405
-1076323
-1076246
-1076294
-1076191
-1076103
-1076108
-1076094
-1076166
-1076135
-1076174
-1076160
-1076123
-1076031
-1075996
-1075983
-1076002
-1076047
-1076131
-1076106
-1076135
-1076038
-1076160
-1076065
-1075929
-1076026
-1075947
-1075973
-1076032
-1076217
-1076136
-1076191
-1076023
-1076007
-1076077
-1076056
-1076176
-1076163
-1076244
-1076158
-1076234
-1076185
-1076225
-1076269
-1076140
-1076123
-1076134
-1076122
-1076329
-1076276
-1076385
-1076283
-1076052
-1076252
-1076291
-1076390
-1076399
-1076346
-1076351
-1076427
-1076479
-1076396
-1076319
-1076344
-1076275
-1076368
-1076372
-1076375
-1076488
-1076561
-1076576
-1076471
-1076156
-1076363
-1077246
-1076656
-1076530
-1076363
-1076667
-1076722
-1076691
-1076682
-1076677
-1076597
-1076529
-1076627
-1076684
-1076685
-1076792
-1076875
-1076844
-1076872
-1076757
-1076836
-1076776
-1076853
-1076934
-1076656
-1077055
-1077050
-1077017
-1077104
-1077130
-1077012
-1077169
-1077162
-1077145
-1077373
-1077221
-1077312
-1077362
-1077317
-1077198
-1077336
-1077440
-1077404
-1077464
-1077549
-1077500
-1077559
-1078518
-1077835
-1077610
-1077539
-1077620
-1077641
-1077591
-1077620
-1077807
-1077878
-1077725
-1077830
-1077765
-1077748
-1077902
-1077984
-1077997
-1078085
-1078079
-1078014
-1077989
-1078087
-1077987
-1078106
-1078142
-1078131
-1078184
-1078320
-1078436
-1078179
-1078294
-1078424
-1078311
-1078325
-1078301
-1078471
-1078589
-1078648
-1078666
-1078571
-1078681
-1078699
-1078681
-1078624
-1078704
-1078810
-1078851
-1078881
-1078867
-1078908
-1079008
-1079046
-1078965
-1078891
-1078944
-1078910
-1079019
-1079101
-1079132
-1079190
-1079225
-1079188
-1079263
-1079229
-1079313
-1079033
-1079291
-1079424
-1079435
-1079512
-1079559
-1079461
-1079486
-1079562
-1079559
-1079552
-1079675
-1079655
-1079710
-1079852
-1079854
-1079883
-1079825
-1079886
-1079780
-1079891
-1080059
-1079970
-1080109
-1080177
-1080076
-1080095
-1080146
-1080134
-1080223
-1080149
-1080147
-1080282
-1080326
-1080334
-1080451
-1080368
-1080444
-1080402
-1080386
-1080558
-1080587
-1080698
-1080640
-1080707
-1080871
-1080793
-1080725
-1080732
-1080838
-1080961
-1080939
-1080935
-1081084
-1080979
-1081059
-1081119
-1080985
-1081150
-1081191
-1081247
-1081220
-1081395
-1081303
-1081367
-1081444
-1081246
-1081313
-1081375
-1081349
-1081372
-1081504
-1081475
-1081550
-1081440
-1081439
-1081448
-1081143
-1081231
-1081451
-1082203
-1081687
-1081546
-1081528
-1081485
-1081483
-1081286
-1081271
-1081217
-1081275
-1081321
-1081152
-1081288
-1081159
-1081183
-1081150
-1081034
-1080889
-1080924
-1080784
-1080597
-1080723
-1080889
-1080904
-1080815
-1080700
-1080560
-1080566
-1080521
-1080500
-1080522
-1080496
-1080384
-1080281
-1080385
-1080327
-1080128
-1080087
-1079961
-1079885
-1079909
-1079983
-1079858
-1079805
-1079832
-1079759
-1079591
-1079563
-1079566
-1079442
-1079392
-1079365
-1079399
-1079352
-1079273
-1079332
-1079196
-1079130
-1078795
-1078936
-1079075
-1079006
-1079156
-1079020
-1079042
-1078950
-1078974
-1078795
-1078738
-1078777
-1078672
-1078726
-1078783
-1078689
-1078712
-1078691
-1078634
-1078611
-1078548
-1078601
-1078581
-1078633
-1078617
-1078277
-1078481
-1078369
-1078480
-1078448
-1078333
-1078483
-1078404
-1078462
-1078413
-1078535
-1078480
-1078482
-1078410
-1078447
-1078396
-1078470
-1078404
-1078403
-1078447
-1078422
-1078573
-1078442
-1078418
-1078541
-1078559
-1078358
-1078517
-1078524
-1078550
-1078635
-1078608
-1078454
-1078403
-1078167
-1078387
-1078516
-1078546
-1078562
-1078585
-1078600
-1078599
-1078682
-1078753
-1078755
-1078718
-1078638
-1078631
-1078636
-1078788
-1078695
-1078802
-1078855
-1078716
-1078674
-1078689
-1078781
-1078687
-1078830
-1078955
-1079047
-1078875
-1078787
-1078930
-1078914
-1078838
-1078955
-1078897
-1078922
-1079056
-1079095
-1078960
-1079005
-1079095
-1078952
-1079037
-1079070
-1079140
-1079070
-1079136
-1079170
-1079194
-1079161
-1079184
-1079104
-1079200
-1079213
-1079879
-1079565
-1079498
-1079523
-1079491
-1079408
-1079398
-1079431
-1079418
-1079456
-1079578
-1079667
-1079737
-1079754
-1079712
-1079817
-1079664
-1079745
-1079849
-1079861
-1079922
-1079866
-1079820
-1080441
-1080109
-1080105
-1080020
-1080031
-1080002
-1079979
-1080083
-1080120
-1080240
-1080237
-1080197
-1080214
-1080198
-1080234
-1080200
-1080339
-1080434
-1080433
-1080484
-1080595
-1080668
-1080480
-1080638
-1080691
-1080622
-1080698
-1080750
-1080791
-1080913
-1080815
-1080897
-1080841
-1080921
-1080852
-1080850
-1081045
-1080827
-1081157
-1081301
-1081307
-1081158
-1081109
-1081295
-1081285
-1081277
-1081372
-1081307
-1081350
-1081483
-1081479
-1081404
-1081513
-1081567
-1081491
-1081438
-1081675
-1081612
-1081787
-1081830
-1081774
-1081872
-1081875
-1081802
-1081794
-1081911
-1081907
-1082014
-1082108
-1082221
-1082143
-1082092
-1082166
-1082083
-1082100
-1082108
-1082158
-1082219
-1082314
-1082438
-1082351
-1082447
-1082567
-1082520
-1082526
-1082499
-1082577
-1082753
-1082826
-1082865
-1082773
-1082755
-1082959
-1082890
-1083074
-1083102
-1083151
-1083249
-1083301
-1083330
-1083186
-1083172
-1083237
-1083320
-1083388
-1083460
-1083516
-1083613
-1083645
-1083617
-1083561
-1083444
-1083505
-1083520
-1083597
-1083684
-1083819
-1083787
-1083917
-1083794
-1083765
-1083882
-1084007
-1084005
-1084062
-1084031
-1084141
-1084240
-1084297
-1084097
-1084023
-1084072
-1084087
-1084166
-1084193
-1084298
-1084244
-1084338
-1084399
-1084390
-1084166
-1084138
-1084336
-1084227
-1084404
-1084376
-1084225
-1084221
-1084149
-1084089
-1084037
-1084164
-1084143
-1083789
-1083942
-1084043
-1084090
-1084000
-1083997
-1083856
-1083820
-1083761
-1083642
-1083694
-1083613
-1083703
-1083611
-1083606
-1083523
-1083440
-1083278
-1083370
-1083253
-1083316
-1083214
-1083313
-1083246
-1083247
-1083215
-1082977
-1083012
-1082960
-1082756
-1082713
-1082733
-1082814
-1082720
-1082654
-1082601
-1082560
-1082493
-1082415
-1082361
-1082284
-1082388
-1082372
-1082325
-1082204
-1082067
-1082009
-1082058
-1082056
-1081981
-1081868
-1081639
-1081845
-1081849
-1081876
-1081866
-1081670
-1081723
-1081620
-1081604
-1081737
-1081598
-1081671
-1081638
-1081525
-1081641
-1081535
-1081490
-1081475
-1081396
-1081375
-1081418
-1081525
-1081559
-1081545
-1081470
-1081433
-1081326
-1081340
-1081252
-1081375
-1081146
-1081303
-1081354
-1081427
-1081394
-1081477
-1081330
-1081374
-1081358
-1081303
-1081360
-1081302
-1081320
-1081365
-1081404
-1081388
-1081229
-1081308
-1081376
-1081413
-1081446
-1081425
-1081343
-1081490
-1081405
-1081313
-1081325
-1081242
-1081296
-1081360
-1081494
-1081630
-1081475
-1081421
-1081427
-1081354
-1081191
-1081301
-1081275
-1081267
-1081388
-1081450
-1081596
-1081564
-1081537
-1081615
-1081430
-1081405
-1081390
-1081315
-1081240
-1081433
-1081461
-1081396
-1081537
-1081604
-1081662
-1081672
-1081694
-1081690
-1081646
-1081719
-1081782
-1081609
-1081683
-1081660
-1081633
-1081621
-1081630
-1081785
-1081772
-1081845
-1081802
-1081975
-1081947
-1081917
-1081841
-1081797
-1081850
-1081856
-1082049
-1081943
-1082089
-1082154
-1081937
-1082015
-1082058
-1081981
-1082035
-1082008
-1082046
-1082186
-1082218
-1082237
-1082317
-1082270
-1082135
-1082244
-1082210
-1082247
-1082182
-1082365
-1082366
-1082301
-1082283
-1082313
-1082394
-1082313
-1082310
-1082377
-1082335
-1082483
-1082494
-1082576
-1082491
-1082493
-1082590
-1082573
-1082661
-1082654
-1082753
-1082776
-1082833
-1082776
-1082797
-1082816
-1082843
-1082863
-1082907
-1082815
-1082980
-1083079
-1083183
-1083184
-1083039
-1083086
-1083108
-1083078
-1083252
-1083218
-1083394
-1083373
-1083441
-1083497
-1083476
-1083455
-1083563
-1083624
-1083704
-1083613
-1083643
-1083772
-1083855
-1083779
-1083782
-1083800
-1083902
-1083905
-1083876
-1084122
-1084048
-1084060
-1084138
-1084176
-1084208
-1084170
-1084149
-1084237
-1084349
-1084418
-1084402
-1084362
-1084436
-1084466
-1084693
-1084579
-1084607
-1084606
-1084693
-1084816
-1084777
-1084876
-1084835
-1084975
-1084995
-1084959
-1085044
-1084978
-1085118
-1085240
-1085162
-1085278
-1085277
-1085351
-1085280
-1085235
-1085266
-1085329
-1085405
-1085550
-1085578
-1085486
-1085504
-1085644
-1085753
-1085730
-1085667
-1085772
-1085714
-1085880
-1085867
-1085824
-1085972
-1086059
-1086058
-1086036
-1086076
-1086060
-1086170
-1086203
-1086220
-1086255
-1086259
-1086405
-1086229
-1086379
-1086369
-1086410
-1086424
-1086446
-1086520
-1086549
-1086626
-1086572
-1086713
-1086716
-1086678
-1086764
-1086871
-1086883
-1086928
-1087002
-1086964
-1086938
-1086849
-1086860
-1086758
-1086796
-1086748
-1086686
-1086747
-1086725
-1086763
-1086676
-1086477
-1086662
-1086684
-1086631
-1086654
-1086679
-1086610
-1086388
-1086526
-1086407
-1086432
-1086270
-1086333
-1086226
-1086154
-1086085
-1086209
-1086055
-1085995
-1085948
-1085977
-1085701
-1085698
-1085787
-1085801
-1085666
-1085710
-1085654
-1085556
-1085520
-1085441
-1085313
-1085337
-1085323
-1085199
-1085237
-1085238
-1085058
-1085433
-1085070
-1085057
-1084875
-1084792
-1084793
-1084727
-1084697
-1084575
-1084597
-1084556
-1084527
-1084383
-1084380
-1084299
-1084259
-1084295
-1084166
-1084189
-1084125
-1083951
-1084049
-1083929
-1083949
-1083885
-1083819
-1083700
-1083803
-1083704
-1083729
-1083678
-1083558
-1083527
-1083513
-1083597
-1083550
-1083548
-1083579
-1083461
-1083468
-1083480
-1083476
-1083443
-1083406
-1083971
-1083603
-1083391
-1083304
-1083255
-1083370
-1083295
-1083471
-1083372
-1083277
-1083342
-1083127
-1083179
-1083184
-1083254
-1083386
-1083369
-1083244
-1083276
-1083230
-1083276
-1083323
-1083286
-1083278
-1083286
-1083436
-1083427
-1083387
-1083429
-1083432
-1083319
-1083465
-1083495
-1083568
-1083531
-1083508
-1083470
-1083413
-1083538
-1083489
-1083418
-1083387
-1083453
-1083441
-1083574
-1083590
-1083653
-1083675
-1083594
-1083514
-1083586
-1083506
-1083549
-1083631
-1083662
-1083585
-1083557
-1083566
-1083690
-1083692
-1083597
-1083652
-1083608
-1083650
-1083749
-1083838
-1083732
-1083790
-1083734
-1083790
-1083686
-1083828
-1083754
-1083910
-1083771
-1083925
-1083842
-1083850
-1083982
-1083981
-1084035
-1084098
-1084057
-1084129
-1084246
-1084325
-1084240
-1084280
-1084448
-1084519
-1084539
-1084507
-1084488
-1084506
-1084482
-1084595
-1084700
-1084733
-1084748
-1084773
-1084830
-1084812
-1084882
-1084906
-1084874
-1084895
-1084894
-1084939
-1085011
-1085111
-1085210
-1085118
-1085123
-1085203
-1085284
-1085243
-1085289
-1085357
-1085423
-1085393
-1085485
-1085452
-1085547
-1085506
-1085500
-1085597
-1085528
-1085635
-1085661
-1085673
-1085794
-1085768
-1085765
-1085762
-1085759
-1085752
-1085836
-1085840
-1085979
-1085903
-1085880
-1085987
-1085896
-1085886
-1085942
-1085999
-1086107
-1086075
-1086263
-1086281
-1086256
-1086195
-1086320
-1086451
-1086330
-1086362
-1086476
-1086562
-1086526
-1086523
-1086489
-1086551
-1086623
-1086647
-1086686
-1086652
-1086410
-1086561
-1086724
-1086727
-1086826
-1086825
-1086799
-1086817
-1086945
-1086998
-1086988
-1086989
-1087795
-1087301
-1087145
-1087196
-1087087
-1086993
-1087018
-1087123
-1087245
-1087208
-1087199
-1087189
-1087278
-1087381
-1087343
-1087257
-1087200
-1087226
-1087424
-1087386
-1087365
-1087474
-1087462
-1087423
-1087548
-1087470
-1087620
-1087676
-1087643
-1087642
-1087777
-1087766
-1087871
-1087774
-1087931
-1088016
-1087975
-1088359
-1088096
-1088038
-1087999
-1088208
-1088099
-1088199
-1088268
-1088327
-1088399
-1088475
-1088481
-1088594
-1088558
-1088608
-1088649
-1088729
-1088690
-1088758
-1088635
-1088811
-1088871
-1088901
-1088987
-1088979
-1088936
-1089056
-1089145
-1089038
-1089085
-1089116
-1089125
-1089010
-1088939
-1088896
-1088883
-1088881
-1088896
-1088869
-1088907
-1088924
-1088913
-1088802
-1088827
-1088909
-1088767
-1088694
-1088622
-1088682
-1088483
-1088572
-1088540
-1088426
-1088505
-1088395
-1088232
-1088240
-1088150
-1088158
-1088079
-1087959
-1088037
-1087910
-1087923
-1087747
-1087899
-1087725
-1087587
-1087539
-1087453
-1087464
-1087457
-1087498
-1087301
-1087290
-1087320
-1087160
-1087026
-1087095
-1087127
-1086954
-1086630
-1086740
-1086759
-1086686
-1086850
-1086755
-1086604
-1086479
-1086412
-1086397
-1086396
-1086192
-1086137
-1086272
-1086286
-1086173
-1086124
-1085944
-1085999
-1085984
-1085934
-1085729
-1085944
-1086632
-1085692
-1085809
-1085633
-1085698
-1085767
-1085836
-1085677
-1085735
-1085740
-1085724
-1085678
-1085591
-1085601
-1085503
-1085459
-1085543
-1085536
-1085523
-1085433
-1085396
-1085391
-1085377
-1085376
-1085366
-1085444
-1085537
-1085536
-1085543
-1085432
-1085392
-1085413
-1085349
-1085155
-1086370
-1085774
-1085612
-1085530
-1085454
-1085554
-1085411
-1085493
-1085428
-1085422
-1085495
-1085404
-1085424
-1085499
-1085588
-1085539
-1085462
-1085428
-1085438
-1085544
-1085589
-1085575
-1085569
-1085596
-1085555
-1085650
-1085705
-1085625
-1085569
-1085682
-1085663
-1085602
-1085612
-1085288
-1085613
-1085755
-1085844
-1085877
-1085821
-1085717
-1085813
-1085803
-1085782
-1085769
-1085823
-1085866
-1085905
-1085942
-1086087
-1086067
-1086120
-1086063
-1086091
-1086128
-1086174
-1086115
-1086143
-1086206
-1086020
-1086233
-1086151
-1086077
-1086121
-1086159
-1086158
-1086127
-1086335
-1086362
-1086277
-1086210
-1086304
-1086378
-1086342
-1086386
-1086468
-1086381
-1086548
-1086395
-1086469
-1086467
-1086542
-1086557
-1086526
-1086557
-1086626
-1086661
-1086718
-1086484
-1086724
-1086753
-1087468
-1086989
-1087497
-1087270
-1086951
-1087004
-1087037
-1087034
-1087056
-1087001
-1087008
-1087001
-1087035
-1087043
-1087049
-1087156
-1087225
-1087325
-1087411
-1087267
-1087342
-1087403
-1087406
-1087293
-1087342
-1087533
-1087580
-1087532
-1087488
-1087475
-1087100
-1087356
-1087611
-1087680
-1087608
-1087746
-1087659
-1087643
-1087719
-1087860
-1087865
-1087738
-1087808
-1087820
-1087935
-1087965
-1088052
-1088066
-1088104
-1087804
-1088037
-1087983
-1088043
-1088139
-1088213
-1088236
-1088270
-1088185
-1088236
-1088288
-1088388
-1088333
-1088283
-1088297
-1088361
-1088350
-1088380
-1088355
-1088512
-1088444
-1088593
-1088607
-1088679
-1088668
-1088641
-1088557
-1088760
-1088718
-1088769
-1088682
-1088729
-1088765
-1088903
-1088845
-1088980
-1089052
-1088990
-1089065
-1089150
-1089094
-1089139
-1089069
-1089085
-1089059
-1089125
-1089255
-1088609
-1089651
-1089329
-1089324
-1089290
-1089310
-1089323
-1089372
-1089408
-1089442
-1089417
-1089553
-1089579
-1089551
-1089656
-1089591
-1089556
-1089511
-1089540
-1089632
-1089635
-1089571
-1089598
-1089560
-1089584
-1089664
-1089660
-1089742
-1089671
-1089666
-1089454
-1089502
-1089510
-1089476
-1089609
-1089538
-1089431
-1089459
-1089359
-1089317
-1089411
-1089363
-1089330
-1089260
-1089140
-1089213
-1089117
-1089152
-1089008
-1089090
-1088965
-1088945
-1088871
-1088929
-1088816
-1088827
-1088747
-1088338
-1088665
-1088743
-1088716
-1088494
-1088614
-1088507
-1088458
-1088420
-1088444
-1088366
-1088266
-1088385
-1088323
-1088240
-1088237
-1088185
-1088114
-1088132
-1087997
-1087978
-1088032
-1087908
-1087808
-1087907
-1087838
-1087765
-1087745
-1087676
-1087720
-1087824
-1087743
-1087729
-1087616
-1087671
-1087544
-1087618
-1087642
-1087439
-1087657
-1087590
-1087516
-1087492
-1087412
-1087344
-1087356
-1087350
-1087371
-1087440
-1087374
-1087463
-1087561
-1087527
-1087461
-1087496
-1087478
-1087550
-1087537
-1087561
-1087492
-1087480
-1087501
-1087577
-1087584
-1087534
-1087473
-1087605
-1087452
-1087473
-1087512
-1088459
-1087948
-1087769
-1087491
-1087514
-1087535
-1087464
-1087537
-1087355
-1087561
-1087549
-1087696
-1087702
-1087690
-1087695
-1087405
-1087484
-1087510
-1087623
-1087786
-1087687
-1087778
-1087781
-1087530
-1087755
-1087736
-1087681
-1087603
-1087756
-1087749
-1087677
-1087785
-1087803
-1087888
-1087943
-1087853
-1087832
-1087899
-1087796
-1087820
-1087958
-1087934
-1087978
-1087942
-1087965
-1088010
-1088157
-1088089
-1088209
-1088153
-1088085
-1088242
-1088084
-1088162
-1088240
-1088251
-1088182
-1088265
-1088287
-1088346
-1088329
-1088419
-1088375
-1088275
-1088428
-1088423
-1088602
-1088563
-1088735
-1088809
-1088762
-1088738
-1088783
-1088844
-1088875
-1088958
-1089071
-1089278
-1089255
-1089248
-1089356
-1089290
-1089384
-1089491
-1089585
-1089604
-1089664
-1089629
-1089675
-1089703
-1089673
-1089820
-1089858
-1089747
-1089715
-1089713
-1089906
-1089910
-1090024
-1089939
-1090032
-1090007
-1089952
-1090006
-1090035
-1090191
-1090148
-1090261
-1090344
-1090199
-1090282
-1090434
-1090352
-1090413
-1090352
-1090333
-1090516
-1090571
-1090358
-1090572
-1090602
-1090588
-1090552
-1090697
-1090628
-1090847
-1090862
-1090952
-1090888
-1090979
-1091016
-1090947
-1091022
-1090915
-1091076
-1091102
-1091227
-1091329
-1091389
-1091269
-1091374
-1091346
-1091412
-1091421
-1091496
-1091524
-1091464
-1091524
-1091515
-1091565
-1091519
-1091660
-1091580
-1091655
-1091739
-1091779
-1091780
-1091888
-1091916
-1091824
-1091908
-1091889
-1091929
-1091854
-1091966
-1092078
-1092059
-1092133
-1092099
-1092218
-1092191
-1092155
-1092125
-1092187
-1092180
-1092109
-1092151
-1092125
-1092137
-1092214
-1092174
-1092065
-1091975
-1092138
-1092004
-1091966
-1092000
-1091971
-1092079
-1091936
-1091878
-1091939
-1091807
-1091864
-1091814
-1091854
-1091761
-1091765
-1091491
-1091684
-1091722
-1091520
-1091531
-1091365
-1091431
-1091349
-1091422
-1091404
-1091370
-1091407
-1091252
-1091266
-1091240
-1091237
-1091219
-1091175
-1091206
-1091215
-1091132
-1091028
-1091050
-1090893
-1090846
-1090781
-1091479
-1090669
-1090847
-1090666
-1090631
-1090646
-1090605
-1090652
-1090660
-1090550
-1090511
-1090454
-1090449
-1090417
-1090568
-1090481
-1090359
-1090420
-1090301
-1090341
-1090217
-1090279
-1090278
-1090270
-1090236
-1090302
-1090291
-1090154
-1090117
-1090160
-1090203
-1090256
-1090177
-1090255
-1090195
-1090089
-1090126
-1090058
-1090113
-1090136
-1090046
-1090204
-1090146
-1090665
-1090194
-1090225
-1090279
-1090205
-1090114
-1090254
-1090186
-1090291
-1090230
-1090285
-1090468
-1090380
-1090407
-1090366
-1090371
-1090218
-1090158
-1090319
-1090396
-1090534
-1090512
-1090532
-1090528
-1090471
-1090400
-1090432
-1090328
-1090404
-1090551
-1090552
-1090631
-1090523
-1090518
-1090473
-1090577
-1090617
-1090601
-1090606
-1090635
-1090597
-1090664
-1090733
-1090621
-1090571
-1090652
-1090626
-1090705
-1090672
-1090900
-1090808
-1090936
-1090749
-1090793
-1090842
-1090905
-1090774
-1090795
-1090896
-1090970
-1090937
-1091083
-1091066
-1090963
-1091061
-1090985
-1091079
-1091112
-1091005
-1091201
-1091271
-1091253
-1091142
-1091136
-1091242
-1091237
-1090951
-1091133
-1091221
-1091421
-1091376
-1091405
-1091393
-1091450
-1091542
-1091403
-1091390
-1091475
-1091483
-1091550
-1091692
-1091626
-1091706
-1091612
-1091692
-1091734
-1091690
-1091722
-1091733
-1091785
-1091832
-1091835
-1091895
-1092974
-1092236
-1091772
-1091944
-1091987
-1092107
-1092042
-1091815
-1092210
-1092200
-1092164
-1092222
-1092292
-1092261
-1092239
-1092293
-1092311
-1092526
-1092431
-1092454
-1092418
-1092523
-1092409
-1092599
-1092626
-1092597
-1092708
-1092670
-1092759
-1092849
-1092469
-1092756
-1092824
-1092922
-1092918
-1092845
-1092919
-1093038
-1093030
-1093004
-1093063
-1092956
-1093010
-1093047
-1093182
-1093298
-1093186
-1093309
-1093327
-1093308
-1093238
-1093367
-1093397
-1093396
-1093496
-1093573
-1093684
-1093769
-1093704
-1093575
-1093600
-1093495
-1093604
-1093685
-1093663
-1094311
-1094171
-1094067
-1094081
-1094000
-1093997
-1094089
-1093993
-1094176
-1094102
-1094103
-1094194
-1094277
-1094289
-1094346
-1094228
-1094135
-1094324
-1094419
-1093991
-1094236
-1094470
-1094548
-1094512
-1094544
-1094465
-1094496
-1094529
-1094587
-1094750
-1094621
-1094650
-1094466
-1094657
-1095501
-1094766
-1094543
-1094495
-1094634
-1094516
-1094579
-1094613
-1094649
-1094601
-1094535
-1095236
-1094701
-1094579
-1094338
-1094303
-1094367
-1094253
-1094286
-1094177
-1094265
-1094044
-1093938
-1094010
-1094004
-1093996
-1093906
-1093937
-1093868
-1093780
-1093833
-1093702
-1093641
-1093674
-1093657
-1093553
-1093479
-1093577
-1093457
-1093344
-1094127
-1093233
-1093232
-1093199
-1093173
-1092790
-1092807
-1092921
-1092924
-1092972
-1092948
-1092881
-1092776
-1092745
-1092615
-1092686
-1092714
-1092629
-1092542
-1092471
-1092455
-1092312
-1092287
-1092278
-1092302
-1092370
-1092380
-1092352
-1092338
-1092250
-1092074
-1092080
-1092043
-1092140
-1092104
-1092098
-1091969
-1091931
-1091953
-1091962
-1091903
-1091893
-1091948
-1091929
-1091987
-1091877
-1091939
-1091871
-1091950
-1091867
-1091876
-1091796
-1091793
-1091851
-1091910
-1091960
-1091847
-1091837
-1091847
-1091881
-1091752
-1091740
-1091774
-1091716
-1091771
-1091867
-1091937
-1091771
-1091825
-1091822
-1091824
-1091849
-1091839
-1091909
-1091975
-1091946
-1092043
-1092062
-1091939
-1091931
-1091899
-1091933
-1091932
-1092000
-1092090
-1092095
-1092021
-1092073
-1091970
-1092081
-1092087
-1092038
-1092082
-1092047
-1092052
-1092176
-1092150
-1092256
-1092194
-1092166
-1092229
-1092270
-1092106
-1092214
-1092278
-1092235
-1092350
-1092262
-1092234
-1092226
-1092262
-1092115
-1092291
-1092350
-1092072
-1092401
-1092369
-1092399
-1092437
-1092556
-1092393
-1092379
-1092433
-1092472
-1092435
-1092604
-1092667
-1092567
-1092684
-1092534
-1092801
-1092887
-1092785
-1092795
-1092919
-1092671
-1092696
-1092811
-1092823
-1092883
-1093009
-1092978
-1093034
-1093100
-1092997
-1092983
-1093101
-1093041
-1093092
-1093188
-1093222
-1093305
-1093358
-1093256
-1093344
-1093257
-1093240
-1093226
-1093262
-1093366
-1093498
-1093621
-1093703
-1093549
-1093634
-1093520
-1093634
-1093662
-1093569
-1093686
-1093792
-1093912
-1093834
-1093779
-1093836
-1093782
-1093747
-1093845
-1093792
-1093842
-1094048
-1094142
-1094233
-1094215
-1094787
-1094189
-1094034
-1094025
-1094444
-1094055
-1093976
-1094192
-1094241
-1094339
-1094384
-1094279
-1094059
-1094395
-1094552
-1094538
-1094587
-1094550
-1094551
-1094697
-1094616
-1094749
-1094761
-1094706
-1094665
-1094727
-1094785
-1094856
-1094892
-1094908
-1095021
-1094809
-1094902
-1094917
-1094913
-1095085
-1095027
-1095109
-1095263
-1095135
-1095213
-1095314
-1095197
-1095254
-1095323
-1095264
-1095436
-1095573
-1095477
-1095527
-1095444
-1095497
-1095550
-1095611
-1095743
-1095722
-1095731
-1095715
-1095874
-1095628
-1095854
-1096611
-1095962
-1095933
-1095917
-1096732
-1096261
-1096267
-1096095
-1096153
-1096210
-1096221
-1096229
-1096336
-1096394
-1096433
-1096357
-1096501
-1096576
-1096455
-1096399
-1096508
-1096515
-1096593
-1096646
-1096667
-1096750
-1096875
-1096775
-1096626
-1096662
-1096733
-1096770
-1096848
-1096830
-1096973
-1096987
-1097017
-1096991
-1097125
-1097169
-1097112
-1097060
-1097230
-1097159
-1097289
-1097454
-1097286
-1097397
-1097377
-1097408
-1097463
-1097416
-1097499
-1097514
-1097627
-1097653
-1097617
-1097690
-1097744
-1097654
-1097682
-1097751
-1097839
-1097967
-1098110
-1097967
-1098063
-1098013
-1098059
-1098002
-1097976
-1098050
-1097938
-1098179
-1098217
-1098206
-1098319
-1098401
-1098381
-1098297
-1098361
-1098455
-1098461
-1098527
-1098522
-1098622
-1098723
-1098629
-1098622
-1098555
-1098685
-1098783
-1098891
-1098817
-1098936
-1099071
-1099061
-1099008
-1098899
-1098905
-1099057
-1099081
-1099092
-1099120
-1099311
-1099240
-1099294
-1099309
-1099029
-1099236
-1099359
-1099367
-1099265
-1099380
-1099646
-1099596
-1099593
-1099640
-1099381
-1099615
-1099616
-1099273
-1099582
-1100777
-1100217
-1100067
-1100088
-1099986
-1099966
-1100010
-1099998
-1100029
-1100012
-1100200
-1100093
-1100258
-1100273
-1100235
-1100230
-1100293
-1100354
-1100272
-1100358
-1100442
-1100471
-1100492
-1100647
-1100675
-1100593
-1100584
-1100543
-1100643
-1100763
-1100812
-1100856
-1100822
-1100986
-1100889
-1100872
-1100840
-1100880
-1101094
-1101103
-1101089
-1101067
-1101766
-1101392
-1101221
-1101283
-1101245
-1101286
-1101329
-1101364
-1101403
-1101578
-1101615
-1101513
-1101454
-1101483
-1101442
-1101517
-1101552
-1101631
-1101759
-1101891
-1101872
-1101917
-1101865
-1101832
-1101784
-1101863
-1101999
-1101950
-1102034
-1102041
-1102070
-1102234
-1102249
-1102235
-1102156
-1102162
-1102176
-1102255
-1102415
-1102379
-1102470
-1102575
-1102544
-1102510
-1102507
-1102661
-1102604
-1102707
-1102724
-1102836
-1102807
-1102915
-1102889
-1102982
-1102875
-1102769
-1102843
-1103044
-1103080
-1103087
-1103030
-1103197
-1103198
-1103218
-1103244
-1103198
-1103308
-1103395
-1103518
-1103552
-1103528
-1103542
-1103631
-1103581
-1103455
-1103535
-1103508
-1103600
-1103631
-1103744
-1103836
-1103743
-1103841
-1103657
-1103627
-1103722
-1103687
-1103763
-1104799
-1104112
-1103768
-1103802
-1103846
-1103684
-1103561
-1103608
-1103625
-1103497
-1103528
-1103423
-1103537
-1103478
-1103402
-1103354
-1103309
-1103273
-1103245
-1103188
-1103325
-1103263
-1103061
-1103130
-1102996
-1102975
-1102917
-1102616
-1102712
-1102762
-1102743
-1102603
-1102554
-1102399
-1102473
-1102312
-1102146
-1102055
-1102025
-1102029
-1102074
-1102064
-1101920
-1101739
-1101721
-1101579
-1101583
-1101457
-1101412
-1101410
-1101416
-1101387
-1101276
-1101182
-1101131
-1101139
-1101095
-1100869
-1100914
-1100853
-1100797
-1100756
-1100713
-1100573
-1100583
-1100347
-1100260
-1100353
-1100985
-1100412
-1100326
-1100127
-1100054
-1099982
-1099855
-1099949
-1099761
-1099737
-1099671
-1099664
-1099733
-1099644
-1099667
-1099632
-1099513
-1099511
-1099409
-1099315
-1099325
-1099374
-1099407
-1099432
-1099326
-1099275
-1099256
-1099163
-1099034
-1099128
-1099171
-1099087
-1099076
-1099162
-1099168
-1099043
-1099078
-1099002
-1098941
-1098820
-1098822
-1098848
-1098949
-1099051
-1099018
-1098878
-1098804
-1098695
-1098786
-1098642
-1098614
-1098660
-1098777
-1098745
-1098759
-1098690
-1098661
-1098624
-1098639
-1098612
-1098730
-1098803
-1098734
-1098730
-1098681
-1098752
-1098650
-1098692
-1098622
-1098691
-1098608
-1098699
-1098539
-1098522
-1098625
-1098716
-1098709
-1098787
-1098803
-1098552
-1098750
-1098697
-1098681
-1098656
-1098623
-1098706
-1098648
-1098723
-1098679
-1098388
-1098582
-1098804
-1098739
-1098618
-1098601
-1098694
-1098703
-1098754
-1098901
-1098767
-1098842
-1098761
-1098680
-1098678
-1098694
-1098866
-1098912
-1098870
-1098948
-1098958
-1098998
-1098798
-1098819
-1098830
-1098944
-1099032
-1098989
-1099026
-1099090
-1099037
-1099126
-1099145
-1099125
-1099023
-1099116
-1099056
-1099205
-1099261
-1099328
-1099372
-1099243
-1099344
-1099320
-1099230
-1099179
-1099175
-1099219
-1099341
-1099304
-1099344
-1099467
-1099333
-1099395
-1099348
-1099365
-1099542
-1099563
-1099606
-1099581
-1099576
-1099241
-1099498
-1099637
-1099680
-1099621
-1099622
-1099584
-1099680
-1100379
-1099947
-1099887
-1099848
-1099776
-1099874
-1099859
-1099833
-1099872
-1099979
-1099931
-1099985
-1100002
-1100010
-1099991
-1100038
-1100083
-1099964
-1100088
-1100101
-1100178
-1100122
-1100201
-1100150
-1100239
-1100190
-1100139
-1100213
-1100002
-1100254
-1100302
-1100446
-1100476
-1100426
-1100545
-1100446
-1100367
-1100336
-1100392
-1100493
-1100538
-1100601
-1100716
-1100619
-1100607
-1100736
-1100624
-1100658
-1100697
-1100704
-1100768
-1100811
-1100911
-1100924
-1100775
-1100772
-1100800
-1100913
-1100971
-1101108
-1101098
-1101171
-1101224
-1101188
-1101187
-1101136
-1101272
-1101361
-1101350
-1101361
-1101436
-1101051
-1101193
-1101293
-1101397
-1101492
-1101500
-1101426
-1101580
-1101624
-1101794
-1101817
-1101584
-1101597
-1102211
-1101697
-1101694
-1102537
-1102101
-1101899
-1101902
-1101949
-1101983
-1101989
-1102035
-1101923
-1101998
-1102041
-1102147
-1102229
-1102167
-1102137
-1102174
-1102073
-1102037
-1102212
-1102246
-1102158
-1102413
-1102299
-1102402
-1102426
-1102559
-1102453
-1102567
-1102455
-1102590
-1102634
-1102722
-1102652
-1102692
-1102733
-1102689
-1102651
-1102634
-1102615
-1102665
-1102785
-1102899
-1102910
-1102944
-1102995
-1102927
-1102952
-1102938
-1103075
-1103058
-1103030
-1103122
-1103298
-1103207
-1103289
-1103312
-1103285
-1103305
-1103410
-1103304
-1103296
-1103505
-1103581
-1103511
-1103515
-1103471
-1103600
-1103603
-1103555
-1103711
-1103631
-1103654
-1103762
-1103771
-1103831
-1103743
-1103849
-1103717
-1103829
-1103811
-1103934
-1103916
-1103962
-1103987
-1104111
-1104132
-1104160
-1104009
-1104120
-1104194
-1104237
-1104238
-1104210
-1104205
-1104313
-1104323
-1104344
-1104371
-1104390
-1104526
-1104580
-1104531
-1104458
-1104685
-1104656
-1104745
-1104629
-1104612
-1104711
-1104678
-1104706
-1104891
-1104875
-1105033
-1104921
-1104908
-1104855
-1104877
-1104902
-1105087
-1104973
-1105093
-1105270
-1105325
-1105225
-1105197
-1105258
-1105277
-1105278
-1105401
-1105373
-1105413
-1105462
-1105497
-1105429
-1105527
-1105584
-1105559
-1105523
-1105681
-1105644
-1105706
-1105793
-1105817
-1105736
-1105704
-1105707
-1105804
-1105894
-1105850
-1106034
-1106056
-1106062
-1106172
-1106077
-1106096
-1106120
-1106151
-1106902
-1106437
-1106329
-1106339
-1106363
-1106401
-1106356
-1106279
-1106329
-1106369
-1106351
-1106339
-1106507
-1106588
-1106675
-1106613
-1106616
-1106642
-1106767
-1106566
-1106615
-1106673
-1106747
-1106795
-1106873
-1107016
-1107019
-1106927
-1106913
-1106735
-1106926
-1107023
-1107021
-1107140
-1107196
-1107277
-1107153
-1107226
-1108363
-1107544
-1107470
-1107291
-1107373
-1107437
-1107555
-1107493
-1107581
-1107493
-1107470
-1107561
-1107583
-1108086
-1107760
-1107766
-1107847
-1107724
-1107920
-1107930
-1107914
-1107945
-1107795
-1107854
-1107878
-1108034
-1108155
-1107992
-1108000
-1108170
-1108189
-1108194
-1108227
-1108150
-1108202
-1108373
-1108289
-1108393
-1108287
-1108340
-1108346
-1108399
-1108456
-1108620
-1108453
-1108491
-1108539
-1108594
-1108557
-1108527
-1108496
-1108625
-1108642
-1108670
-1108548
-1108640
-1108616
-1108607
-1108661
-1108667
-1108611
-1108684
-1108640
-1108522
-1108567
-1108705
-1108265
-1108450
-1108457
-1108443
-1108367
-1108470
-1108356
-1108311
-1108357
-1108299
-1108341
-1108309
-1108315
-1108193
-1108098
-1108064
-1108110
-1108027
-1108067
-1108124
-1108059
-1107942
-1107939
-1107728
-1107732
-1107745
-1107690
-1107605
-1107650
-1107749
-1107567
-1107468
-1107424
-1107488
-1107458
-1107227
-1107295
-1107131
-1107076
-1107172
-1107024
-1106917
-1106972
-1106620
-1106724
-1106814
-1106671
-1106682
-1106652
-1106712
-1106648
-1106641
-1106572
-1106552
-1106404
-1106226
-1106317
-1106088
-1106116
-1106081
-1106002
-1106060
-1106035
-1105856
-1105710
-1105857
-1105658
-1105679
-1105553
-1105576
-1105702
-1105562
-1105419
-1105403
-1105279
-1105360
-1105219
-1105152
-1105129
-1105134
-1105214
-1105229
-1105164
-1105003
-1104951
-1104964
-1105007
-1104942
-1104984
-1104962
-1104999
-1104900
-1104813
-1104626
-1104616
-1104670
-1104611
-1104697
-1104672
-1104713
-1104703
-1104670
-1104536
-1104593
-1104503
-1104573
-1104416
-1104415
-1104476
-1104555
-1104385
-1105181
-1104738
-1104427
-1104310
-1104360
-1104431
-1104443
-1104451
-1104063
-1104419
-1104364
-1104313
-1104196
-1104169
-1103944
-1104061
-1104078
-1104163
-1104281
-1104310
-1104216
-1104265
-1104256
-1104067
-1104041
-1103963
-1104100
-1104173
-1104202
-1104104
-1104073
-1104182
-1104248
-1104772
-1104259
-1104060
-1104131
-1104407
-1104279
-1104234
-1104173
-1104017
-1103972
-1104059
-1104093
-1104044
-1104092
-1104159
-1104186
-1104117
-1104004
-1103914
-1103981
-1104052
-1104193
-1104302
-1104082
-1104111
-1104270
-1104208
-1104174
-1104153
-1104055
-1104077
-1104262
-1104243
-1104211
-1104082
-1104172
-1104157
-1104175
-1104123
-1104070
-1104276
-1104225
-1104205
-1104216
-1104243
-1104383
-1104374
-1104223
-1104274
-1104305
-1104324
-1104351
-1104345
-1104433
-1104482
-1104389
-1104381
-1104415
-1104374
-1104258
-1104492
-1104425
-1104554
-1104507
-1104435
-1104515
-1104628
-1104597
-1104503
-1104589
-1104538
-1104697
-1104700
-1104624
-1104675
-1104717
-1104400
-1104470
-1104697
-1104775
-1104743
-1104704
-1104875
-1104862
-1104818
-1104888
-1104913
-1104880
-1104952
-1104893
-1104979
-1105008
-1104943
-1104895
-1104943
-1104933
-1105012
-1105052
-1105074
-1105086
-1105116
-1104984
-1105104
-1105126
-1105136
-1105294
-1105291
-1105308
-1105254
-1105244
-1105274
-1105231
-1105301
-1105389
-1105350
-1105385
-1105327
-1105271
-1105422
-1105380
-1105449
-1105458
-1105380
-1105433
-1105457
-1105431
-1105409
-1105479
-1105508
-1105395
-1105506
-1105504
-1105638
-1105745
-1105637
-1105556
-1105516
-1105607
-1105590
-1105696
-1105592
-1105677
-1105714
-1105699
-1105820
-1105821
-1105739
-1105769
-1105747
-1105687
-1105643
-1105806
-1105721
-1105816
-1105911
-1105794
-1105833
-1105792
-1105823
-1105752
-1105943
-1106016
-1105928
-1106019
-1106012
-1106103
-1105995
-1105914
-1105898
-1106011
-1106008
-1106080
-1106205
-1106244
-1106176
-1106161
-1106206
-1106100
-1106185
-1106197
-1106188
-1106330
-1106410
-1106379
-1106390
-1106351
-1106369
-1106335
-1106364
-1106524
-1106471
-1106600
-1106629
-1106705
-1106703
-1106650
-1106580
-1106550
-1106578
-1106586
-1106454
-1107095
-1107020
-1107061
-1106944
-1107054
-1107040
-1107036
-1107135
-1107170
-1107240
-1107195
-1107222
-1107348
-1107426
-1107421
-1107444
-1107535
-1107573
-1107531
-1107576
-1107742
-1107789
-1107856
-1107915
-1107814
-1107878
-1107759
-1107770
-1107780
-1107949
-1108042
-1108066
-1108098
-1108130
-1108171
-1108170
-1108222
-1108096
-1108224
-1108301
-1108522
-1108622
-1108696
-1108811
-1108899
-1108859
-1108825
-1108943
-1108963
-1109017
-1109164
-1109122
-1109204
-1109332
-1109288
-1109238
-1109321
-1109318
-1109498
-1109550
-1109515
-1109455
-1109571
-1109588
-1109665
-1109544
-1109628
-1109737
-1109758
-1109698
-1109731
-1109843
-1109991
-1110036
-1109969
-1110059
-1109937
-1109970
-1110010
-1110142
-1110379
-1110395
-1110442
-1110560
-1110447
-1110480
-1110533
-1110508
-1110515
-1110672
-1110855
-1110814
-1110922
-1110946
-1110859
-1110923
-1110874
-1110920
-1110932
-1110901
-1110999
-1110944
-1111130
-1111028
-1111022
-1110907
-1111014
-1110857
-1110975
-1111008
-1111035
-1111103
-1111248
-1111100
-1111067
-1110982
-1111094
-1111056
-1111037
-1111255
-1111217
-1111264
-1111424
-1111371
-1111441
-1111387
-1111431
-1111357
-1111466
-1111563
-1111557
-1111585
-1111686
-1111645
-1111588
-1111570
-1111627
-1111547
-1111610
-1112657
-1111985
-1111898
-1111878
-1111580
-1111666
-1111600
-1111633
-1111605
-1111773
-1111909
-1111881
-1111934
-1112025
-1111939
-1111770
-1111786
-1111912
-1111982
-1111710
-1111854
-1111987
-1111908
-1112150
-1112084
-1111983
-1111974
-1112038
-1112097
-1112276
-1112198
-1112362
-1112313
-1112302
-1112321
-1112313
-1112146
-1112076
-1112168
-1112247
-1112263
-1112333
-1112387
-1112323
-1112186
-1112189
-1112126
-1112071
-1112027
-1111978
-1111941
-1111982
-1112029
-1111988
-1111961
-1111831
-1111802
-1111663
-1111732
-1111660
-1111530
-1111555
-1111476
-1111338
-1111229
-1111311
-1111122
-1111172
-1111161
-1111263
-1111281
-1111264
-1111117
-1112027
-1111247
-1111026
-1110961
-1110863
-1110909
-1110740
-1110768
-1110791
-1110761
-1110594
-1110456
-1110518
-1110506
-1110451
-1110418
-1110367
-1110336
-1110305
-1110308
-1110151
-1110058
-1110069
-1109889
-1110029
-1109926
-1109848
-1109855
-1109751
-1109566
-1109446
-1109379
-1109209
-1109250
-1109175
-1108743
-1108949
-1109034
-1108920
-1108887
-1108802
-1108702
-1108546
-1108349
-1108374
-1108219
-1108339
-1108367
-1108214
-1108175
-1108130
-1107990
-1107913
-1107831
-1107761
-1107643
-1107591
-1107678
-1107504
-1107393
-1107263
-1107132
-1107149
-1107018
-1106953
-1107052
-1106885
-1106827
-1106539
-1106683
-1106696
-1106571
-1106430
-1106480
-1106474
-1106369
-1106452
-1106038
-1106300
-1106312
-1106264
-1106310
-1106179
-1106256
-1106213
-1106278
-1106222
-1106248
-1106282
-1106196
-1106137
-1106121
-1106027
-1105995
-1106050
-1106118
-1105977
-1106209
-1106231
-1105998
-1106067
-1106013
-1105958
-1105892
-1105857
-1106013
-1105934
-1106167
-1106269
-1106250
-1106164
-1106089
-1105948
-1106099
-1106097
-1106076
-1106027
-1105951
-1106033
-1106112
-1106290
-1106036
-1105901
-1105880
-1105685
-1105788
-1105694
-1105716
-1105748
-1105716
-1105595
-1105534
-1105477
-1105336
-1105436
-1105226
-1105225
-1105138
-1105140
-1105112
-1105204
-1105088
-1104970
-1104920
-1104981
-1105080
-1105050
-1105149
-1105011
-1104920
-1104822
-1104846
-1104814
-1104819
-1104877
-1105006
-1105066
-1104980
-1104972
-1105013
-1104967
-1105048
-1104931
-1104918
-1104883
-1104980
-1105083
-1105225
-1105276
-1105255
-1105277
-1105425
-1105538
-1105606
-1105498
-1105554
-1105483
-1105605
-1105565
-1105688
-1105800
-1105792
-1105812
-1105852
-1105959
-1105881
-1106022
-1105974
-1106008
-1106059
-1106034
-1106127
-1106323
-1106192
-1106232
-1106265
-1106293
-1106279
-1106482
-1106456
-1106476
-1106427
-1106524
-1106668
-1106694
-1106838
-1106732
-1106880
-1106912
-1107016
-1106998
-1107074
-1107263
-1107366
-1107311
-1107226
-1107280
-1107247
-1107333
-1107358
-1107476
-1107586
-1108069
-1107568
-1107333
-1107157
-1107118
-1106993
-1107115
-1107020
-1107138
-1107011
-1106997
-1107111
-1106980
-1106866
-1106874
-1106999
-1106968
-1106983
-1107041
-1107188
-1107361
-1107365
-1107101
-1107256
-1107427
-1107320
-1107385
-1107403
-1107460
-1107597
-1107681
-1107640
-1107716
-1107779
-1107695
-1107739
-1107597
-1107606
-1107859
-1107808
-1107795
-1107914
-1107899
-1107778
-1107758
-1107858
-1107921
-1107892
-1107961
-1108040
-1107993
-1108086
-1108053
-1108146
-1108218
-1108101
-1108060
-1108111
-1108247
-1108305
-1108411
-1108323
-1108362
-1108347
-1108296
-1108342
-1108429
-1108533
-1108182
-1108301
-1108405
-1108559
-1108579
-1108538
-1108591
-1108197
-1108375
-1108489
-1108488
-1108684
-1108757
-1108829
-1108680
-1108667
-1108753
-1108654
-1108690
-1108818
-1108874
-1108926
-1108922
-1108838
-1108741
-1108885
-1108845
-1108738
-1108793
-1108779
-1108818
-1108852
-1108889
-1108962
-1108804
-1108933
-1108722
-1108709
-1108733
-1108817
-1108855
-1108899
-1108802
-1108847
-1108828
-1108903
-1108930
-1108848
-1108758
-1108785
-1108807
-1108888
-1109057
-1109119
-1109038
-1109066
-1109031
-1108889
-1109063
-1108952
-1108975
-1109063
-1109113
-1109069
-1109176
-1109013
-1108893
-1108989
-1108928
-1109063
-1109007
-1109166
-1109137
-1109125
-1109076
-1109140
-1109211
-1109186
-1109102
-1109194
-1109107
-1109230
-1109332
-1109463
-1109369
-1109312
-1109468
-1109299
-1109360
-1109350
-1109367
-1109533
-1109474
-1109512
-1109563
-1109554
-1109491
-1109569
-1109555
-1109504
-1109558
-1109661
-1109665
-1109664
-1109669
-1109626
-1109727
-1109719
-1109715
-1109773
-1109962
-1110010
-1109969
-1109893
-1109878
-1110013
-1109918
-1110037
-1110131
-1110196
-1110134
-1110243
-1110121
-1110210
-1110164
-1110141
-1110246
-1110211
-1110242
-1110333
-1110340
-1110395
-1110671
-1110551
-1110469
-1110453
-1110301
-1110381
-1110442
-1110373
-1110616
-1110715
-1110745
-1110575
-1110604
-1110594
-1110556
-1110679
-1110674
-1110851
-1110962
-1111036
-1111063
-1111127
-1111014
-1111139
-1111010
-1111018
-1110919
-1111047
-1111115
-1111221
-1111368
-1111185
-1111353
-1111453
-1111297
-1111367
-1111386
-1111402
-1111465
-1111374
-1111521
-1111593
-1111527
-1111742
-1111609
-1111692
-1111891
-1111920
-1111843
-1111915
-1111950
-1111961
-1112065
-1111837
-1112018
-1112024
-1112050
-1112145
-1112402
-1112398
-1112428
-1112338
-1112287
-1112380
-1112374
-1112379
-1112490
-1112583
-1112564
-1112505
-1112652
-1112658
-1112675
-1112568
-1112633
-1112597
-1112613
-1112730
-1112705
-1112568
-1112518
-1112420
-1112519
-1112584
-1112601
-1112530
-1112533
-1112541
-1112592
-1112447
-1112357
-1112498
-1112295
-1112449
-1112392
-1112353
-1112416
-1112490
-1112370
